20.000        40
20.020        40
20.040       107
20.060       107
20.080       140
20.100       113
20.120        93
20.140        87
20.160        97
20.180       110
20.200        97
20.220        83
20.240        53
20.260        87
20.280        77
20.300       110
20.320        83
20.340       113
20.360        97
20.380        80
20.400        97
20.420        70
20.440       103
20.460        60
20.480        60
20.500       110
20.520        70
20.540        70
20.560        80
20.580        87
20.600        70
20.620        73
20.640        83
20.660        87
20.680       123
20.700        90
20.720        70
20.740        93
20.760        63
20.780        87
20.800        67
20.820        60
20.840        80
20.860       107
20.880        73
20.900        80
20.920        63
20.940        87
20.960        93
20.980       107
21.000       110
21.020        73
21.040        90
21.060        53
21.080        83
21.100        97
21.120        83
21.140       100
21.160       130
21.180        80
21.200        93
21.220        77
21.240        77
21.260        87
21.280        90
21.300       120
21.320        80
21.340        77
21.360       120
21.380       103
21.400       100
21.420       110
21.440        90
21.460        87
21.480       110
21.500       120
21.520        73
21.540        93
21.560       103
21.580       140
21.600       123
21.620        63
21.640        90
21.660        63
21.680       123
21.700       117
21.720        63
21.740        60
21.760        70
21.780        80
21.800        73
21.820        87
21.840        80
21.860        67
21.880        97
21.900       150
21.920        80
21.940       107
21.960        73
21.980       123
22.000       107
22.020       107
22.040        63
22.060       120
22.080       107
22.100       113
22.120       143
22.140       123
22.160       150
22.180       143
22.200       157
22.220       150
22.240       143
22.260       100
22.280       133
22.300       123
22.320        87
22.340       100
22.360        77
22.380        97
22.400        90
22.420        73
22.440        80
22.460        67
22.480       113
22.500        77
22.520       110
22.540        70
22.560        90
22.580        97
22.600        57
22.620        63
22.640        80
22.660       110
22.680        90
22.700        80
22.720       100
22.740        83
22.760        70
22.780        87
22.800        73
22.820        77
22.840        63
22.860        70
22.880        53
22.900        53
22.920        70
22.940        80
22.960        77
22.980       123
23.000        57
23.020        67
23.040        80
23.060        73
23.080        93
23.100        77
23.120        73
23.140       117
23.160        80
23.180        87
23.200        40
23.220        87
23.240        63
23.260        73
23.280        70
23.300        67
23.320        60
23.340        80
23.360        83
23.380        70
23.400        70
23.420        83
23.440        77
23.460        70
23.480        73
23.500        67
23.520        73
23.540        97
23.560        83
23.580        83
23.600        63
23.620       100
23.640        87
23.660       107
23.680        63
23.700        77
23.720        73
23.740        70
23.760        80
23.780       103
23.800        87
23.820        77
23.840        77
23.860        90
23.880        67
23.900        83
23.920       103
23.940        57
23.960        63
23.980       100
24.000        73
24.020        83
24.040        80
24.060        43
24.080        77
24.100        90
24.120        53
24.140        67
24.160        77
24.180        63
24.200        57
24.220        77
24.240        83
24.260        73
24.280        90
24.300        73
24.320        80
24.340        60
24.360        43
24.380        90
24.400       103
24.420        70
24.440        87
24.460       100
24.480        50
24.500        83
24.520       100
24.540        73
24.560        87
24.580        77
24.600        87
24.620        73
24.640       133
24.660        63
24.680        53
24.700        93
24.720       110
24.740        93
24.760       120
24.780       163
24.800       160
24.820       127
24.840       170
24.860       167
24.880       177
24.900       187
24.920       177
24.940       230
24.960       150
24.980       163
25.000       137
25.020       120
25.040        97
25.060        97
25.080        80
25.100        67
25.120       100
25.140        70
25.160        93
25.180        60
25.200        77
25.220       103
25.240        80
25.260        70
25.280        53
25.300        37
25.320        77
25.340        63
25.360        90
25.380        83
25.400        77
25.420        87
25.440        97
25.460        57
25.480        40
25.500        37
25.520        67
25.540        73
25.560        60
25.580        53
25.600        43
25.620        63
25.640        47
25.660        57
25.680        50
25.700        47
25.720        53
25.740        63
25.760        40
25.780        63
25.800        43
25.820        57
25.840        50
25.860        80
25.880        37
25.900        60
25.920        60
25.940        27
25.960        37
25.980        53
26.000        53
26.020        67
26.040        50
26.060        50
26.080        73
26.100        53
26.120        80
26.140        43
26.160        40
26.180        50
26.200        70
26.220        67
26.240        53
26.260        63
26.280        53
26.300        47
26.320        53
26.340        83
26.360        60
26.380        63
26.400        47
26.420        63
26.440        73
26.460        60
26.480        63
26.500        47
26.520        63
26.540        63
26.560        80
26.580        53
26.600        57
26.620        77
26.640        87
26.660        67
26.680        80
26.700        73
26.720        70
26.740        40
26.760        77
26.780        57
26.800        57
26.820        47
26.840        53
26.860        47
26.880        40
26.900        50
26.920        57
26.940        50
26.960        73
26.980        40
27.000        50
27.020        50
27.040        57
27.060        73
27.080        57
27.100        60
27.120        43
27.140        57
27.160        67
27.180        40
27.200        70
27.220        73
27.240        50
27.260        43
27.280        77
27.300        73
27.320        60
27.340        77
27.360        67
27.380        53
27.400        63
27.420        33
27.440        40
27.460        53
27.480        53
27.500        63
27.520        37
27.540        50
27.560        63
27.580        60
27.600        63
27.620        53
27.640        37
27.660        40
27.680        63
27.700        53
27.720        50
27.740        43
27.760        60
27.780        80
27.800        60
27.820        33
27.840        60
27.860        40
27.880        50
27.900        60
27.920        30
27.940        37
27.960        60
27.980        50
28.000        43
28.020        37
28.040        70
28.060        40
28.080        47
28.100        63
28.120        63
28.140        30
28.160        33
28.180        50
28.200        47
28.220        37
28.240        40
28.260        47
28.280        27
28.300        57
28.320        60
28.340        63
28.360        50
28.380        30
28.400        53
28.420        47
28.440        60
28.460        57
28.480        53
28.500        40
28.520        20
28.540        47
28.560        63
28.580        47
28.600        50
28.620        73
28.640        33
28.660        23
28.680        63
28.700        63
28.720        40
28.740        63
28.760        43
28.780        40
28.800        87
28.820        33
28.840        53
28.860        60
28.880        23
28.900        47
28.920        37
28.940        43
28.960        33
28.980        87
29.000        43
29.020        73
29.040        60
29.060        37
29.080        37
29.100        57
29.120        57
29.140        50
29.160        77
29.180        57
29.200        33
29.220        80
29.240        77
29.260        77
29.280        93
29.300        63
29.320       113
29.340        80
29.360        70
29.380       100
29.400       127
29.420        93
29.440       150
29.460       130
29.480        87
29.500       120
29.520        83
29.540        77
29.560        43
29.580        63
29.600        53
29.620        67
29.640        43
29.660        53
29.680        57
29.700        53
29.720        57
29.740        53
29.760        33
29.780        43
29.800        43
29.820        37
29.840        73
29.860        20
29.880        27
29.900        57
29.920        60
29.940        43
29.960        37
29.980        50
30.000        43
30.020        33
30.040        27
30.060        50
30.080        37
30.100        43
30.120        67
30.140        37
30.160        50
30.180        47
30.200        60
30.220        50
30.240        37
30.260        50
30.280        63
30.300        40
30.320        63
30.340        63
30.360        50
30.380        40
30.400        33
30.420        50
30.440        57
30.460        70
30.480        50
30.500        60
30.520        60
30.540        63
30.560        57
30.580        37
30.600        57
30.620        70
30.640        53
30.660        47
30.680        63
30.700        30
30.720        47
30.740        50
30.760        63
30.780        70
30.800        23
30.820        67
30.840        33
30.860        53
30.880        47
30.900        50
30.920        33
30.940        33
30.960        40
30.980        50
31.000        60
31.020        50
31.040        80
31.060        43
31.080        40
31.100        27
31.120        33
31.140        73
31.160        63
31.180        50
31.200       107
31.220       107
31.240        83
31.260        70
31.280       113
31.300       110
31.320       113
31.340       163
31.360       127
31.380       123
31.400       190
31.420       233
31.440       283
31.460       297
31.480       353
31.500       370
31.520       433
31.540       420
31.560       397
31.580       390
31.600       363
31.620       367
31.640       310
31.660       210
31.680       203
31.700       100
31.720       133
31.740       110
31.760        93
31.780       140
31.800        90
31.820       103
31.840        87
31.860        57
31.880        53
31.900        73
31.920        33
31.940        57
31.960        73
31.980        63
32.000        60
32.020        50
32.040        67
32.060        60
32.080        27
32.100        13
32.120        43
32.140        40
32.160        47
32.180        50
32.200        70
32.220        43
32.240        43
32.260        40
32.280        50
32.300        50
32.320        57
32.340        33
32.360        27
32.380        57
32.400        57
32.420        53
32.440        43
32.460        43
32.480        50
32.500        40
32.520        50
32.540        57
32.560        73
32.580        63
32.600        50
32.620        50
32.640        47
32.660        50
32.680        37
32.700        47
32.720        23
32.740        53
32.760        33
32.780        43
32.800        43
32.820        50
32.840        40
32.860        50
32.880        57
32.900        60
32.920        47
32.940        73
32.960        33
32.980        27
33.000        40
33.020        60
33.040        53
33.060        33
33.080        53
33.100        37
33.120        40
33.140        33
33.160        27
33.180        87
33.200        37
33.220        43
33.240        40
33.260        37
33.280        33
33.300        47
33.320        50
33.340        53
33.360        27
33.380        27
33.400        30
33.420        57
33.440        37
33.460        23
33.480        53
33.500        47
33.520        43
33.540        43
33.560        53
33.580        60
33.600        50
33.620        27
33.640        37
33.660        37
33.680        37
33.700        33
33.720        47
33.740        33
33.760        30
33.780        47
33.800        50
33.820        47
33.840        43
33.860        43
33.880        27
33.900        53
33.920        43
33.940        47
33.960        43
33.980        40
34.000        43
34.020        43
34.040        33
34.060        37
34.080        57
34.100        53
34.120        57
34.140        20
34.160        50
34.180        30
34.200        33
34.220        57
34.240        40
34.260        43
34.280        20
34.300        47
34.320        30
34.340        40
34.360        40
34.380        33
34.400        40
34.420        40
34.440        73
34.460        37
34.480        27
34.500        37
34.520        37
34.540        30
34.560        30
34.580        40
34.600        40
34.620        53
34.640        13
34.660        50
34.680        40
34.700        50
34.720        27
34.740        30
34.760        47
34.780        53
34.800        53
34.820        43
34.840        53
34.860        37
34.880        40
34.900        40
34.920        30
34.940        57
34.960        43
34.980        30
35.000        67
35.020        53
35.040        27
35.060        40
35.080        60
35.100        50
35.120        40
35.140        53
35.160        53
35.180        33
35.200        33
35.220        40
35.240        43
35.260        47
35.280        43
35.300        20
35.320        43
35.340        60
35.360        57
35.380        30
35.400        23
35.420        27
35.440        47
35.460        27
35.480        63
35.500        47
35.520        40
35.540        63
35.560        50
35.580        37
35.600        50
35.620        53
35.640        20
35.660        37
35.680        37
35.700        20
35.720        37
35.740        37
35.760        53
35.780        47
35.800        40
35.820        63
35.840        57
35.860        40
35.880        20
35.900        30
35.920        37
35.940        37
35.960        37
35.980        20
36.000        57
36.020        53
36.040        30
36.060        23
36.080        60
36.100        60
36.120        43
36.140        33
36.160        50
36.180        40
36.200        20
36.220        33
36.240        37
36.260        60
36.280        53
36.300        50
36.320        73
36.340        43
36.360        60
36.380        43
36.400        47
36.420        57
36.440        50
36.460        50
36.480        30
36.500        60
36.520        40
36.540        53
36.560        53
36.580        53
36.600        40
36.620        57
36.640        53
36.660        47
36.680        57
36.700        60
36.720        37
36.740        57
36.760        43
36.780        37
36.800        37
36.820        63
36.840        33
36.860        27
36.880        20
36.900        40
36.920        33
36.940        53
36.960        43
36.980        37
37.000        57
37.020        43
37.040        67
37.060        30
37.080        40
37.100        40
37.120        47
37.140        47
37.160        37
37.180        30
37.200        40
37.220        53
37.240        50
37.260        47
37.280        43
37.300        40
37.320        33
37.340        53
37.360        27
37.380        53
37.400        43
37.420        53
37.440        50
37.460        30
37.480        53
37.500        57
37.520        43
37.540        40
37.560        40
37.580        40
37.600        43
37.620        67
37.640        13
37.660        60
37.680        60
37.700        37
37.720        53
37.740        40
37.760        40
37.780        57
37.800        37
37.820        30
37.840        43
37.860        50
37.880        53
37.900        53
37.920        33
37.940        43
37.960        30
37.980        43
38.000        27
38.020        50
38.040        37
38.060        50
38.080        50
38.100        43
38.120        67
38.140        50
38.160        37
38.180        33
38.200        53
38.220        40
38.240        50
38.260        53
38.280        77
38.300        67
38.320        27
38.340        57
38.360        50
38.380        50
38.400        77
38.420        47
38.440        33
38.460        63
38.480        40
38.500        57
38.520        43
38.540        67
38.560        63
38.580        73
38.600        87
38.620        53
38.640        80
38.660        67
38.680        70
38.700        77
38.720       107
38.740        80
38.760        63
38.780        77
38.800       113
38.820        87
38.840       113
38.860       143
38.880       197
38.900       133
38.920       153
38.940       113
38.960       127
38.980       103
39.000        90
39.020        80
39.040        70
39.060        77
39.080        60
39.100        57
39.120        47
39.140        37
39.160        87
39.180        47
39.200        40
39.220        43
39.240        20
39.260        33
39.280        27
39.300        80
39.320        40
39.340        43
39.360        27
39.380        40
39.400        37
39.420        23
39.440        53
39.460        33
39.480        43
39.500        43
39.520        60
39.540        53
39.560        10
39.580        53
39.600        47
39.620        67
39.640        60
39.660        47
39.680        47
39.700        63
39.720        33
39.740        47
39.760        30
39.780        53
39.800        50
39.820        67
39.840        40
39.860        50
39.880        53
39.900        37
39.920        43
39.940        53
39.960        60
39.980        47
40.000        57
40.020        43
40.040        60
40.060        47
40.080        27
40.100        40
40.120        40
40.140        40
40.160        33
40.180        37
40.200        50
40.220        47
40.240        37
40.260        43
40.280        40
40.300        43
40.320        43
40.340        37
40.360        43
40.380        40
40.400        30
40.420        20
40.440        17
40.460        40
40.480        40
40.500        30
40.520        37
40.540        43
40.560        53
40.580        33
40.600        20
40.620        30
40.640        27
40.660        37
40.680        33
40.700        43
40.720        27
40.740        27
40.760        23
40.780        40
40.800        30
40.820        20
40.840        37
40.860        50
40.880        40
40.900        50
40.920        27
40.940        30
40.960        57
40.980        23
41.000        50
41.020        23
41.040        47
41.060        30
41.080        33
41.100        50
41.120        33
41.140        57
41.160        33
41.180        37
41.200        27
41.220        67
41.240        30
41.260        60
41.280        43
41.300        47
41.320        47
41.340        27
41.360        43
41.380        47
41.400        50
41.420        53
41.440        47
41.460        50
41.480        63
41.500        30
41.520        53
41.540        40
41.560        33
41.580        33
41.600        23
41.620        27
41.640        27
41.660        40
41.680        47
41.700        50
41.720        40
41.740        30
41.760        23
41.780        37
41.800        33
41.820        27
41.840        23
41.860        40
41.880        53
41.900        43
41.920        37
41.940        40
41.960        30
41.980        37
42.000        60
42.020        20
42.040        47
42.060        23
42.080        27
42.100        40
42.120        50
42.140        53
42.160        33
42.180        33
42.200        20
42.220        23
42.240        40
42.260        30
42.280        40
42.300        27
42.320        27
42.340        43
42.360        33
42.380        50
42.400        27
42.420        33
42.440        27
42.460        33
42.480        33
42.500        37
42.520        33
42.540        40
42.560        50
42.580        23
42.600        53
42.620        27
42.640        43
42.660        60
42.680        47
42.700        27
42.720        53
42.740        50
42.760        40
42.780        13
42.800        20
42.820        30
42.840        23
42.860        33
42.880        37
42.900        27
42.920        20
42.940        27
42.960        47
42.980        50
43.000        40
43.020        13
43.040        50
43.060        37
43.080        40
43.100        40
43.120        30
43.140        40
43.160        57
43.180        33
43.200        37
43.220        30
43.240        33
43.260        27
43.280        33
43.300        20
43.320        60
43.340        57
43.360        23
43.380        10
43.400        13
43.420        23
43.440        37
43.460        47
43.480        30
43.500        30
43.520        30
43.540        33
43.560        53
43.580        23
43.600        40
43.620        43
43.640        23
43.660        37
43.680        47
43.700        30
43.720        47
43.740        27
43.760        13
43.780        37
43.800        33
43.820        30
43.840        37
43.860        30
43.880        43
43.900        23
43.920        30
43.940        20
43.960        20
43.980        33
44.000        23
44.020        23
44.040        43
44.060        43
44.080        30
44.100        47
44.120        27
44.140        43
44.160        43
44.180        43
44.200        23
44.220        30
44.240        30
44.260        27
44.280        37
44.300        23
44.320        40
44.340        27
44.360        33
44.380        20
44.400        27
44.420        57
44.440        37
44.460        33
44.480        40
44.500        40
44.520        27
44.540        47
44.560        37
44.580        37
44.600        33
44.620        30
44.640        37
44.660        40
44.680        57
44.700        30
44.720        30
44.740        27
44.760        53
44.780        23
44.800        57
44.820        27
44.840        40
44.860        37
44.880        80
44.900        40
44.920        37
44.940        90
44.960        67
44.980        53
45.000        80
45.020        73
45.040        67
45.060        70
45.080        83
45.100       107
45.120        97
45.140       100
45.160       103
45.180       123
45.200       133
45.220       117
45.240       143
45.260       120
45.280       130
45.300        90
45.320       113
45.340       133
45.360        87
45.380       113
45.400       107
45.420       103
45.440        73
45.460        70
45.480        67
45.500        57
45.520        53
45.540        53
45.560        33
45.580        33
45.600        50
45.620        30
45.640        27
45.660        33
45.680        43
45.700        43
45.720        33
45.740        47
45.760        53
45.780        43
45.800        33
45.820        40
45.840        33
45.860        37
45.880        30
45.900        33
45.920        30
45.940        53
45.960        33
45.980        43
46.000        30
46.020        10
46.040        37
46.060        27
46.080        23
46.100        47
46.120        23
46.140        17
46.160        17
46.180        47
46.200        13
46.220        23
46.240        23
46.260        30
46.280        40
46.300        20
46.320        37
46.340        27
46.360        40
46.380        23
46.400        50
46.420        23
46.440        30
46.460        40
46.480        27
46.500        30
46.520        30
46.540        20
46.560        37
46.580        17
46.600        37
46.620        23
46.640        43
46.660        17
46.680        30
46.700        13
46.720        40
46.740        30
46.760        30
46.780        27
46.800        23
46.820        53
46.840        33
46.860        47
46.880        37
46.900        57
46.920        17
46.940        40
46.960        20
46.980        37
47.000        17
47.020        17
47.040        33
47.060        27
47.080        13
47.100        50
47.120        33
47.140        33
47.160        63
47.180        37
47.200        33
47.220        23
47.240        37
47.260        27
47.280        37
47.300        20
47.320        33
47.340        17
47.360        20
47.380        13
47.400        20
47.420        43
47.440        30
47.460        13
47.480        17
47.500        27
47.520        23
47.540        23
47.560        17
47.580        33
47.600        37
47.620        47
47.640        43
47.660        27
47.680        20
47.700        37
47.720        27
47.740        20
47.760        13
47.780        30
47.800        33
47.820        33
47.840        17
47.860        30
47.880        50
47.900        23
47.920        23
47.940        33
47.960        30
47.980        30
48.000        37
48.020        33
48.040        23
48.060        17
48.080        33
48.100        37
48.120        10
48.140        30
48.160        37
48.180        37
48.200        17
48.220        23
48.240        23
48.260        33
48.280        17
48.300        17
48.320        33
48.340        30
48.360        50
48.380        40
48.400        30
48.420        33
48.440        27
48.460        33
48.480        53
48.500        43
48.520        27
48.540        27
48.560        33
48.580        30
48.600        23
48.620        27
48.640        27
48.660        27
48.680        20
48.700        13
48.720        23
48.740        10
48.760        23
48.780        13
48.800        20
48.820        23
48.840        17
48.860        33
48.880        30
48.900        27
48.920        30
48.940        33
48.960        30
48.980        20
49.000        40
49.020        20
49.040        23
49.060        23
49.080        30
49.100        27
49.120        33
49.140        37
49.160         7
49.180        37
49.200        27
49.220        47
49.240        60
49.260        10
49.280         7
49.300        47
49.320        40
49.340        30
49.360        17
49.380        27
49.400        33
49.420        37
49.440        37
49.460        27
49.480        20
49.500        30
49.520        20
49.540        33
49.560        17
49.580        17
49.600        30
49.620        50
49.640        10
49.660        20
49.680        37
49.700        30
49.720        20
49.740        37
49.760        33
49.780        23
49.800        47
49.820        13
49.840        30
49.860         3
49.880        30
49.900        37
49.920        43
49.940        23
49.960        20
49.980        27
50.000        17
50.020        20
50.040        23
50.060        23
50.080        17
50.100        23
50.120        27
50.140        20
50.160        27
50.180        20
50.200        33
50.220        17
50.240        20
50.260        40
50.280        40
50.300        40
50.320        27
50.340        20
50.360        37
50.380        20
50.400        50
50.420        13
50.440        30
50.460        33
50.480        27
50.500        17
50.520        20
50.540        37
50.560        27
50.580        33
50.600        40
50.620        37
50.640        30
50.660        37
50.680        30
50.700        43
50.720        30
50.740        50
50.760        47
50.780        60
50.800        40
50.820        27
50.840        30
50.860        23
50.880        43
50.900        47
50.920        60
50.940        40
50.960        53
50.980        63
51.000        57
51.020        37
51.040        67
51.060        47
51.080        23
51.100        63
51.120        50
51.140        37
51.160        40
51.180        27
51.200        30
51.220        17
51.240        23
51.260        27
51.280        27
51.300        20
51.320        20
51.340        23
51.360        33
51.380        33
51.400        23
51.420        23
51.440        10
51.460        27
51.480        47
51.500        43
51.520        20
51.540        23
51.560        20
51.580        23
51.600        37
51.620        13
51.640        30
51.660        30
51.680        37
51.700        17
51.720        17
51.740        10
51.760        27
51.780        20
51.800        17
51.820        40
51.840         3
51.860        13
51.880        20
51.900        20
51.920        30
51.940        17
51.960        17
51.980        17
52.000        23
52.020        17
52.040        17
52.060        13
52.080        27
52.100        20
52.120        13
52.140        33
52.160        17
52.180        10
52.200        23
52.220        20
52.240        47
52.260        27
52.280        30
52.300        23
52.320        10
52.340        33
52.360        27
52.380        17
52.400        17
52.420        20
52.440        13
52.460        30
52.480        27
52.500        13
52.520         3
52.540        27
52.560        17
52.580        23
52.600        20
52.620        20
52.640        33
52.660        23
52.680        10
52.700        27
52.720        20
52.740        23
52.760        20
52.780        17
52.800        17
52.820        20
52.840        17
52.860        23
52.880        20
52.900        37
52.920        30
52.940         7
52.960        43
52.980        17
53.000        17
53.020        23
53.040        10
53.060        17
53.080        37
53.100        30
53.120        27
53.140        33
53.160        27
53.180        27
53.200        30
53.220        27
53.240        23
53.260        23
53.280        50
53.300        13
53.320        27
53.340        23
53.360        20
53.380        33
53.400        23
53.420        37
53.440        20
53.460        20
53.480        10
53.500        20
53.520        33
53.540        27
53.560        37
53.580        23
53.600        20
53.620        10
53.640        20
53.660        37
53.680        27
53.700         7
53.720        17
53.740        23
53.760        13
53.780        37
53.800        30
53.820        23
53.840        33
53.860        33
53.880        20
53.900        17
53.920        27
53.940         7
53.960        27
53.980        20
54.000        10
54.020        27
54.040        30
54.060        37
54.080        37
54.100        23
54.120        10
54.140        37
54.160        13
54.180        33
54.200        40
54.220        27
54.240        20
54.260        23
54.280        17
54.300        40
54.320        20
54.340        13
54.360        20
54.380        17
54.400        30
54.420        13
54.440        17
54.460        30
54.480        30
54.500        30
54.520        30
54.540        27
54.560        27
54.580        10
54.600        13
54.620        27
54.640        17
54.660        40
54.680        27
54.700        33
54.720        23
54.740        23
54.760        23
54.780        37
54.800        30
54.820        27
54.840        17
54.860        47
54.880        33
54.900        17
54.920        23
54.940        30
54.960        17
54.980        33
55.000        13
55.020        27
55.040        37
55.060        30
55.080        33
55.100        30
55.120        50
55.140        13
55.160        30
55.180        27
55.200        27
55.220        10
55.240        23
55.260        10
55.280        23
55.300        13
55.320        17
55.340        13
55.360        10
55.380        17
55.400        50
55.420        23
55.440        13
55.460        30
55.480        20
55.500        40
55.520        10
55.540        33
55.560        17
55.580        33
55.600        30
55.620        43
55.640        30
55.660        33
55.680        27
55.700        20
55.720        37
55.740        30
55.760        33
55.780        33
55.800        37
55.820        50
55.840        30
55.860        43
55.880        43
55.900        47
55.920        63
55.940        80
55.960        77
55.980        47
56.000        70
56.020        90
56.040        90
56.060       103
56.080        83
56.100       100
56.120       143
56.140       133
56.160       157
56.180       113
56.200       123
56.220       120
56.240       110
56.260       137
56.280       103
56.300       113
56.320       100
56.340        83
56.360       110
56.380        90
56.400        73
56.420        70
56.440        70
56.460        47
56.480        57
56.500        50
56.520        43
56.540        30
56.560        37
56.580        37
56.600        37
56.620        27
56.640        40
56.660        33
56.680        13
56.700        30
56.720        43
56.740        23
56.760        40
56.780        10
56.800        20
56.820        33
56.840        27
56.860        13
56.880        23
56.900        20
56.920        17
56.940        30
56.960         7
56.980        27
57.000        33
57.020        33
57.040        20
57.060        20
57.080        20
57.100        27
57.120         7
57.140        20
57.160        27
57.180        10
57.200        20
57.220        27
57.240        13
57.260        13
57.280        13
57.300         3
57.320        23
57.340        30
57.360        23
57.380        23
57.400        27
57.420        27
57.440        13
57.460        13
57.480        13
57.500        27
57.520        27
57.540        20
57.560        30
57.580        43
57.600        30
57.620        27
57.640        27
57.660        17
57.680        13
57.700        27
57.720        27
57.740        27
57.760        20
57.780        13
57.800        30
57.820        33
57.840        27
57.860        17
57.880        17
57.900        23
57.920        13
57.940        23
57.960        33
57.980        17
58.000        23
58.020        13
58.040        40
58.060        17
58.080        33
58.100        20
58.120        27
58.140        10
58.160        33
58.180        23
58.200        27
58.220        33
58.240        17
58.260        27
58.280        17
58.300        23
58.320        17
58.340        23
58.360        20
58.380        13
58.400        13
58.420        17
58.440        20
58.460        17
58.480        17
58.500        27
58.520        27
58.540        10
58.560        20
58.580        27
58.600        13
58.620        13
58.640        17
58.660        43
58.680        30
58.700        10
58.720        30
58.740        17
58.760        20
58.780        10
58.800        23
58.820        23
58.840        30
58.860        27
58.880         7
58.900        27
58.920        37
58.940        13
58.960        23
58.980        40
59.000        10
59.020        20
59.040        20
59.060        17
59.080        27
59.100        33
59.120        30
59.140        13
59.160        30
59.180        10
59.200        20
59.220        13
59.240        17
59.260        27
59.280        33
59.300        17
59.320        33
59.340        33
59.360        23
59.380        23
59.400        17
59.420        20
59.440        30
59.460        13
59.480        37
59.500        33
59.520         7
59.540        23
59.560        37
59.580        23
59.600        13
59.620        17
59.640        17
59.660        13
59.680        17
59.700        33
59.720        20
59.740        27
59.760        23
59.780        13
59.800        17
59.820        13
59.840        13
59.860        17
59.880        47
59.900        50
59.920        17
59.940        20
59.960        10
59.980        27
60.000        13
