20.000      1183
20.020      1206
20.040      1203
20.060      1313
20.080      1256
20.100      1256
20.120      1276
20.140      1266
20.160      1266
20.180      1299
20.200      1100
20.220      1296
20.240      1233
20.260      1289
20.280      1250
20.300      1070
20.320      1180
20.340      1110
20.360      1206
20.380      1180
20.400      1206
20.420      1060
20.440      1176
20.460      1160
20.480      1020
20.500      1100
20.520      1010
20.540       946
20.560       836
20.580       883
20.600       876
20.620       880
20.640       843
20.660       796
20.680       746
20.700       690
20.720       736
20.740       700
20.760       650
20.780       700
20.800       693
20.820       630
20.840       670
20.860       660
20.880       793
20.900       620
20.920       730
20.940       670
20.960       653
20.980       593
21.000       643
21.020       653
21.040       636
21.060       626
21.080       663
21.100       630
21.120       703
21.140       603
21.160       546
21.180       633
21.200       660
21.220       680
21.240       646
21.260       616
21.280       600
21.300       640
21.320       593
21.340       540
21.360       540
21.380       576
21.400       480
21.420       510
21.440       496
21.460       606
21.480       533
21.500       503
21.520       606
21.540       693
21.560       540
21.580       536
21.600       546
21.620       503
21.640       536
21.660       580
21.680       476
21.700       466
21.720       526
21.740       493
21.760       496
21.780       516
21.800       463
21.820       506
21.840       500
21.860       553
21.880       573
21.900       513
21.920       430
21.940       417
21.960       480
21.980       446
22.000       523
22.020       433
22.040       520
22.060       476
22.080       443
22.100       433
22.120       460
22.140       513
22.160       470
22.180       440
22.200       426
22.220       436
22.240       440
22.260       466
22.280       363
22.300       430
22.320       380
22.340       397
22.360       423
22.380       373
22.400       373
22.420       420
22.440       340
22.460       493
22.480       420
22.500       377
22.520       333
22.540       357
22.560       420
22.580       380
22.600       403
22.620       350
22.640       407
22.660       390
22.680       350
22.700       373
22.720       307
22.740       273
22.760       350
22.780       353
22.800       317
22.820       293
22.840       303
22.860       387
22.880       317
22.900       320
22.920       320
22.940       303
22.960       317
22.980       313
23.000       283
23.020       310
23.040       357
23.060       307
23.080       340
23.100       267
23.120       323
23.140       253
23.160       307
23.180       317
23.200       287
23.220       287
23.240       300
23.260       283
23.280       277
23.300       253
23.320       277
23.340       373
23.360       283
23.380       257
23.400       280
23.420       263
23.440       273
23.460       280
23.480       333
23.500       247
23.520       277
23.540       220
23.560       267
23.580       303
23.600       257
23.620       227
23.640       203
23.660       240
23.680       213
23.700       263
23.720       243
23.740       233
23.760       257
23.780       210
23.800       200
23.820       197
23.840       240
23.860       230
23.880       203
23.900       243
23.920       200
23.940       257
23.960       243
23.980       257
24.000       237
24.020       157
24.040       200
24.060       227
24.080       250
24.100       217
24.120       277
24.140       163
24.160       220
24.180       227
24.200       200
24.220       183
24.240       210
24.260       200
24.280       207
24.300       180
24.320       197
24.340       213
24.360       207
24.380       200
24.400       177
24.420       197
24.440       200
24.460       227
24.480       180
24.500       253
24.520       200
24.540       207
24.560       163
24.580       247
24.600       217
24.620       227
24.640       200
24.660       230
24.680       230
24.700       243
24.720       207
24.740       203
24.760       200
24.780       257
24.800       267
24.820       217
24.840       253
24.860       263
24.880       213
24.900       247
24.920       223
24.940       250
24.960       263
24.980       250
25.000       247
25.020       247
25.040       237
25.060       280
25.080       300
25.100       253
25.120       253
25.140       263
25.160       300
25.180       340
25.200       277
25.220       283
25.240       417
25.260       357
25.280       373
25.300       400
25.320       407
25.340       453
25.360       486
25.380       536
25.400       530
25.420       630
25.440       680
25.460       900
25.480       960
25.500       970
25.520      1020
25.540      1030
25.560      1040
25.580      1423
25.600      1816
25.620      3425
25.640      8577
25.660     15767
25.680     19749
25.700     17996
25.720     11849
25.740      5471
25.760      2842
25.780      2023
25.800      1759
25.820      1506
25.840      1349
25.860      1143
25.880       900
25.900       850
25.920       630
25.940       753
25.960       686
25.980       700
26.000       633
26.020       603
26.040       486
26.060       553
26.080       623
26.100       556
26.120       513
26.140       673
26.160       556
26.180       553
26.200       510
26.220       566
26.240       510
26.260       563
26.280       500
26.300       486
26.320       453
26.340       440
26.360       486
26.380       413
26.400       460
26.420       397
26.440       407
26.460       516
26.480       470
26.500       473
26.520       397
26.540       466
26.560       443
26.580       347
26.600       367
26.620       417
26.640       397
26.660       400
26.680       470
26.700       370
26.720       470
26.740       413
26.760       387
26.780       347
26.800       400
26.820       373
26.840       440
26.860       473
26.880       347
26.900       443
26.920       490
26.940       370
26.960       420
26.980       443
27.000       443
27.020       426
27.040       420
27.060       397
27.080       383
27.100       360
27.120       320
27.140       407
27.160       397
27.180       417
27.200       380
27.220       340
27.240       383
27.260       397
27.280       423
27.300       397
27.320       383
27.340       493
27.360       417
27.380       483
27.400       596
27.420       690
27.440      1499
27.460      2396
27.480      4302
27.500      6148
27.520      7270
27.540      7847
27.560      8160
27.580      8220
27.600      8433
27.620      8563
27.640      8243
27.660      8457
27.680      8400
27.700      8443
27.720      8347
27.740      8776
27.760      8627
27.780      8717
27.800      9183
27.820      8833
27.840      8853
27.860      8960
27.880      9260
27.900      8930
27.920      9183
27.940      9230
27.960      9609
27.980      9833
28.000      9996
28.020     10016
28.040     10329
28.060     10422
28.080     10909
28.100     11102
28.120     11892
28.140     12135
28.160     13168
28.180     14714
28.200     15717
28.220     17710
28.240     19342
28.260     23727
28.280     29478
28.300     41440
28.320     60119
28.340     81967
28.360    104195
28.380    134003
28.400    186255
28.420    280245
28.440    266460
28.460    220019
28.480    206657
28.500    212505
28.520    232094
28.540    245402
28.560    253595
28.580    283896
28.600    280461
28.620    191813
28.640    133220
28.660     97248
28.680     73204
28.700     56724
28.720     42433
28.740     31244
28.760     23284
28.780     20299
28.800     17886
28.820     16600
28.840     15364
28.860     14294
28.880     13628
28.900     12608
28.920     12079
28.940     11252
28.960     11505
28.980     10422
29.000     10319
29.020      9649
29.040      9363
29.060      8896
29.080      8960
29.100      8663
29.120      8430
29.140      8240
29.160      8300
29.180      8010
29.200      7877
29.220      7470
29.240      7490
29.260      7464
29.280      7224
29.300      7021
29.320      6844
29.340      6984
29.360      6814
29.380      6591
29.400      6684
29.420      6671
29.440      6357
29.460      6541
29.480      6394
29.500      6114
29.520      6031
29.540      6248
29.560      6108
29.580      5908
29.600      5924
29.620      5881
29.640      6188
29.660      5758
29.680      5688
29.700      5774
29.720      5571
29.740      5508
29.760      5351
29.780      5391
29.800      5424
29.820      5451
29.840      5278
29.860      5291
29.880      5528
29.900      5248
29.920      5571
29.940      5235
29.960      5318
29.980      5131
30.000      5098
30.020      4965
30.040      4891
30.060      5188
30.080      4675
30.100      4711
30.120      4725
30.140      4658
30.160      4715
30.180      4572
30.200      4348
30.220      4512
30.240      4615
30.260      4535
30.280      4442
30.300      4588
30.320      4465
30.340      4345
30.360      4645
30.380      4278
30.400      4302
30.420      4428
30.440      4242
30.460      4262
30.480      4508
30.500      4482
30.520      4075
30.540      4135
30.560      4292
30.580      4295
30.600      4308
30.620      4225
30.640      4158
30.660      3948
30.680      3975
30.700      4088
30.720      4122
30.740      3902
30.760      4148
30.780      3888
30.800      3942
30.820      4068
30.840      3792
30.860      3762
30.880      3865
30.900      3802
30.920      3768
30.940      3585
30.960      3782
30.980      3749
31.000      3562
31.020      3655
31.040      3569
31.060      3665
31.080      3542
31.100      3225
31.120      3532
31.140      3782
31.160      3662
31.180      3405
31.200      3585
31.220      3502
31.240      3562
31.260      3635
31.280      3585
31.300      3372
31.320      3305
31.340      3339
31.360      3462
31.380      3282
31.400      3222
31.420      3145
31.440      3412
31.460      3462
31.480      3249
31.500      3279
31.520      3215
31.540      3299
31.560      3209
31.580      3185
31.600      3149
31.620      3175
31.640      3239
31.660      3199
31.680      3142
31.700      3135
31.720      3149
31.740      3019
31.760      3035
31.780      3102
31.800      3079
31.820      2979
31.840      2916
31.860      3022
31.880      2945
31.900      2882
31.920      2826
31.940      2732
31.960      2925
31.980      2769
32.000      2925
32.020      2939
32.040      2846
32.060      2769
32.080      2792
32.100      2889
32.120      2799
32.140      2949
32.160      2812
32.180      2806
32.200      2682
32.220      2689
32.240      2789
32.260      2756
32.280      2796
32.300      2886
32.320      2599
32.340      2616
32.360      2789
32.380      2659
32.400      2632
32.420      2706
32.440      2622
32.460      2702
32.480      2536
32.500      2676
32.520      2569
32.540      2556
32.560      2466
32.580      2802
32.600      2449
32.620      2526
32.640      2559
32.660      2529
32.680      2579
32.700      2502
32.720      2566
32.740      2499
32.760      2409
32.780      2569
32.800      2452
32.820      2479
32.840      2229
32.860      2486
32.880      2329
32.900      2382
32.920      2369
32.940      2526
32.960      2366
32.980      2269
33.000      2326
33.020      2442
33.040      2472
33.060      2242
33.080      2272
33.100      2099
33.120      2176
33.140      2332
33.160      2336
33.180      2026
33.200      2336
33.220      2166
33.240      2202
33.260      2146
33.280      2289
33.300      2276
33.320      2076
33.340      2176
33.360      1989
33.380      2342
33.400      2136
33.420      2176
33.440      1966
33.460      2132
33.480      2152
33.500      2059
33.520      2092
33.540      2046
33.560      1953
33.580      2136
33.600      1939
33.620      1993
33.640      2079
33.660      2106
33.680      1923
33.700      1813
33.720      2043
33.740      1973
33.760      1969
33.780      1953
33.800      1909
33.820      1876
33.840      1966
33.860      1946
33.880      2102
33.900      1983
33.920      2009
33.940      1829
33.960      1803
33.980      1996
34.000      1906
34.020      1749
34.040      1739
34.060      1883
34.080      1789
34.100      1716
34.120      1649
34.140      1749
34.160      1906
34.180      1729
34.200      1849
34.220      1959
34.240      1783
34.260      1573
34.280      1629
34.300      1669
34.320      1593
34.340      1609
34.360      1696
34.380      1593
34.400      1596
34.420      1673
34.440      1639
34.460      1739
34.480      1679
34.500      1729
34.520      1673
34.540      1579
34.560      1389
34.580      1546
34.600      1546
34.620      1623
34.640      1623
34.660      1513
34.680      1629
34.700      1556
34.720      1489
34.740      1493
34.760      1586
34.780      1559
34.800      1563
34.820      1483
34.840      1516
34.860      1486
34.880      1546
34.900      1619
34.920      1553
34.940      1669
34.960      1523
34.980      1586
35.000      1509
35.020      1336
35.040      1529
35.060      1559
35.080      1453
35.100      1523
35.120      1713
35.140      1586
35.160      1459
35.180      1569
35.200      1579
35.220      1486
35.240      1586
35.260      1606
35.280      1763
35.300      1729
35.320      1763
35.340      1823
35.360      1899
35.380      2059
35.400      2186
35.420      2146
35.440      2199
35.460      2629
35.480      2906
35.500      3535
35.520      3998
35.540      4791
35.560      5684
35.580      6887
35.600      7840
35.620      9006
35.640      9913
35.660     11109
35.680     11932
35.700     11402
35.720     11419
35.740     11542
35.760     10133
35.780      9436
35.800      8423
35.820      7377
35.840      6354
35.860      5428
35.880      4472
35.900      3795
35.920      3322
35.940      2879
35.960      2502
35.980      2259
36.000      2122
36.020      1979
36.040      1873
36.060      1819
36.080      1756
36.100      1533
36.120      1419
36.140      1446
36.160      1413
36.180      1286
36.200      1236
36.220      1213
36.240      1193
36.260      1216
36.280      1296
36.300      1133
36.320      1196
36.340      1223
36.360      1070
36.380      1106
36.400      1113
36.420      1063
36.440      1083
36.460      1076
36.480      1016
36.500       966
36.520       980
36.540       853
36.560       933
36.580       863
36.600       926
36.620       886
36.640       906
36.660       946
36.680       960
36.700       820
36.720       866
36.740       850
36.760       886
36.780       873
36.800       966
36.820       916
36.840       873
36.860       856
36.880       886
36.900       900
36.920       903
36.940       906
36.960       873
36.980       820
37.000       876
37.020       846
37.040       753
37.060       820
37.080       720
37.100       810
37.120       803
37.140       853
37.160       856
37.180       716
37.200       820
37.220       803
37.240       786
37.260       720
37.280       790
37.300       740
37.320       836
37.340       740
37.360       800
37.380       726
37.400       696
37.420       743
37.440       743
37.460       740
37.480       666
37.500       883
37.520       730
37.540       710
37.560       740
37.580       733
37.600       620
37.620       676
37.640       720
37.660       633
37.680       666
37.700       620
37.720       673
37.740       623
37.760       640
37.780       636
37.800       650
37.820       646
37.840       526
37.860       570
37.880       656
37.900       676
37.920       653
37.940       716
37.960       580
37.980       603
38.000       583
38.020       723
38.040       660
38.060       560
38.080       616
38.100       596
38.120       530
38.140       576
38.160       590
38.180       550
38.200       550
38.220       686
38.240       600
38.260       610
38.280       520
38.300       583
38.320       603
38.340       530
38.360       573
38.380       483
38.400       446
38.420       530
38.440       550
38.460       496
38.480       536
38.500       463
38.520       526
38.540       486
38.560       483
38.580       540
38.600       470
38.620       506
38.640       560
38.660       533
38.680       450
38.700       496
38.720       486
38.740       546
38.760       463
38.780       486
38.800       490
38.820       573
38.840       533
38.860       500
38.880       403
38.900       473
38.920       550
38.940       526
38.960       476
38.980       506
39.000       490
39.020       460
39.040       463
39.060       576
39.080       426
39.100       483
39.120       476
39.140       453
39.160       506
39.180       483
39.200       460
39.220       486
39.240       483
39.260       456
39.280       367
39.300       450
39.320       430
39.340       410
39.360       436
39.380       423
39.400       473
39.420       400
39.440       420
39.460       397
39.480       410
39.500       433
39.520       400
39.540       460
39.560       433
39.580       357
39.600       367
39.620       420
39.640       383
39.660       383
39.680       407
39.700       320
39.720       436
39.740       363
39.760       357
39.780       373
39.800       363
39.820       403
39.840       397
39.860       340
39.880       377
39.900       426
39.920       383
39.940       350
39.960       387
39.980       327
40.000       380
40.020       320
40.040       333
40.060       383
40.080       390
40.100       383
40.120       333
40.140       347
40.160       363
40.180       337
40.200       390
40.220       280
40.240       363
40.260       357
40.280       333
40.300       337
40.320       270
40.340       357
40.360       373
40.380       313
40.400       327
40.420       380
40.440       313
40.460       423
40.480       307
40.500       280
40.520       290
40.540       347
40.560       300
40.580       250
40.600       273
40.620       317
40.640       417
40.660       293
40.680       293
40.700       277
40.720       297
40.740       327
40.760       297
40.780       303
40.800       230
40.820       300
40.840       287
40.860       210
40.880       280
40.900       323
40.920       313
40.940       323
40.960       317
40.980       270
41.000       293
41.020       287
41.040       310
41.060       343
41.080       307
41.100       280
41.120       263
41.140       297
41.160       267
41.180       257
41.200       267
41.220       303
41.240       287
41.260       300
41.280       233
41.300       300
41.320       300
41.340       287
41.360       270
41.380       250
41.400       240
41.420       257
41.440       273
41.460       253
41.480       307
41.500       263
41.520       233
41.540       280
41.560       213
41.580       310
41.600       210
41.620       250
41.640       213
41.660       273
41.680       193
41.700       217
41.720       227
41.740       233
41.760       247
41.780       273
41.800       243
41.820       227
41.840       210
41.860       240
41.880       230
41.900       247
41.920       240
41.940       263
41.960       250
41.980       223
42.000       187
42.020       163
42.040       203
42.060       177
42.080       220
42.100       203
42.120       243
42.140       240
42.160       200
42.180       190
42.200       203
42.220       200
42.240       230
42.260       233
42.280       207
42.300       217
42.320       170
42.340       230
42.360       210
42.380       190
42.400       193
42.420       210
42.440       207
42.460       177
42.480       240
42.500       200
42.520       160
42.540       190
42.560       167
42.580       163
42.600       193
42.620       203
42.640       230
42.660       190
42.680       163
42.700       163
42.720       197
42.740       210
42.760       190
42.780       233
42.800       190
42.820       187
42.840       253
42.860       280
42.880       237
42.900       233
42.920       207
42.940       203
42.960       247
42.980       173
43.000       170
43.020       207
43.040       200
43.060       140
43.080       163
43.100       177
43.120       123
43.140       183
43.160       143
43.180       160
43.200       160
43.220       227
43.240       140
43.260       153
43.280       153
43.300       147
43.320       163
43.340       190
43.360       207
43.380       137
43.400       133
43.420       143
43.440       153
43.460       197
43.480       140
43.500       173
43.520       120
43.540       147
43.560       147
43.580       153
43.600       177
43.620       127
43.640       173
43.660       157
43.680       147
43.700       147
43.720       123
43.740       137
43.760       177
43.780       197
43.800       143
43.820       143
43.840       190
43.860       173
43.880       157
43.900       137
43.920       143
43.940       180
43.960       137
43.980       117
44.000       150
44.020       193
44.040       177
44.060       143
44.080       157
44.100       170
44.120       117
44.140       147
44.160       167
44.180       153
44.200       163
44.220       193
44.240       163
44.260       113
44.280       167
44.300       127
44.320       130
44.340       120
44.360       153
44.380       137
44.400       160
44.420       117
44.440       153
44.460       100
44.480       147
44.500       133
44.520       137
44.540       147
44.560        90
44.580       140
44.600       107
44.620       117
44.640       130
44.660       157
44.680       123
44.700       153
44.720       147
44.740        93
44.760       123
44.780       163
44.800       130
44.820       117
44.840       163
44.860       123
44.880       130
44.900       110
44.920       123
44.940       137
44.960       133
44.980       140
45.000       150
45.020       113
45.040       160
45.060       123
45.080       123
45.100       140
45.120       107
45.140       133
45.160       163
45.180       113
45.200       130
45.220       177
45.240       130
45.260       193
45.280        70
45.300       110
45.320       137
45.340       147
45.360       127
45.380       107
45.400       120
45.420       130
45.440       143
45.460       127
45.480        93
45.500        93
45.520       133
45.540       127
45.560       103
45.580       167
45.600       180
45.620       173
45.640       123
45.660       117
45.680       143
45.700        93
45.720        93
45.740       123
45.760       143
45.780       127
45.800       123
45.820       140
45.840       117
45.860        87
45.880       127
45.900       100
45.920       103
45.940       103
45.960       127
45.980        97
46.000        80
46.020        87
46.040        90
46.060       123
46.080       137
46.100       130
46.120       103
46.140       120
46.160        97
46.180       130
46.200       120
46.220       123
46.240       127
46.260        73
46.280       127
46.300       113
46.320        87
46.340       113
46.360       127
46.380       110
46.400       107
46.420       117
46.440       103
46.460        90
46.480       137
46.500       100
46.520       127
46.540       157
46.560       100
46.580       153
46.600       143
46.620       103
46.640       107
46.660       100
46.680        93
46.700       107
46.720        90
46.740       100
46.760       123
46.780       123
46.800       120
46.820       143
46.840       113
46.860       163
46.880       127
46.900       100
46.920        67
46.940       157
46.960       123
46.980       123
47.000       133
47.020        73
47.040       127
47.060       100
47.080       153
47.100        97
47.120       137
47.140        90
47.160       113
47.180        97
47.200       137
47.220       110
47.240       130
47.260       133
47.280       110
47.300       117
47.320        83
47.340        63
47.360       113
47.380        93
47.400       117
47.420       103
47.440       120
47.460       160
47.480        97
47.500       140
47.520       140
47.540        97
47.560       107
47.580       107
47.600       107
47.620        97
47.640        67
47.660       113
47.680        80
47.700        73
47.720       133
47.740       127
47.760        97
47.780        87
47.800       107
47.820        93
47.840       100
47.860       137
47.880       127
47.900       130
47.920       107
47.940       120
47.960        83
47.980        97
48.000       107
48.020        80
48.040       103
48.060       117
48.080       110
48.100        77
48.120       100
48.140       147
48.160        93
48.180        63
48.200       123
48.220        93
48.240        80
48.260       147
48.280       110
48.300       107
48.320        93
48.340       133
48.360        97
48.380       117
48.400       113
48.420       100
48.440        80
48.460       120
48.480        90
48.500       103
48.520        97
48.540       127
48.560        90
48.580       110
48.600        63
48.620        73
48.640       100
48.660       103
48.680        77
48.700        83
48.720        70
48.740        80
48.760        90
48.780        93
48.800       107
48.820        87
48.840       113
48.860        83
48.880       110
48.900        77
48.920       163
48.940       123
48.960       103
48.980       123
49.000        80
49.020       130
49.040        60
49.060       143
49.080       127
49.100       123
49.120       110
49.140       100
49.160       110
49.180        80
49.200        97
49.220        70
49.240       103
49.260       100
49.280        97
49.300        90
49.320        90
49.340        97
49.360        90
49.380       107
49.400       113
49.420       117
49.440        83
49.460       113
49.480        87
49.500        97
49.520       113
49.540        97
49.560        90
49.580       120
49.600        80
49.620        80
49.640        70
49.660        87
49.680       100
49.700       100
49.720       107
49.740       103
49.760       110
49.780       103
49.800        83
49.820        80
49.840       100
49.860       117
49.880        70
49.900       100
49.920        63
49.940        70
49.960        87
49.980        63
50.000       130
50.020        90
50.040       110
50.060       107
50.080        93
50.100       123
50.120        93
50.140        80
50.160        67
50.180        87
50.200        83
50.220       113
50.240        77
50.260        83
50.280       103
50.300        70
50.320        77
50.340        93
50.360       107
50.380        87
50.400       113
50.420        87
50.440        93
50.460       117
50.480       110
50.500        77
50.520       100
50.540       150
50.560        90
50.580        80
50.600       127
50.620        97
50.640       123
50.660       100
50.680       110
50.700        73
50.720       117
50.740       103
50.760       103
50.780       117
50.800        97
50.820        87
50.840       117
50.860        90
50.880        80
50.900        63
50.920       107
50.940        67
50.960        93
50.980        80
51.000       107
51.020       103
51.040        83
51.060       123
51.080        83
51.100        73
51.120       137
51.140        90
51.160        67
51.180        93
51.200        87
51.220       113
51.240        87
51.260        90
51.280        77
51.300        87
51.320        83
51.340        97
51.360        77
51.380        77
51.400       110
51.420        73
51.440        93
51.460        53
51.480       103
51.500        97
51.520       107
51.540       103
51.560       107
51.580        70
51.600        57
51.620        93
51.640        97
51.660        90
51.680        90
51.700        77
51.720        93
51.740        97
51.760       110
51.780       100
51.800       100
51.820        77
51.840        97
51.860       100
51.880        80
51.900        60
51.920        93
51.940        87
51.960        93
51.980        77
52.000        87
52.020       137
52.040       127
52.060       127
52.080       100
52.100        93
52.120       100
52.140        87
52.160        73
52.180        67
52.200        97
52.220       117
52.240       100
52.260        90
52.280        83
52.300        97
52.320        87
52.340       130
52.360        97
52.380       107
52.400        87
52.420        83
52.440        93
52.460        73
52.480        77
52.500       110
52.520        83
52.540        83
52.560        90
52.580        83
52.600       100
52.620        87
52.640        93
52.660       127
52.680       107
52.700        73
52.720       117
52.740        90
52.760       107
52.780       113
52.800        77
52.820        87
52.840        90
52.860       140
52.880       110
52.900        73
52.920        73
52.940       103
52.960       117
52.980       100
53.000        93
53.020        87
53.040        60
53.060        80
53.080       100
53.100        63
53.120        83
53.140        80
53.160        73
53.180        70
53.200        83
53.220        80
53.240        87
53.260        93
53.280        93
53.300       117
53.320        93
53.340        40
53.360       100
53.380       107
53.400       100
53.420        83
53.440        83
53.460       120
53.480        97
53.500        50
53.520        53
53.540       120
53.560        97
53.580       103
53.600        63
53.620       103
53.640        80
53.660        77
53.680       100
53.700        87
53.720        80
53.740        83
53.760        80
53.780       117
53.800        40
53.820        73
53.840        83
53.860        80
53.880        83
53.900        83
53.920        77
53.940        87
53.960        63
53.980        80
54.000        63
54.020        93
54.040        73
54.060        97
54.080       100
54.100       110
54.120        93
54.140       130
54.160        97
54.180        83
54.200       107
54.220        87
54.240        73
54.260        77
54.280        77
54.300       117
54.320        93
54.340        67
54.360       100
54.380        73
54.400        83
54.420        90
54.440        93
54.460        97
54.480        90
54.500        93
54.520        50
54.540       103
54.560       103
54.580        90
54.600        90
54.620        60
54.640        63
54.660        63
54.680       137
54.700        93
54.720        77
54.740        93
54.760        80
54.780       127
54.800       113
54.820        67
54.840        70
54.860        60
54.880        93
54.900        87
54.920       113
54.940        90
54.960       110
54.980       107
55.000       110
55.020        83
55.040        70
55.060        83
55.080        87
55.100       107
55.120       100
55.140        53
55.160        63
55.180        90
55.200       107
55.220       110
55.240        77
55.260        93
55.280        73
55.300       100
55.320       110
55.340        87
55.360        87
55.380       107
55.400       103
55.420        83
55.440        77
55.460        77
55.480        67
55.500        70
55.520        63
55.540       113
55.560        97
55.580        87
55.600        53
55.620        63
55.640       113
55.660        70
55.680        83
55.700        93
55.720        67
55.740        70
55.760        70
55.780       100
55.800        87
55.820        77
55.840        77
55.860        57
55.880        90
55.900        57
55.920       103
55.940       103
55.960        60
55.980        83
56.000        90
56.020        73
56.040        87
56.060       117
56.080        93
56.100        73
56.120        50
56.140        87
56.160        97
56.180        80
56.200        57
56.220        57
56.240        83
56.260       110
56.280        80
56.300        50
56.320       100
56.340        60
56.360        57
56.380        87
56.400        90
56.420        87
56.440        73
56.460        87
56.480        70
56.500        80
56.520        87
56.540        60
56.560        90
56.580        70
56.600       117
56.620        87
56.640        83
56.660       107
56.680        90
56.700       113
56.720        90
56.740        83
56.760        67
56.780        63
56.800        57
56.820        73
56.840        97
56.860        87
56.880        83
56.900       103
56.920        73
56.940        77
56.960        90
56.980        87
57.000        83
57.020        73
57.040        90
57.060        77
57.080        67
57.100        77
57.120        80
57.140        67
57.160        80
57.180        90
57.200       117
57.220        63
57.240        73
57.260        97
57.280        43
57.300        97
57.320       103
57.340        87
57.360        80
57.380        67
57.400        80
57.420        67
57.440        93
57.460       100
57.480        90
57.500        77
57.520       100
57.540        93
57.560       100
57.580        83
57.600        70
57.620        60
57.640        60
57.660       103
57.680        80
57.700        57
57.720        63
57.740        67
57.760        80
57.780        93
57.800        70
57.820        70
57.840        53
57.860        77
57.880        60
57.900        67
57.920       113
57.940        93
57.960       100
57.980        83
58.000       117
58.020        90
58.040        87
58.060        97
58.080        83
58.100        73
58.120       117
58.140       113
58.160        70
58.180        97
58.200       113
58.220        80
58.240        73
58.260        93
58.280        80
58.300        80
58.320        67
58.340       100
58.360        67
58.380        77
58.400       113
58.420        73
58.440        50
58.460       117
58.480        73
58.500       100
58.520        77
58.540        63
58.560        93
58.580       103
58.600        97
58.620       120
58.640       117
58.660        97
58.680       127
58.700        90
58.720       100
58.740        97
58.760       143
58.780       183
58.800       243
58.820       400
58.840       853
58.860      1509
58.880      2096
58.900      1919
58.920      1299
58.940       620
58.960       387
58.980       410
59.000       506
59.020       863
59.040      1043
59.060      1006
59.080       690
59.100       360
59.120       260
59.140       237
59.160       140
59.180       123
59.200       127
59.220       117
59.240       103
59.260        97
59.280        77
59.300        87
59.320        87
59.340        63
59.360        73
59.380        57
59.400        67
59.420       100
59.440       100
59.460       103
59.480       117
59.500       100
59.520        70
59.540       113
59.560        87
59.580        77
59.600        60
59.620        93
59.640       100
59.660        77
59.680        90
59.700        80
59.720       110
59.740       127
59.760       120
59.780       103
59.800        97
59.820       103
59.840       110
59.860       127
59.880       117
59.900       127
59.920       157
59.940       167
59.960       170
59.980       163
60.000       187
60.020       147
60.040       150
60.060       153
60.080       167
60.100       127
60.120       150
60.140       157
60.160       157
60.180       113
60.200       117
60.220       163
60.240       127
60.260       127
60.280       113
60.300       130
60.320        83
60.340       110
60.360       117
60.380       113
60.400        93
60.420       107
60.440        90
60.460        97
60.480        87
60.500        63
60.520        80
60.540        73
60.560        63
60.580        77
60.600        80
60.620        87
60.640        70
60.660        77
60.680        80
60.700        77
60.720        83
60.740        60
60.760        80
60.780        93
60.800        67
60.820        60
60.840        50
60.860        70
60.880        93
60.900        67
60.920        67
60.940        73
60.960        80
60.980        90
61.000        70
61.020        87
61.040        77
61.060        80
61.080        60
61.100        60
61.120        63
61.140        73
61.160        93
61.180        53
61.200        70
61.220        80
61.240        53
61.260        67
61.280        53
61.300        60
61.320        50
61.340        67
61.360        47
61.380        50
61.400        57
61.420        60
61.440        67
61.460        60
61.480        63
61.500        63
61.520        80
61.540       100
61.560        87
61.580        63
61.600        87
61.620        77
61.640        57
61.660        77
61.680        60
61.700        70
61.720        90
61.740        53
61.760        57
61.780        53
61.800        67
61.820        97
61.840        60
61.860        67
61.880        83
61.900        80
61.920        80
61.940        63
61.960        80
61.980        90
62.000        80
62.020        67
62.040        90
62.060        57
62.080        57
62.100        77
62.120        87
62.140        70
62.160        77
62.180        77
62.200        77
62.220        37
62.240        67
62.260        67
62.280        77
62.300        67
62.320        53
62.340        67
62.360        77
62.380        63
62.400        70
62.420        63
62.440        73
62.460        70
62.480        67
62.500        70
62.520        53
62.540        60
62.560        67
62.580        83
62.600       100
62.620        63
62.640        73
62.660        73
62.680        70
62.700        47
62.720        50
62.740        33
62.760        53
62.780        60
62.800        67
62.820        83
62.840        90
62.860        60
62.880        60
62.900        83
62.920        67
62.940        70
62.960        80
62.980        43
63.000        33
63.020        83
63.040        67
63.060        97
63.080        73
63.100        70
63.120        60
63.140        83
63.160        73
63.180        50
63.200        57
63.220        50
63.240        60
63.260        43
63.280        53
63.300        47
63.320        47
63.340        77
63.360       103
63.380        53
63.400        80
63.420        50
63.440        57
63.460        77
63.480        53
63.500        73
63.520        83
63.540        77
63.560        67
63.580        50
63.600        83
63.620        63
63.640        50
63.660        97
63.680        63
63.700        90
63.720        70
63.740        90
63.760        77
63.780        63
63.800        43
63.820        57
63.840        73
63.860        63
63.880        53
63.900        70
63.920        80
63.940        67
63.960        70
63.980        37
64.000        50
64.020        80
64.040        87
64.060        60
64.080        97
64.100        43
64.120        43
64.140        73
64.160        60
64.180        90
64.200        77
64.220        77
64.240        70
64.260        67
64.280        43
64.300        67
64.320        67
64.340        47
64.360        60
64.380        93
64.400        53
64.420        87
64.440        73
64.460        43
64.480        67
64.500        80
64.520        63
64.540        63
64.560        80
64.580        60
64.600        70
64.620        63
64.640        63
64.660        60
64.680        53
64.700        40
64.720        47
64.740        67
64.760        53
64.780        53
64.800        50
64.820        57
64.840        83
64.860        60
64.880        57
64.900        53
64.920        47
64.940        50
64.960        60
64.980        70
65.000        80
65.020        40
65.040        70
65.060        57
65.080        57
65.100        43
65.120        60
65.140        77
65.160        80
65.180        50
65.200        60
65.220        53
65.240       117
65.260        43
65.280        53
65.300        53
65.320        60
65.340        53
65.360        57
65.380        53
65.400        83
65.420        73
65.440        63
65.460        73
65.480        53
65.500        60
65.520        53
65.540        57
65.560        67
65.580        53
65.600        50
65.620        70
65.640        80
65.660        57
65.680        87
65.700        80
65.720        77
65.740        67
65.760        70
65.780        53
65.800        83
65.820        50
65.840        40
65.860        37
65.880        63
65.900        50
65.920        77
65.940        57
65.960        60
65.980        77
66.000        47
66.020        87
66.040        77
66.060        67
66.080        40
66.100        57
66.120        63
66.140        47
66.160        83
66.180        70
66.200        37
66.220        57
66.240        70
66.260        63
66.280        70
66.300        67
66.320        70
66.340        60
66.360        33
66.380        47
66.400        73
66.420        77
66.440        73
66.460        47
66.480        67
66.500        40
66.520        60
66.540        53
66.560        57
66.580        57
66.600        37
66.620        57
66.640        67
66.660        60
66.680        77
66.700        60
66.720        57
66.740        37
66.760        60
66.780        73
66.800        60
66.820        67
66.840        43
66.860        37
66.880        43
66.900        53
66.920        63
66.940        60
66.960        30
66.980        60
67.000        63
67.020        47
67.040        50
67.060        73
67.080        60
67.100        63
67.120        57
67.140        57
67.160        83
67.180        67
67.200        73
67.220        50
67.240        97
67.260        63
67.280        53
67.300        53
67.320        43
67.340        63
67.360        53
67.380        60
67.400        50
67.420        50
67.440        40
67.460        50
67.480        57
67.500        60
67.520        53
67.540        37
67.560        60
67.580        57
67.600        33
67.620        77
67.640        47
67.660        60
67.680        70
67.700        47
67.720        43
67.740        60
67.760        53
67.780        60
67.800        63
67.820        57
67.840        57
67.860        47
67.880        40
67.900        53
67.920        53
67.940        63
67.960        57
67.980        53
68.000        33
68.020        47
68.040        43
68.060        63
68.080        57
68.100        37
68.120        73
68.140        63
68.160        57
68.180        83
68.200        80
68.220        67
68.240        87
68.260        33
68.280        60
68.300        27
68.320        60
68.340        50
68.360        67
68.380        37
68.400        47
68.420        37
68.440        40
68.460        53
68.480        50
68.500        50
68.520        63
68.540        63
68.560        53
68.580        33
68.600        67
68.620        47
68.640        37
68.660        63
68.680        53
68.700        67
68.720        77
68.740        40
68.760        60
68.780        57
68.800        33
68.820        57
68.840        53
68.860        33
68.880        40
68.900        40
68.920        50
68.940        53
68.960        53
68.980        70
69.000        50
69.020        53
69.040        60
69.060        50
69.080        53
69.100        63
69.120        47
69.140        53
69.160        40
69.180        30
69.200        63
69.220        53
69.240        67
69.260        37
69.280        57
69.300        47
69.320        90
69.340        43
69.360        63
69.380        60
69.400        57
69.420        47
69.440        53
69.460        60
69.480        47
69.500        63
69.520        53
69.540        20
69.560        40
69.580        63
69.600        60
69.620        67
69.640        40
69.660        43
69.680        40
69.700        37
69.720        60
69.740        50
69.760        37
69.780        30
69.800        50
69.820        50
69.840        63
69.860        40
69.880        53
69.900        40
69.920        70
69.940        53
69.960        53
69.980        47
70.000        43
70.020        57
70.040        40
70.060        33
70.080        60
70.100        73
70.120        57
70.140        73
70.160        47
70.180        57
70.200        60
70.220        33
70.240        43
70.260        47
70.280        57
70.300        73
70.320        43
70.340        47
70.360        57
70.380        60
70.400        60
70.420        43
70.440        40
70.460        37
70.480        53
70.500        37
70.520        33
70.540        40
70.560        60
70.580        43
70.600        53
70.620        63
70.640        47
70.660        57
70.680        40
70.700        60
70.720        43
70.740        73
70.760        47
70.780        57
70.800        50
70.820        43
70.840        33
70.860        47
70.880        37
70.900        57
70.920        47
70.940        40
70.960        57
70.980        57
71.000        60
71.020        43
71.040        60
71.060        47
71.080        47
71.100        50
71.120        57
71.140        67
71.160        40
71.180        27
71.200        60
71.220        43
71.240        60
71.260        47
71.280        67
71.300        47
71.320        40
71.340        17
71.360        73
71.380        47
71.400        60
71.420        57
71.440        33
71.460        23
71.480        50
71.500        43
71.520        53
71.540        50
71.560        67
71.580        50
71.600        43
71.620        37
71.640        50
71.660        43
71.680        30
71.700        50
71.720        63
71.740        40
71.760        57
71.780        70
71.800        47
71.820        77
71.840        53
71.860        50
71.880        57
71.900        80
71.920        50
71.940        63
71.960        40
71.980        53
72.000        50
72.020        53
72.040        43
72.060        57
72.080        57
72.100        27
72.120        67
72.140        43
72.160        47
72.180        53
72.200        43
72.220        43
72.240        67
72.260        47
72.280        53
72.300        50
72.320        53
72.340        77
72.360        43
72.380        60
72.400        43
72.420        43
72.440        50
72.460        40
72.480        57
72.500        60
72.520        33
72.540        43
72.560        40
72.580        37
72.600        30
72.620        57
72.640        17
72.660        47
72.680        33
72.700        53
72.720        73
72.740        37
72.760        50
72.780        47
72.800        63
72.820        53
72.840        33
72.860        63
72.880        50
72.900        47
72.920        50
72.940        33
72.960        30
72.980        37
73.000        73
73.020        43
73.040        70
73.060        33
73.080        53
73.100        47
73.120        50
73.140        40
73.160        27
73.180        30
73.200        53
73.220        63
73.240        53
73.260        40
73.280        30
73.300        50
73.320        30
73.340        57
73.360        80
73.380        40
73.400        30
73.420        53
73.440        50
73.460        30
73.480        57
73.500        27
73.520        47
73.540        30
73.560        27
73.580        23
73.600        40
73.620        33
73.640        37
73.660        53
73.680        50
73.700        33
73.720        40
73.740        40
73.760        37
73.780        33
73.800        37
73.820        40
73.840        77
73.860        43
73.880        70
73.900        43
73.920        33
73.940        60
73.960        57
73.980        30
74.000        53
74.020        43
74.040        50
74.060        50
74.080        70
74.100        40
74.120        53
74.140        40
74.160        30
74.180        37
74.200        33
74.220        33
74.240        40
74.260        53
74.280        70
74.300        40
74.320        53
74.340        40
74.360        47
74.380        27
74.400        43
74.420        40
74.440        17
74.460        47
74.480        47
74.500        53
74.520        43
74.540        40
74.560        63
74.580        20
74.600        37
74.620        43
74.640        40
74.660        60
74.680        97
74.700        43
74.720        30
74.740        43
74.760        67
74.780        63
74.800        47
74.820        50
74.840        50
74.860        60
74.880        50
74.900        43
74.920        53
74.940        60
74.960        63
74.980        47
75.000        67
75.020        67
75.040        67
75.060        60
75.080        87
75.100        57
75.120        70
75.140        80
75.160        83
75.180       137
75.200       117
75.220       103
75.240       120
75.260       147
75.280       140
75.300       137
75.320       173
75.340       230
75.360       167
75.380       257
75.400       260
75.420       230
75.440       383
75.460       307
75.480       317
75.500       380
75.520       390
75.540       373
75.560       436
75.580       337
75.600       370
75.620       350
75.640       307
75.660       370
75.680       357
75.700       310
75.720       283
75.740       187
75.760       253
75.780       220
75.800       203
75.820       170
75.840       143
75.860       167
75.880       180
75.900       100
75.920       107
75.940       127
75.960        83
75.980       120
76.000        70
76.020        67
76.040        70
76.060        47
76.080        67
76.100        60
76.120        73
76.140        50
76.160        70
76.180        63
76.200        60
76.220        43
76.240        43
76.260        53
76.280        27
76.300        47
76.320        50
76.340        47
76.360        53
76.380        47
76.400        43
76.420        57
76.440        63
76.460        70
76.480        30
76.500        27
76.520        20
76.540        87
76.560        27
76.580        50
76.600        33
76.620        43
76.640        43
76.660        33
76.680        33
76.700        43
76.720        37
76.740        23
76.760        33
76.780        43
76.800        33
76.820        33
76.840        57
76.860        37
76.880        47
76.900        43
76.920        73
76.940        23
76.960        57
76.980        33
77.000        33
77.020        13
77.040        37
77.060        37
77.080        60
77.100        37
77.120        43
77.140        30
77.160        37
77.180        60
77.200        50
77.220        23
77.240        40
77.260        37
77.280        27
77.300        40
77.320        27
77.340        33
77.360        50
77.380        40
77.400        30
77.420        20
77.440        30
77.460        30
77.480        43
77.500        43
77.520        27
77.540        23
77.560        20
77.580        27
77.600        37
77.620        23
77.640        17
77.660        47
77.680        43
77.700        37
77.720        53
77.740        13
77.760        33
77.780        30
77.800        20
77.820        30
77.840        40
77.860        33
77.880        37
77.900        63
77.920        37
77.940        43
77.960        17
77.980        53
78.000        17
78.020        20
78.040        27
78.060        27
78.080        50
78.100        40
78.120        47
78.140        30
78.160        50
78.180        67
78.200        20
78.220        17
78.240        33
78.260        43
78.280        13
78.300        43
78.320        27
78.340        50
78.360        33
78.380        30
78.400        40
78.420        40
78.440        20
78.460        43
78.480        30
78.500        53
78.520        27
78.540        47
78.560        33
78.580        23
78.600        27
78.620        30
78.640        33
78.660        27
78.680        33
78.700        40
78.720        43
78.740        17
78.760        13
78.780        37
78.800        60
78.820        43
78.840        23
78.860        37
78.880        30
78.900        40
78.920        33
78.940        33
78.960        50
78.980        23
79.000        23
79.020        20
79.040        63
79.060        47
79.080        50
79.100        47
79.120        43
79.140        37
79.160        30
79.180        27
79.200        43
79.220        27
79.240        23
79.260        30
79.280        20
79.300        30
79.320        30
79.340        23
79.360        40
79.380        63
79.400        57
79.420        40
79.440        50
79.460        27
79.480        33
79.500        47
79.520        33
79.540        27
79.560        23
79.580        30
79.600        23
79.620        40
79.640        53
79.660        27
79.680        33
79.700        37
79.720        20
79.740        27
79.760        30
79.780        43
79.800        30
79.820        43
79.840        40
79.860        33
79.880        43
79.900        37
79.920        40
79.940        43
79.960        43
79.980        40
80.000        40
80.020        17
80.040        13
80.060        17
80.080        37
80.100        17
80.120        47
80.140        33
80.160        27
80.180        30
80.200        23
80.220        43
80.240        33
80.260        33
80.280        30
80.300        20
80.320        17
80.340        43
80.360        33
80.380        27
80.400        33
80.420        17
80.440        47
80.460        40
80.480        33
80.500        43
80.520        33
80.540        23
80.560        27
80.580        50
80.600        40
80.620        23
80.640        47
80.660        33
80.680        30
80.700        33
80.720        13
80.740        30
80.760        27
80.780        30
80.800        27
80.820        30
80.840        33
80.860        17
80.880        17
80.900        10
80.920        37
80.940         7
80.960        23
80.980        27
81.000        37
81.020        17
81.040        30
81.060        40
81.080        30
81.100        37
81.120        13
81.140        37
81.160        23
81.180        40
81.200        20
81.220        40
81.240        27
81.260        27
81.280        40
81.300        13
81.320        30
81.340        20
81.360        47
81.380        10
81.400        33
81.420        37
81.440        30
81.460        37
81.480        17
81.500        20
81.520        20
81.540        10
81.560        23
81.580        13
81.600        47
81.620        23
81.640        43
81.660        30
81.680        27
81.700        47
81.720        33
81.740        30
81.760        33
81.780        33
81.800        30
81.820        30
81.840        33
81.860        40
81.880        43
81.900        27
81.920        27
81.940        40
81.960        47
81.980        17
82.000        20
82.020        20
82.040        23
82.060        53
82.080        23
82.100        40
82.120        37
82.140        20
82.160        13
82.180        33
82.200        43
82.220        30
82.240        37
82.260        13
82.280        30
82.300        20
82.320        27
82.340        17
82.360        20
82.380        33
82.400        17
82.420        20
82.440        23
82.460        23
82.480        43
82.500        37
82.520        20
82.540        37
82.560        27
82.580        23
82.600        43
82.620        17
82.640        53
82.660        37
82.680        57
82.700        63
82.720        47
82.740        33
82.760        27
82.780        43
82.800        43
82.820        40
82.840        73
82.860        10
82.880        60
82.900        43
82.920        40
82.940        30
82.960        40
82.980        50
83.000        40
83.020        33
83.040        47
83.060        53
83.080        50
83.100        43
83.120        43
83.140        47
83.160        47
83.180        50
83.200        63
83.220        47
83.240        63
83.260        57
83.280        60
83.300        60
83.320        87
83.340        93
83.360       100
83.380        93
83.400        90
83.420       120
83.440       200
83.460       243
83.480       357
83.500       470
83.520       703
83.540       883
83.560       933
83.580       806
83.600       646
83.620       506
83.640       310
83.660       297
83.680       193
83.700       173
83.720       153
83.740        97
83.760       100
83.780       100
83.800        53
83.820        83
83.840        63
83.860        57
83.880        63
83.900        57
83.920        50
83.940        53
83.960        53
83.980        60
84.000        37
84.020        57
84.040        53
84.060        60
84.080        37
84.100        50
84.120        27
84.140        47
84.160        43
84.180        37
84.200        47
84.220        30
84.240        37
84.260        47
84.280        40
84.300        47
84.320        33
84.340        33
84.360        27
84.380        37
84.400        40
84.420        33
84.440        27
84.460        37
84.480        33
84.500        43
84.520        27
84.540        30
84.560        40
84.580        67
84.600        47
84.620        30
84.640        20
84.660        37
84.680        57
84.700        17
84.720        37
84.740        40
84.760        27
84.780        30
84.800        27
84.820         3
84.840        60
84.860        30
84.880        27
84.900        40
84.920        43
84.940        37
84.960        20
84.980        30
85.000        27
85.020        33
85.040        43
85.060        40
85.080        27
85.100        17
85.120        30
85.140        43
85.160        40
85.180        23
85.200        37
85.220        60
85.240        30
85.260        27
85.280        23
85.300        53
85.320        33
85.340        40
85.360        23
85.380        23
85.400        20
85.420        43
85.440        20
85.460        30
85.480        27
85.500        30
85.520        37
85.540        37
85.560        30
85.580        37
85.600        43
85.620        23
85.640        37
85.660        20
85.680        17
85.700        30
85.720        20
85.740        20
85.760        47
85.780        23
85.800        30
85.820        40
85.840        30
85.860        23
85.880        27
85.900        27
85.920        30
85.940        23
85.960        13
85.980        40
86.000        10
86.020        33
86.040        23
86.060        30
86.080        13
86.100        40
86.120        23
86.140        17
86.160        27
86.180        13
86.200        17
86.220        27
86.240        23
86.260        33
86.280        57
86.300        27
86.320        23
86.340        30
86.360        40
86.380        30
86.400        30
86.420        37
86.440        37
86.460        17
86.480        37
86.500        27
86.520        33
86.540        17
86.560        53
86.580        20
86.600        27
86.620        27
86.640        23
86.660        23
86.680        43
86.700        23
86.720        50
86.740        33
86.760        33
86.780        37
86.800        20
86.820        13
86.840        33
86.860        20
86.880        50
86.900        10
86.920        20
86.940        13
86.960        10
86.980        17
87.000        37
87.020        10
87.040        23
87.060        50
87.080        13
87.100        23
87.120        40
87.140        43
87.160        37
87.180        17
87.200        43
87.220        30
87.240        20
87.260        23
87.280        27
87.300        23
87.320        23
87.340        33
87.360        37
87.380        10
87.400        30
87.420        30
87.440        30
87.460        17
87.480        33
87.500        37
87.520        17
87.540        13
87.560        27
87.580        33
87.600        27
87.620        33
87.640        23
87.660        20
87.680        17
87.700        27
87.720        30
87.740        50
87.760        33
87.780        27
87.800        17
87.820        37
87.840        33
87.860        23
87.880        30
87.900        23
87.920        13
87.940        27
87.960        23
87.980         7
88.000        43
88.020        30
88.040        43
88.060        23
88.080        20
88.100        13
88.120        17
88.140        33
88.160        27
88.180        30
88.200        37
88.220        27
88.240        17
88.260        30
88.280        30
88.300        30
88.320        30
88.340        23
88.360        23
88.380        33
88.400        20
88.420        13
88.440        23
88.460        17
88.480        27
88.500        20
88.520        20
88.540        30
88.560        27
88.580        17
88.600        27
88.620        13
88.640        13
88.660        10
88.680        17
88.700        33
88.720        13
88.740        17
88.760        33
88.780        17
88.800        17
88.820        40
88.840        17
88.860        33
88.880        27
88.900        23
88.920        27
88.940        23
88.960        13
88.980        30
89.000        27
89.020        20
89.040        20
89.060        40
89.080        33
89.100        50
89.120        17
89.140        40
89.160        37
89.180        23
89.200        20
89.220        37
89.240        33
89.260        13
89.280        27
89.300        33
89.320        50
89.340        17
89.360         7
89.380        47
89.400        20
89.420        37
89.440        30
89.460        40
89.480        33
89.500        40
89.520        17
89.540        10
89.560        20
89.580        23
89.600        27
89.620        17
89.640        40
89.660        23
89.680        33
89.700        20
89.720        50
89.740        27
89.760        27
89.780        43
89.800        17
89.820        37
89.840        30
89.860        40
89.880        33
89.900        33
89.920        33
89.940        37
89.960        37
89.980         3
90.000         3
