20.000       114
20.020       114
20.040       114
20.060       114
20.080       143
20.100        71
20.120       114
20.140       129
20.160       114
20.180       143
20.200       171
20.220       100
20.240        86
20.260       129
20.280       114
20.300       100
20.320       100
20.340       143
20.360       200
20.380       100
20.400       143
20.420       129
20.440       100
20.460        57
20.480       143
20.500       200
20.520       129
20.540       143
20.560       171
20.580       100
20.600        71
20.620       186
20.640       129
20.660        43
20.680        71
20.700       171
20.720       114
20.740       171
20.760       200
20.780       114
20.800        86
20.820       129
20.840       129
20.860       129
20.880       157
20.900       114
20.920       114
20.940       129
20.960        29
20.980       143
21.000       114
21.020       129
21.040       171
21.060       129
21.080       114
21.100       114
21.120       171
21.140       143
21.160       143
21.180       186
21.200       186
21.220       129
21.240       171
21.260       157
21.280       114
21.300       143
21.320        71
21.340        57
21.360       129
21.380        86
21.400        86
21.420       114
21.440       171
21.460       186
21.480       143
21.500       143
21.520       129
21.540       129
21.560       186
21.580       143
21.600       100
21.620       157
21.640       143
21.660        43
21.680        43
21.700       129
21.720        57
21.740       157
21.760       100
21.780       186
21.800       100
21.820       186
21.840       129
21.860       157
21.880       129
21.900        86
21.920       200
21.940       186
21.960       143
21.980       200
22.000       157
22.020       143
22.040       129
22.060       114
22.080       157
22.100       100
22.120       143
22.140       114
22.160       129
22.180       114
22.200        57
22.220       114
22.240       100
22.260       186
22.280       129
22.300       157
22.320       171
22.340        86
22.360       114
22.380       129
22.400       129
22.420       114
22.440       129
22.460       114
22.480        57
22.500       143
22.520       100
22.540       114
22.560       100
22.580        57
22.600        29
22.620       200
22.640       100
22.660       143
22.680       114
22.700       143
22.720       243
22.740       114
22.760       143
22.780       157
22.800       114
22.820        86
22.840       186
22.860       200
22.880       171
22.900       100
22.920       114
22.940       114
22.960       228
22.980        43
23.000       114
23.020       100
23.040        86
23.060       143
23.080        71
23.100       114
23.120       129
23.140       200
23.160        43
23.180       114
23.200        29
23.220       100
23.240       143
23.260        43
23.280       228
23.300       157
23.320       114
23.340       143
23.360       129
23.380       129
23.400       100
23.420       100
23.440       129
23.460       257
23.480       100
23.500       157
23.520       100
23.540        86
23.560       143
23.580        86
23.600        71
23.620        57
23.640       100
23.660       100
23.680       214
23.700       200
23.720        71
23.740       200
23.760       129
23.780       114
23.800       186
23.820        86
23.840       114
23.860        57
23.880       100
23.900       143
23.920       143
23.940        43
23.960       143
23.980       129
24.000        86
24.020       129
24.040        57
24.060        57
24.080       100
24.100       100
24.120       143
24.140        71
24.160       143
24.180       100
24.200       200
24.220       143
24.240       129
24.260       129
24.280       143
24.300       143
24.320       129
24.340       129
24.360       228
24.380       100
24.400       186
24.420       114
24.440        57
24.460       100
24.480       157
24.500        29
24.520       157
24.540       114
24.560        71
24.580        71
24.600       114
24.620       143
24.640       100
24.660       143
24.680       171
24.700       200
24.720        29
24.740       129
24.760       129
24.780       214
24.800       143
24.820       157
24.840        71
24.860       143
24.880       143
24.900       143
24.920       129
24.940       157
24.960       157
24.980       214
25.000       129
25.020       200
25.040       257
25.060       114
25.080       157
25.100       129
25.120       114
25.140       100
25.160       228
25.180       171
25.200       114
25.220       157
25.240       214
25.260       157
25.280       157
25.300       257
25.320       243
25.340       157
25.360       214
25.380       171
25.400       343
25.420       357
25.440       400
25.460       585
25.480       614
25.500       614
25.520       628
25.540       628
25.560       628
25.580       657
25.600      1014
25.620      2528
25.640      4827
25.660      7411
25.680      7783
25.700      6069
25.720      3384
25.740      1585
25.760       700
25.780       471
25.800       714
25.820       457
25.840       457
25.860       414
25.880       271
25.900       328
25.920       486
25.940       386
25.960       386
25.980       300
26.000       243
26.020       357
26.040       300
26.060       286
26.080       328
26.100       257
26.120       314
26.140       257
26.160       286
26.180       300
26.200       343
26.220       300
26.240       428
26.260       357
26.280       257
26.300       257
26.320       314
26.340       200
26.360       157
26.380       328
26.400       343
26.420       186
26.440       271
26.460       200
26.480       257
26.500       257
26.520       171
26.540       271
26.560       200
26.580       129
26.600       186
26.620       200
26.640       343
26.660       228
26.680       157
26.700       171
26.720       257
26.740       271
26.760       186
26.780       243
26.800       300
26.820       157
26.840       257
26.860       157
26.880       214
26.900        86
26.920       228
26.940       143
26.960       114
26.980       271
27.000       228
27.020       271
27.040       214
27.060       300
27.080       200
27.100       228
27.120       171
27.140       314
27.160       286
27.180       129
27.200       214
27.220       129
27.240       243
27.260       228
27.280       186
27.300       257
27.320       414
27.340       286
27.360       328
27.380       243
27.400       357
27.420       543
27.440       857
27.460      1742
27.480      2442
27.500      3013
27.520      3413
27.540      3056
27.560      3956
27.580      3556
27.600      3513
27.620      3384
27.640      3670
27.660      3456
27.680      3399
27.700      3499
27.720      3484
27.740      4084
27.760      3770
27.780      3556
27.800      3813
27.820      3499
27.840      3584
27.860      3998
27.880      3470
27.900      4041
27.920      3656
27.940      3856
27.960      4398
27.980      3784
28.000      4527
28.020      4470
28.040      4727
28.060      4398
28.080      4770
28.100      4898
28.120      5098
28.140      5912
28.160      6312
28.180      8040
28.200      8525
28.220     12395
28.240     17750
28.260     25490
28.280     35029
28.300     46410
28.320     57277
28.340     65945
28.360     76327
28.380     87908
28.400    123251
28.420    248543
28.440    298052
28.460    285928
28.480    284572
28.500    292055
28.520    304335
28.540    304178
28.560    292969
28.580    214686
28.600    107229
28.620     58648
28.640     38170
28.660     28274
28.680     20335
28.700     15679
28.720     12238
28.740      9382
28.760      8439
28.780      7468
28.800      7169
28.820      6940
28.840      5998
28.860      5755
28.880      5598
28.900      5041
28.920      4941
28.940      4755
28.960      4455
28.980      3870
29.000      4227
29.020      3941
29.040      3684
29.060      3941
29.080      3870
29.100      4170
29.120      3384
29.140      3570
29.160      3484
29.180      3427
29.200      3441
29.220      3256
29.240      2913
29.260      3456
29.280      3070
29.300      3313
29.320      3042
29.340      3070
29.360      3127
29.380      2999
29.400      2727
29.420      3084
29.440      2442
29.460      2613
29.480      2985
29.500      2827
29.520      2927
29.540      2827
29.560      2642
29.580      2599
29.600      2428
29.620      2713
29.640      2485
29.660      2399
29.680      2313
29.700      2242
29.720      2456
29.740      2413
29.760      2642
29.780      2071
29.800      2370
29.820      2528
29.840      2013
29.860      2342
29.880      1971
29.900      2156
29.920      2285
29.940      1785
29.960      2056
29.980      2385
30.000      1928
30.020      2228
30.040      2056
30.060      2385
30.080      1814
30.100      2028
30.120      2256
30.140      2442
30.160      1599
30.180      1842
30.200      1856
30.220      2085
30.240      1856
30.260      2299
30.280      1642
30.300      1871
30.320      1842
30.340      1942
30.360      1728
30.380      1928
30.400      1928
30.420      1956
30.440      2071
30.460      1899
30.480      1542
30.500      1942
30.520      1656
30.540      1828
30.560      1856
30.580      2213
30.600      1785
30.620      1971
30.640      1599
30.660      1728
30.680      1542
30.700      1542
30.720      1971
30.740      1528
30.760      1371
30.780      1200
30.800      1485
30.820      1828
30.840      1756
30.860      1871
30.880      1799
30.900      1542
30.920      1842
30.940      1442
30.960      1442
30.980      1499
31.000      1671
31.020      1628
31.040      1628
31.060      1571
31.080      1542
31.100      1414
31.120      1571
31.140      1471
31.160      1714
31.180      1542
31.200      1557
31.220      1299
31.240      1642
31.260      1442
31.280      1571
31.300      1585
31.320      1442
31.340      1414
31.360      1442
31.380      1499
31.400      1371
31.420      1299
31.440      1571
31.460      1342
31.480      1656
31.500      1228
31.520      1571
31.540      1799
31.560      1371
31.580      1671
31.600      1557
31.620      1371
31.640      1428
31.660      1499
31.680      1085
31.700      1457
31.720      1299
31.740      1342
31.760      1157
31.780      1485
31.800      1114
31.820      1428
31.840      1257
31.860      1228
31.880      1200
31.900      1242
31.920      1371
31.940      1185
31.960      1071
31.980      1242
32.000      1485
32.020      1514
32.040      1342
32.060      1485
32.080      1328
32.100      1200
32.120      1371
32.140      1528
32.160      1442
32.180      1257
32.200      1642
32.220      1142
32.240      1071
32.260      1314
32.280      1399
32.300      1342
32.320      1114
32.340      1157
32.360      1242
32.380      1114
32.400      1399
32.420      1057
32.440      1071
32.460      1157
32.480      1028
32.500      1214
32.520      1257
32.540      1299
32.560      1085
32.580      1128
32.600      1200
32.620      1200
32.640      1200
32.660      1157
32.680      1328
32.700      1185
32.720      1042
32.740      1142
32.760      1042
32.780      1214
32.800      1185
32.820      1128
32.840       942
32.860      1128
32.880      1028
32.900      1228
32.920      1085
32.940      1285
32.960       985
32.980       928
33.000      1014
33.020       928
33.040       914
33.060       985
33.080      1142
33.100      1100
33.120       928
33.140       885
33.160       900
33.180      1085
33.200       928
33.220      1014
33.240      1142
33.260      1042
33.280      1014
33.300      1042
33.320      1071
33.340      1014
33.360      1128
33.380       843
33.400       957
33.420      1014
33.440      1071
33.460      1042
33.480       800
33.500      1171
33.520       957
33.540      1028
33.560       942
33.580      1014
33.600      1085
33.620       942
33.640       957
33.660       971
33.680       800
33.700       971
33.720       928
33.740       871
33.760       757
33.780       942
33.800       843
33.820       628
33.840      1128
33.860       743
33.880       971
33.900       800
33.920       900
33.940       942
33.960      1014
33.980       785
34.000       785
34.020       900
34.040       771
34.060       743
34.080       814
34.100       657
34.120       985
34.140       643
34.160       900
34.180       785
34.200       700
34.220       843
34.240       728
34.260       714
34.280       885
34.300       814
34.320       714
34.340       814
34.360       971
34.380       914
34.400       957
34.420       743
34.440       785
34.460       885
34.480       743
34.500       685
34.520       657
34.540      1000
34.560       700
34.580       700
34.600       857
34.620       700
34.640       771
34.660       728
34.680       643
34.700       814
34.720       714
34.740       914
34.760       728
34.780       871
34.800       757
34.820       743
34.840       771
34.860       700
34.880       714
34.900       800
34.920       843
34.940       914
34.960       700
34.980       785
35.000       585
35.020       700
35.040       814
35.060       885
35.080       685
35.100       828
35.120      1042
35.140       857
35.160      1014
35.180       728
35.200       914
35.220       814
35.240       971
35.260       985
35.280       914
35.300      1085
35.320      1071
35.340      1299
35.360      1171
35.380      1571
35.400      1785
35.420      1928
35.440      2113
35.460      2642
35.480      3099
35.500      3984
35.520      4855
35.540      6340
35.560      7211
35.580     10467
35.600     13495
35.620     16708
35.640     21449
35.660     23348
35.680     23576
35.700     22877
35.720     19592
35.740     20463
35.760     17607
35.780     14680
35.800     11367
35.820      8911
35.840      6969
35.860      5526
35.880      4384
35.900      3242
35.920      2885
35.940      2242
35.960      2113
35.980      1585
36.000      1799
36.020      1514
36.040      1328
36.060      1157
36.080       900
36.100       985
36.120       814
36.140       957
36.160       800
36.180       657
36.200       657
36.220       643
36.240       585
36.260       800
36.280       628
36.300       528
36.320       557
36.340       443
36.360       500
36.380       528
36.400       543
36.420       614
36.440       443
36.460       700
36.480       671
36.500       557
36.520       600
36.540       614
36.560       714
36.580       514
36.600       557
36.620       628
36.640       743
36.660       500
36.680       528
36.700       514
36.720       614
36.740       543
36.760       371
36.780       614
36.800       314
36.820       500
36.840       414
36.860       514
36.880       457
36.900       457
36.920       443
36.940       486
36.960       486
36.980       628
37.000       571
37.020       528
37.040       371
37.060       400
37.080       371
37.100       443
37.120       600
37.140       400
37.160       486
37.180       400
37.200       585
37.220       471
37.240       585
37.260       400
37.280       457
37.300       471
37.320       314
37.340       357
37.360       457
37.380       500
37.400       414
37.420       414
37.440       328
37.460       443
37.480       414
37.500       557
37.520       443
37.540       300
37.560       457
37.580       343
37.600       286
37.620       443
37.640       286
37.660       328
37.680       400
37.700       257
37.720       357
37.740       386
37.760       386
37.780       343
37.800       414
37.820       357
37.840       328
37.860       343
37.880       357
37.900       386
37.920       386
37.940       371
37.960       257
37.980       343
38.000       328
38.020       314
38.040       300
38.060       286
38.080       328
38.100       343
38.120       271
38.140       371
38.160       286
38.180       371
38.200       228
38.220       328
38.240       314
38.260       328
38.280       486
38.300       357
38.320       328
38.340       414
38.360       186
38.380       243
38.400       214
38.420       257
38.440       343
38.460       300
38.480       371
38.500       228
38.520       371
38.540       257
38.560       328
38.580       300
38.600       357
38.620       214
38.640       300
38.660       271
38.680       228
38.700       357
38.720       143
38.740       271
38.760       328
38.780       200
38.800       257
38.820       328
38.840       286
38.860       286
38.880       357
38.900       171
38.920       271
38.940       200
38.960       286
38.980       386
39.000       200
39.020       143
39.040       314
39.060       200
39.080       286
39.100       271
39.120       214
39.140       214
39.160       257
39.180       328
39.200       257
39.220       314
39.240       300
39.260       300
39.280       314
39.300       271
39.320       343
39.340       228
39.360       157
39.380       200
39.400       186
39.420       228
39.440       200
39.460       300
39.480       243
39.500       271
39.520       200
39.540       171
39.560       271
39.580       171
39.600       157
39.620       214
39.640       157
39.660       286
39.680       171
39.700       200
39.720       200
39.740       271
39.760       228
39.780       214
39.800       157
39.820       286
39.840       129
39.860       186
39.880       228
39.900       271
39.920       200
39.940       271
39.960       257
39.980       143
40.000       228
40.020       200
40.040       286
40.060       157
40.080       200
40.100       171
40.120       157
40.140       171
40.160       228
40.180       328
40.200       100
40.220       214
40.240       271
40.260       257
40.280       271
40.300       143
40.320       186
40.340       286
40.360       214
40.380       157
40.400       214
40.420       171
40.440       143
40.460       129
40.480       214
40.500       214
40.520       186
40.540        86
40.560       171
40.580       200
40.600       114
40.620       114
40.640       300
40.660       200
40.680       114
40.700       157
40.720       314
40.740       114
40.760       228
40.780       114
40.800       114
40.820       186
40.840       143
40.860       100
40.880       186
40.900       200
40.920       200
40.940       100
40.960       257
40.980       200
41.000       143
41.020       100
41.040       186
41.060       200
41.080       171
41.100       100
41.120       143
41.140       228
41.160       171
41.180       114
41.200       143
41.220       200
41.240       243
41.260       129
41.280       186
41.300       143
41.320       143
41.340       129
41.360       143
41.380       114
41.400       129
41.420       129
41.440       214
41.460       143
41.480       257
41.500       100
41.520       143
41.540       228
41.560        86
41.580       143
41.600       186
41.620       171
41.640       143
41.660       143
41.680        71
41.700       157
41.720       157
41.740       157
41.760        43
41.780       171
41.800        86
41.820       114
41.840       129
41.860       157
41.880        43
41.900       271
41.920       200
41.940       100
41.960       157
41.980       100
42.000       200
42.020       157
42.040       157
42.060       143
42.080       114
42.100       186
42.120       143
42.140       186
42.160       186
42.180       143
42.200       100
42.220       157
42.240        86
42.260       171
42.280       143
42.300        86
42.320       129
42.340       186
42.360       129
42.380       129
42.400       157
42.420       143
42.440       100
42.460       100
42.480       100
42.500       100
42.520       200
42.540       228
42.560       114
42.580       171
42.600        86
42.620       171
42.640        86
42.660       129
42.680       100
42.700        71
42.720       186
42.740       100
42.760       171
42.780       143
42.800       143
42.820       157
42.840       114
42.860       143
42.880       129
42.900        86
42.920       129
42.940       143
42.960        86
42.980        71
43.000       143
43.020       129
43.040       186
43.060        71
43.080        29
43.100       100
43.120        71
43.140       157
43.160       143
43.180        57
43.200       143
43.220       186
43.240       129
43.260       114
43.280       171
43.300       114
43.320        57
43.340       114
43.360        57
43.380       171
43.400       129
43.420       157
43.440       171
43.460       186
43.480       114
43.500        86
43.520       100
43.540       114
43.560       171
43.580       200
43.600        57
43.620       143
43.640       100
43.660        43
43.680       129
43.700       114
43.720       143
43.740       143
43.760       100
43.780       171
43.800       157
43.820       100
43.840        86
43.860       143
43.880       129
43.900       157
43.920       143
43.940       129
43.960       157
43.980        71
44.000       100
44.020       143
44.040        29
44.060       129
44.080        57
44.100        71
44.120       143
44.140        71
44.160       186
44.180        71
44.200       171
44.220       114
44.240       157
44.260       157
44.280       114
44.300       129
44.320        86
44.340       157
44.360       129
44.380       114
44.400       157
44.420       100
44.440       171
44.460       114
44.480        86
44.500        86
44.520        71
44.540        29
44.560       143
44.580       114
44.600        86
44.620        57
44.640        71
44.660        29
44.680       171
44.700       100
44.720       114
44.740       200
44.760       114
44.780       129
44.800        57
44.820        29
44.840       100
44.860       100
44.880        86
44.900        29
44.920       100
44.940       143
44.960        86
44.980        43
45.000       114
45.020       100
45.040       100
45.060       100
45.080       129
45.100       171
45.120       100
45.140       129
45.160       200
45.180       129
45.200        43
45.220       114
45.240       100
45.260        86
45.280       100
45.300       171
45.320        43
45.340        57
45.360       100
45.380       143
45.400       157
45.420       129
45.440       186
45.460       171
45.480       114
45.500        57
45.520        86
45.540       129
45.560       143
45.580       129
45.600       100
45.620       186
45.640        57
45.660       114
45.680       143
45.700        43
45.720        14
45.740       100
45.760       100
45.780       114
45.800       114
45.820       143
45.840        43
45.860       143
45.880        86
45.900        57
45.920        86
45.940       186
45.960        71
45.980       143
46.000       129
46.020        71
46.040        86
46.060       114
46.080       100
46.100       157
46.120        71
46.140       143
46.160        57
46.180        57
46.200       114
46.220       114
46.240        86
46.260       114
46.280       114
46.300        86
46.320       129
46.340       100
46.360       143
46.380        43
46.400       129
46.420       100
46.440        71
46.460        86
46.480        57
46.500        71
46.520        57
46.540        29
46.560        29
46.580        57
46.600        71
46.620       129
46.640       143
46.660        57
46.680        71
46.700        29
46.720       114
46.740       114
46.760       100
46.780        86
46.800        57
46.820       129
46.840       129
46.860        43
46.880        57
46.900        43
46.920        86
46.940       143
46.960        43
46.980       100
47.000       100
47.020        86
47.040       114
47.060        86
47.080       129
47.100       100
47.120       129
47.140       143
47.160       143
47.180       114
47.200        86
47.220        71
47.240       129
47.260       114
47.280       114
47.300        71
47.320       186
47.340       100
47.360        57
47.380       228
47.400       100
47.420        86
47.440        29
47.460       114
47.480        43
47.500       100
47.520        57
47.540        43
47.560        71
47.580        43
47.600        29
47.620        43
47.640        86
47.660        86
47.680        29
47.700        71
47.720        57
47.740        29
47.760        29
47.780        43
47.800        57
47.820       100
47.840       100
47.860        71
47.880       100
47.900        14
47.920        57
47.940        71
47.960        86
47.980        43
48.000        14
48.020        86
48.040       114
48.060        71
48.080        86
48.100        86
48.120        71
48.140        57
48.160        86
48.180        71
48.200        86
48.220        43
48.240        57
48.260        71
48.280        71
48.300       100
48.320        57
48.340        43
48.360        86
48.380        57
48.400        57
48.420        86
48.440        57
48.460       100
48.480        71
48.500       143
48.520       114
48.540       100
48.560       143
48.580        29
48.600        43
48.620       129
48.640        86
48.660       100
48.680        71
48.700       114
48.720       100
48.740        71
48.760        71
48.780       114
48.800       129
48.820        71
48.840       143
48.860        71
48.880        71
48.900       114
48.920       186
48.940        29
48.960        71
48.980       114
49.000       129
49.020        43
49.040        57
49.060       129
49.080       114
49.100       100
49.120       157
49.140       129
49.160        43
49.180        71
49.200       100
49.220        71
49.240        57
49.260        71
49.280        57
49.300        57
49.320        57
49.340        71
49.360        71
49.380       100
49.400        86
49.420        43
49.440       100
49.460       171
49.480       114
49.500        71
49.520       114
49.540        86
49.560        43
49.580        86
49.600       100
49.620        57
49.640        43
49.660       100
49.680        86
49.700       143
49.720        86
49.740        43
49.760        57
49.780       100
49.800        29
49.820        43
49.840        71
49.860        71
49.880       129
49.900        86
49.920        71
49.940        43
49.960        71
49.980        71
50.000        43
50.020        29
50.040        57
50.060        57
50.080       129
50.100       143
50.120        14
50.140        57
50.160        71
50.180        86
50.200       114
50.220        57
50.240       100
50.260        86
50.280        57
50.300       100
50.320        71
50.340        43
50.360       114
50.380        43
50.400       100
50.420        71
50.440        57
50.460        71
50.480        57
50.500       157
50.520       114
50.540        57
50.560        29
50.580        29
50.600        71
50.620        29
50.640        29
50.660       114
50.680        29
50.700        57
50.720       171
50.740       143
50.760        57
50.780        43
50.800        71
50.820        57
50.840       143
50.860        57
50.880        57
50.900        86
50.920        71
50.940        43
50.960        43
50.980       114
51.000       100
51.020        57
51.040        57
51.060        14
51.080       100
51.100       143
51.120        86
51.140        71
51.160       100
51.180        71
51.200       129
51.220        57
51.240        71
51.260        71
51.280        71
51.300       114
51.320        86
51.340        86
51.360        57
51.380        14
51.400        43
51.420        57
51.440        86
51.460        43
51.480        71
51.500        71
51.520        57
51.540        86
51.560        71
51.580        29
51.600        57
51.620        43
51.640        86
51.660        14
51.680       129
51.700        57
51.720       114
51.740        57
51.760        43
51.780       114
51.800        71
51.820        29
51.840       129
51.860        71
51.880        71
51.900        86
51.920        14
51.940       100
51.960        43
51.980        43
52.000        57
52.020       100
52.040        43
52.060        86
52.080        57
52.100       100
52.120        14
52.140        43
52.160        43
52.180       100
52.200        71
52.220        71
52.240        71
52.260        71
52.280        71
52.300        29
52.320        71
52.340       100
52.360       100
52.380        86
52.400        29
52.420        29
52.440        29
52.460        29
52.480        86
52.500       114
52.520       100
52.540       100
52.560        29
52.580        71
52.600        86
52.620        71
52.640        43
52.660       100
52.680        29
52.700        71
52.720        57
52.740        71
52.760        43
52.780       100
52.800        57
52.820       100
52.840        43
52.860        71
52.880       100
52.900        43
52.920       100
52.940        86
52.960       100
52.980        43
53.000       114
53.020       143
53.040        43
53.060        57
53.080       100
53.100        86
53.120       114
53.140        86
53.160        86
53.180        29
53.200       100
53.220       114
53.240        29
53.260        71
53.280        71
53.300       114
53.320       129
53.340        43
53.360        86
53.380       100
53.400        57
53.420        71
53.440       100
53.460       114
53.480        29
53.500       100
53.520        43
53.540        71
53.560        71
53.580        71
53.600        71
53.620        43
53.640        57
53.660        29
53.680        43
53.700       100
53.720        57
53.740       114
53.760        29
53.780       157
53.800       114
53.820        14
53.840        14
53.860       143
53.880       100
53.900        57
53.920        43
53.940        86
53.960        71
53.980       186
54.000        29
54.020        71
54.040        29
54.060        86
54.080        57
54.100        14
54.120        71
54.140        57
54.160        71
54.180        29
54.200        57
54.220        71
54.240        29
54.260        29
54.280        86
54.300        71
54.320        86
54.340        57
54.360        57
54.380        43
54.400       129
54.420       114
54.440       129
54.460        86
54.480        43
54.500        43
54.520        29
54.540        57
54.560        57
54.580       114
54.600        57
54.620       114
54.640        14
54.660        71
54.680        86
54.700        57
54.720       100
54.740        43
54.760       100
54.780        29
54.800        57
54.820        43
54.840        14
54.860        57
54.880        71
54.900        57
54.920        57
54.940        57
54.960        43
54.980        86
55.000        43
55.020        43
55.040       100
55.060        29
55.080        43
55.100        86
55.120        71
55.140        43
55.160        86
55.180        86
55.200        57
55.220        71
55.240        71
55.260        86
55.280       143
55.300        29
55.320       100
55.340        14
55.360        57
55.380        43
55.400        86
55.420        43
55.440        57
55.460        86
55.480        29
55.500        71
55.520        71
55.540       114
55.560        71
55.580       100
55.600        86
55.620        71
55.640        71
55.660        57
55.680        57
55.700        86
55.720        14
55.740        71
55.760        14
55.780        71
55.800        43
55.820       100
55.840        57
55.860        71
55.880        43
55.900       100
55.920        57
55.940        71
55.960        71
55.980        43
56.000        14
56.020        86
56.040        43
56.060        86
56.080        71
56.100        14
56.120        86
56.140       114
56.160        43
56.180        71
56.200       100
56.220        29
56.240        29
56.260        57
56.280       100
56.300        86
56.320        29
56.340       129
56.360        14
56.380       143
56.400        43
56.420        43
56.440       114
56.460        57
56.480        29
56.500        57
56.520        57
56.540        43
56.560        57
56.580        57
56.600        43
56.620        14
56.640        57
56.660       114
56.680       114
56.700       129
56.720        86
56.740        43
56.760        71
56.780        71
56.800        29
56.820        43
56.840        43
56.860        57
56.880       100
56.900        86
56.920        57
56.940        43
56.960        43
56.980        43
57.000        29
57.020        57
57.040       114
57.060        71
57.080        29
57.100        86
57.120        57
57.140        43
57.160        86
57.180        86
57.200        71
57.220       129
57.240        71
57.260        43
57.280        86
57.300        57
57.320        57
57.340        57
57.360        29
57.380       114
57.400        57
57.420       143
57.440        43
57.460         0
57.480        14
57.500        71
57.520        43
57.540       114
57.560        86
57.580       114
57.600        43
57.620       100
57.640        86
57.660        43
57.680        43
57.700        71
57.720        86
57.740        57
57.760       100
57.780        57
57.800        57
57.820       100
57.840        29
57.860        86
57.880        86
57.900        57
57.920        86
57.940        86
57.960         0
57.980        14
58.000        71
58.020        43
58.040       100
58.060        71
58.080        71
58.100        86
58.120        57
58.140        86
58.160        14
58.180        57
58.200        86
58.220        57
58.240        14
58.260        29
58.280        57
58.300        86
58.320        29
58.340        71
58.360        57
58.380        86
58.400        14
58.420        86
58.440        57
58.460        29
58.480        71
58.500       100
58.520       129
58.540        57
58.560        86
58.580       157
58.600        71
58.620        43
58.640        57
58.660        86
58.680       129
58.700       171
58.720       114
58.740        86
58.760       143
58.780       114
58.800       228
58.820       243
58.840       871
58.860      1457
58.880      1200
58.900      1085
58.920       571
58.940       271
58.960       171
58.980       171
59.000       486
59.020       614
59.040       700
59.060       585
59.080       400
59.100       257
59.120       171
59.140       100
59.160       129
59.180        57
59.200        86
59.220        29
59.240       100
59.260        43
59.280        86
59.300        86
59.320        29
59.340       100
59.360        57
59.380        86
59.400        71
59.420        86
59.440        71
59.460       114
59.480        14
59.500        57
59.520        71
59.540        57
59.560        57
59.580        29
59.600        57
59.620        71
59.640       100
59.660       157
59.680        43
59.700       100
59.720        57
59.740        57
59.760       186
59.780       114
59.800        71
59.820       157
59.840       114
59.860       228
59.880       243
59.900       257
59.920       286
59.940       371
59.960       386
59.980       243
60.000       357
60.020       585
60.040       371
60.060       271
60.080       400
60.100       228
60.120       171
60.140       357
60.160       286
60.180       171
60.200       200
60.220       186
60.240        86
60.260       114
60.280       157
60.300       186
60.320       100
60.340        71
60.360       129
60.380       129
60.400       157
60.420       143
60.440        57
60.460       129
60.480        71
60.500        14
60.520        71
60.540        57
60.560        57
60.580        43
60.600        29
60.620        71
60.640       114
60.660        71
60.680       129
60.700        29
60.720        43
60.740        71
60.760       100
60.780        43
60.800        71
60.820        57
60.840        43
60.860        71
60.880        43
60.900        57
60.920        71
60.940       114
60.960        29
60.980       100
61.000        86
61.020        57
61.040        14
61.060       100
61.080        43
61.100        57
61.120        43
61.140        29
61.160       100
61.180        43
61.200        71
61.220        14
61.240       114
61.260        43
61.280        71
61.300       100
61.320        43
61.340       100
61.360        14
61.380        14
61.400        43
61.420        43
61.440        71
61.460        71
61.480        29
61.500        43
61.520        14
61.540        29
61.560        71
61.580        57
61.600        14
61.620        57
61.640        57
61.660        57
61.680        57
61.700        43
61.720        29
61.740        43
61.760        57
61.780        86
61.800        29
61.820        43
61.840        29
61.860        71
61.880        43
61.900        43
61.920        71
61.940        29
61.960        14
61.980        57
62.000       100
62.020        57
62.040        29
62.060        71
62.080        71
62.100        43
62.120        86
62.140        29
62.160        71
62.180        57
62.200        71
62.220        71
62.240        57
62.260        29
62.280       100
62.300        43
62.320        14
62.340        71
62.360       100
62.380        29
62.400        14
62.420        43
62.440        57
62.460        86
62.480        57
62.500       100
62.520        57
62.540        57
62.560        43
62.580        57
62.600        43
62.620        29
62.640        86
62.660        29
62.680        14
62.700        43
62.720       114
62.740        29
62.760        71
62.780       129
62.800        43
62.820        43
62.840        71
62.860        71
62.880        57
62.900        29
62.920        14
62.940        43
62.960        43
62.980        43
63.000        57
63.020        71
63.040        29
63.060        57
63.080        43
63.100        57
63.120        86
63.140        71
63.160        57
63.180        86
63.200        14
63.220       114
63.240        29
63.260        57
63.280        43
63.300        43
63.320        57
63.340        29
63.360        71
63.380        43
63.400        14
63.420        57
63.440        29
63.460        71
63.480        86
63.500        14
63.520        29
63.540        43
63.560        71
63.580        57
63.600        57
63.620        43
63.640        43
63.660        43
63.680        57
63.700        43
63.720        14
63.740        57
63.760        14
63.780        43
63.800        43
63.820        71
63.840        29
63.860        43
63.880        43
63.900        57
63.920        71
63.940        86
63.960        43
63.980        43
64.000        71
64.020         0
64.040        57
64.060        57
64.080       114
64.100        29
64.120        71
64.140        43
64.160        57
64.180        43
64.200        71
64.220        57
64.240       100
64.260        57
64.280        43
64.300        71
64.320        43
64.340        29
64.360       100
64.380        43
64.400        14
64.420        57
64.440         0
64.460        43
64.480        71
64.500        86
64.520        57
64.540        29
64.560        43
64.580        57
64.600        71
64.620        43
64.640        43
64.660        86
64.680        14
64.700        14
64.720        43
64.740        14
64.760         0
64.780        57
64.800        14
64.820         0
64.840        57
64.860        43
64.880        71
64.900        43
64.920        43
64.940        14
64.960        71
64.980        71
65.000        57
65.020        57
65.040        43
65.060        57
65.080        29
65.100        29
65.120        71
65.140        29
65.160        29
65.180        57
65.200        86
65.220        57
65.240        71
65.260        14
65.280        57
65.300        71
65.320        14
65.340        14
65.360        57
65.380        71
65.400        29
65.420         0
65.440        43
65.460         0
65.480        57
65.500       114
65.520        29
65.540        43
65.560        29
65.580        43
65.600        57
65.620        71
65.640        29
65.660        57
65.680        43
65.700        43
65.720        57
65.740        43
65.760        29
65.780        57
65.800        43
65.820        43
65.840        86
65.860        43
65.880        14
65.900        43
65.920        71
65.940        71
65.960        57
65.980        29
66.000        57
66.020        71
66.040        71
66.060        14
66.080        29
66.100        43
66.120        14
66.140        14
66.160        43
66.180        71
66.200         0
66.220        29
66.240         0
66.260        14
66.280        43
66.300        29
66.320        43
66.340        43
66.360        29
66.380        86
66.400        57
66.420       100
66.440        29
66.460       100
66.480        29
66.500        71
66.520        29
66.540        43
66.560        86
66.580        71
66.600         0
66.620       114
66.640        57
66.660        43
66.680        71
66.700        14
66.720        86
66.740        57
66.760        43
66.780        43
66.800        14
66.820        43
66.840        71
66.860        57
66.880        57
66.900        86
66.920        71
66.940        71
66.960        14
66.980        43
67.000        14
67.020        43
67.040        14
67.060        43
67.080        57
67.100        57
67.120        29
67.140        43
67.160        43
67.180        57
67.200       100
67.220        29
67.240        14
67.260       114
67.280        29
67.300        29
67.320        71
67.340        43
67.360        57
67.380        43
67.400        14
67.420        43
67.440        43
67.460        43
67.480        57
67.500        29
67.520        29
67.540         0
67.560        14
67.580        57
67.600        29
67.620        71
67.640        14
67.660        86
67.680        71
67.700        43
67.720        57
67.740        14
67.760        29
67.780        43
67.800        86
67.820        29
67.840       100
67.860        86
67.880         0
67.900        14
67.920        29
67.940        57
67.960        29
67.980         0
68.000        57
68.020        43
68.040        43
68.060        14
68.080        29
68.100        71
68.120        14
68.140        43
68.160         0
68.180        57
68.200        71
68.220        57
68.240        29
68.260        29
68.280        29
68.300        43
68.320        29
68.340        43
68.360        71
68.380        29
68.400        29
68.420        14
68.440        86
68.460        43
68.480        29
68.500        43
68.520        57
68.540        43
68.560        57
68.580        29
68.600        43
68.620        86
68.640        57
68.660        29
68.680        57
68.700        29
68.720        43
68.740        14
68.760        71
68.780        57
68.800        57
68.820        43
68.840        43
68.860        71
68.880        29
68.900        43
68.920        57
68.940        71
68.960        57
68.980        57
69.000        86
69.020        14
69.040        29
69.060        14
69.080        14
69.100        29
69.120        43
69.140        14
69.160        57
69.180        43
69.200        43
69.220         0
69.240        14
69.260        14
69.280        43
69.300        29
69.320        29
69.340        14
69.360        29
69.380         0
69.400         0
69.420         0
69.440        86
69.460        43
69.480        57
69.500        14
69.520        57
69.540        86
69.560        57
69.580       114
69.600        29
69.620        43
69.640         0
69.660        14
69.680        29
69.700        29
69.720        57
69.740        29
69.760        29
69.780       100
69.800        29
69.820        43
69.840        43
69.860         0
69.880        57
69.900         0
69.920        14
69.940        29
69.960        71
69.980        43
70.000        57
70.020        86
70.040        43
70.060        14
70.080        57
70.100        29
70.120        86
70.140        71
70.160        29
70.180        29
70.200        29
70.220        29
70.240        29
70.260        43
70.280        57
70.300        29
70.320        57
70.340        57
70.360        43
70.380        14
70.400        43
70.420        57
70.440        71
70.460        29
70.480        29
70.500        86
70.520        29
70.540        14
70.560        29
70.580        14
70.600        43
70.620        86
70.640        29
70.660        71
70.680        43
70.700        43
70.720        71
70.740        29
70.760       100
70.780        29
70.800        57
70.820        71
70.840        43
70.860        86
70.880        71
70.900        86
70.920        43
70.940        43
70.960        57
70.980        29
71.000       100
71.020        57
71.040        43
71.060        57
71.080        57
71.100        29
71.120        71
71.140        29
71.160       100
71.180        43
71.200        29
71.220        57
71.240        57
71.260        29
71.280        43
71.300        57
71.320        57
71.340        14
71.360        43
71.380         0
71.400        14
71.420        29
71.440        14
71.460        29
71.480        43
71.500        29
71.520        29
71.540        57
71.560        14
71.580         0
71.600        57
71.620        43
71.640        43
71.660        29
71.680        29
71.700        57
71.720        29
71.740        14
71.760        29
71.780        86
71.800        14
71.820       114
71.840        57
71.860        57
71.880         0
71.900        57
71.920        43
71.940        86
71.960        57
71.980        14
72.000        14
72.020        14
72.040        29
72.060        29
72.080        29
72.100        57
72.120         0
72.140        43
72.160        43
72.180         0
72.200        29
72.220        29
72.240        14
72.260        14
72.280        29
72.300       143
72.320        57
72.340        71
72.360        29
72.380        43
72.400        86
72.420         0
72.440        43
72.460         0
72.480        57
72.500        29
72.520        14
72.540        57
72.560        14
72.580        29
72.600        29
72.620        29
72.640        57
72.660        43
72.680        29
72.700        29
72.720        43
72.740        43
72.760        43
72.780        14
72.800        71
72.820        29
72.840        14
72.860        43
72.880        43
72.900        29
72.920        14
72.940        29
72.960         0
72.980        14
73.000        71
73.020        57
73.040        29
73.060       100
73.080        43
73.100         0
73.120         0
73.140        43
73.160        14
73.180        43
73.200        43
73.220        29
73.240        29
73.260        43
73.280        14
73.300        14
73.320        29
73.340        29
73.360        43
73.380        14
73.400        57
73.420         0
73.440        43
73.460        14
73.480        71
73.500        43
73.520        57
73.540         0
73.560        43
73.580        71
73.600        57
73.620        57
73.640        29
73.660        43
73.680        43
73.700        71
73.720        43
73.740        14
73.760        57
73.780        29
73.800        86
73.820        57
73.840        14
73.860        57
73.880        43
73.900        43
73.920        43
73.940        14
73.960        14
73.980        57
74.000        43
74.020        29
74.040        29
74.060        14
74.080        14
74.100        29
74.120        71
74.140        43
74.160        29
74.180        86
74.200        71
74.220        14
74.240        14
74.260        57
74.280        14
74.300        14
74.320        14
74.340        71
74.360        57
74.380        29
74.400        29
74.420        71
74.440        57
74.460        29
74.480        71
74.500        43
74.520        29
74.540        71
74.560        43
74.580        57
74.600        43
74.620        29
74.640        14
74.660        43
74.680        29
74.700         0
74.720        14
74.740        71
74.760        29
74.780        71
74.800        14
74.820        71
74.840        57
74.860        43
74.880        57
74.900        57
74.920        57
74.940        29
74.960        86
74.980        71
75.000       100
75.020        29
75.040       114
75.060        71
75.080       100
75.100       100
75.120        57
75.140        71
75.160       100
75.180        86
75.200       200
75.220       114
75.240        86
75.260       171
75.280       171
75.300       171
75.320       200
75.340       271
75.360       214
75.380       428
75.400       528
75.420       543
75.440       628
75.460       685
75.480       643
75.500       614
75.520       700
75.540       685
75.560       785
75.580       657
75.600       714
75.620       771
75.640       471
75.660       457
75.680       486
75.700       543
75.720       486
75.740       557
75.760       514
75.780       443
75.800       300
75.820       328
75.840       214
75.860       257
75.880       114
75.900       129
75.920       129
75.940       100
75.960       200
75.980        57
76.000       171
76.020       100
76.040        71
76.060       100
76.080        57
76.100        43
76.120        71
76.140        71
76.160        71
76.180        14
76.200        57
76.220        71
76.240        43
76.260        57
76.280        71
76.300        29
76.320        29
76.340        57
76.360        14
76.380        86
76.400        57
76.420        29
76.440        57
76.460         0
76.480        43
76.500        71
76.520        57
76.540        14
76.560        57
76.580        43
76.600        57
76.620        29
76.640        29
76.660        29
76.680        43
76.700        86
76.720        14
76.740        14
76.760        71
76.780        43
76.800        43
76.820        43
76.840         0
76.860        43
76.880        14
76.900        43
76.920        43
76.940        29
76.960        43
76.980        29
77.000        14
77.020        14
77.040        14
77.060        29
77.080         0
77.100        29
77.120        43
77.140        57
77.160        57
77.180        29
77.200         0
77.220        43
77.240        14
77.260        14
77.280        43
77.300         0
77.320        29
77.340        57
77.360        57
77.380        71
77.400         0
77.420         0
77.440        29
77.460        43
77.480         0
77.500        29
77.520        71
77.540        29
77.560        14
77.580         0
77.600        71
77.620        43
77.640        14
77.660        71
77.680        29
77.700        57
77.720        29
77.740        43
77.760        43
77.780        29
77.800        29
77.820        29
77.840        14
77.860        57
77.880        43
77.900        14
77.920        43
77.940        43
77.960        14
77.980        57
78.000        29
78.020        14
78.040        29
78.060        29
78.080        71
78.100        57
78.120        43
78.140        29
78.160        14
78.180         0
78.200        14
78.220         0
78.240        14
78.260        43
78.280        14
78.300        29
78.320        14
78.340        29
78.360         0
78.380        57
78.400         0
78.420        14
78.440        29
78.460        29
78.480        43
78.500        29
78.520        29
78.540        57
78.560        43
78.580        14
78.600        14
78.620        29
78.640         0
78.660        14
78.680        29
78.700        14
78.720        57
78.740        29
78.760        29
78.780        14
78.800        57
78.820        29
78.840        29
78.860        14
78.880        57
78.900        71
78.920        14
78.940        29
78.960         0
78.980        14
79.000        29
79.020         0
79.040         0
79.060        29
79.080        57
79.100        29
79.120         0
79.140        43
79.160        43
79.180        57
79.200        29
79.220        14
79.240        29
79.260        14
79.280         0
79.300        14
79.320        57
79.340        43
79.360        57
79.380        57
79.400        71
79.420         0
79.440        14
79.460        14
79.480        29
79.500        29
79.520        14
79.540        14
79.560        43
79.580        29
79.600        29
79.620        57
79.640        14
79.660         0
79.680        29
79.700        43
79.720        14
79.740        86
79.760         0
79.780        57
79.800        29
79.820        14
79.840        14
79.860        43
79.880        57
79.900         0
79.920        57
79.940        43
79.960        43
79.980        29
80.000        14
80.020        43
80.040        29
80.060        29
80.080        43
80.100        43
80.120        29
80.140        43
80.160        43
80.180        29
80.200        43
80.220        29
80.240        29
80.260        86
80.280        29
80.300        29
80.320        57
80.340        43
80.360        43
80.380        14
80.400        14
80.420        43
80.440        29
80.460        14
80.480         0
80.500        86
80.520        29
80.540        14
80.560        14
80.580        57
80.600        29
80.620        43
80.640        29
80.660        29
80.680         0
80.700        14
80.720        29
80.740        57
80.760         0
80.780         0
80.800        29
80.820        71
80.840         0
80.860        14
80.880        14
80.900        14
80.920        29
80.940        57
80.960        43
80.980        43
81.000        43
81.020        14
81.040        57
81.060         0
81.080         0
81.100        57
81.120        43
81.140        29
81.160         0
81.180        57
81.200        29
81.220        43
81.240        29
81.260        29
81.280        14
81.300        14
81.320        43
81.340        29
81.360        43
81.380        29
81.400        14
81.420        14
81.440        14
81.460        29
81.480        29
81.500        29
81.520        43
81.540        14
81.560        43
81.580        29
81.600        29
81.620        29
81.640        29
81.660        71
81.680        29
81.700        71
81.720        43
81.740        29
81.760        29
81.780        29
81.800         0
81.820        14
81.840        29
81.860        71
81.880        43
81.900        29
81.920        29
81.940        43
81.960         0
81.980        14
82.000        14
82.020         0
82.040         0
82.060        14
82.080        29
82.100        43
82.120        29
82.140        14
82.160        43
82.180        43
82.200        14
82.220         0
82.240        43
82.260        43
82.280        29
82.300        29
82.320         0
82.340        43
82.360         0
82.380        86
82.400        43
82.420        29
82.440        43
82.460        43
82.480         0
82.500        29
82.520        14
82.540         0
82.560         0
82.580         0
82.600        29
82.620        29
82.640        29
82.660        71
82.680        57
82.700        43
82.720        43
82.740        43
82.760        71
82.780        29
82.800        14
82.820        14
82.840        14
82.860        29
82.880        43
82.900        57
82.920        29
82.940        29
82.960        14
82.980        43
83.000        43
83.020        29
83.040        29
83.060        14
83.080        29
83.100        29
83.120        43
83.140        43
83.160         0
83.180        43
83.200        43
83.220        43
83.240        29
83.260        43
83.280        14
83.300        57
83.320        57
83.340        43
83.360        57
83.380        71
83.400       100
83.420        57
83.440       129
83.460       171
83.480       228
83.500       357
83.520       328
83.540       671
83.560       571
83.580       528
83.600       271
83.620       157
83.640       114
83.660       214
83.680       143
83.700       129
83.720        29
83.740        71
83.760        71
83.780        43
83.800        71
83.820        43
83.840        57
83.860        43
83.880         0
83.900        86
83.920        43
83.940        29
83.960        57
83.980       114
84.000        29
84.020        29
84.040        43
84.060        14
84.080        71
84.100        71
84.120        57
84.140        43
84.160        43
84.180        29
84.200        29
84.220        14
84.240        29
84.260        43
84.280        71
84.300        57
84.320        43
84.340        29
84.360        71
84.380        14
84.400        57
84.420        29
84.440        14
84.460        71
84.480        14
84.500        57
84.520        14
84.540        14
84.560        14
84.580        43
84.600        14
84.620         0
84.640         0
84.660        29
84.680        29
84.700        29
84.720        14
84.740        29
84.760        71
84.780        14
84.800        14
84.820        43
84.840        14
84.860        43
84.880        14
84.900        29
84.920        43
84.940        43
84.960        57
84.980        29
85.000        43
85.020        14
85.040        14
85.060        43
85.080        57
85.100        14
85.120        14
85.140       100
85.160        14
85.180         0
85.200        29
85.220        57
85.240        43
85.260        14
85.280        29
85.300        14
85.320        57
85.340        14
85.360         0
85.380        29
85.400        14
85.420        43
85.440        29
85.460        43
85.480         0
85.500        29
85.520        43
85.540        43
85.560        29
85.580        14
85.600        29
85.620        14
85.640         0
85.660         0
85.680        14
85.700        14
85.720         0
85.740        57
85.760        29
85.780         0
85.800        29
85.820        14
85.840        29
85.860        57
85.880        14
85.900        43
85.920         0
85.940        14
85.960        14
85.980        29
86.000        14
86.020        71
86.040        57
86.060        14
86.080        14
86.100        29
86.120        14
86.140        43
86.160         0
86.180        14
86.200        29
86.220        57
86.240        29
86.260         0
86.280        57
86.300        14
86.320        43
86.340        14
86.360        43
86.380        14
86.400         0
86.420        57
86.440        29
86.460        29
86.480        29
86.500        71
86.520        29
86.540        14
86.560        43
86.580         0
86.600        57
86.620        29
86.640        43
86.660        29
86.680        43
86.700        14
86.720        14
86.740        14
86.760        14
86.780         0
86.800         0
86.820        29
86.840         0
86.860        14
86.880        29
86.900        14
86.920        57
86.940        29
86.960        43
86.980         0
87.000        14
87.020         0
87.040         0
87.060        43
87.080        29
87.100        14
87.120        29
87.140        29
87.160        29
87.180        14
87.200        43
87.220        29
87.240        57
87.260        14
87.280        14
87.300        14
87.320        29
87.340         0
87.360         0
87.380        43
87.400        14
87.420        14
87.440        14
87.460         0
87.480        29
87.500        14
87.520        14
87.540        43
87.560        57
87.580        14
87.600        43
87.620        14
87.640        14
87.660        29
87.680        43
87.700         0
87.720        14
87.740        29
87.760        29
87.780        29
87.800        14
87.820        43
87.840        57
87.860        29
87.880        29
87.900        14
87.920        14
87.940        29
87.960        14
87.980        14
88.000        29
88.020        14
88.040        43
88.060         0
88.080        43
88.100        29
88.120        29
88.140        14
88.160        43
88.180        14
88.200        14
88.220         0
88.240        29
88.260        71
88.280        57
88.300        43
88.320        14
88.340         0
88.360        14
88.380        57
88.400         0
88.420        14
88.440         0
88.460         0
88.480        71
88.500        43
88.520         0
88.540        43
88.560        14
88.580        14
88.600        43
88.620        43
88.640        14
88.660         0
88.680        29
88.700        14
88.720        29
88.740        14
88.760        43
88.780        71
88.800        29
88.820        43
88.840         0
88.860        57
88.880         0
88.900        29
88.920        14
88.940        29
88.960        71
88.980        14
89.000         0
89.020        14
89.040        29
89.060        29
89.080        43
89.100         0
89.120         0
89.140         0
89.160        57
89.180        14
89.200         0
89.220         0
89.240         0
89.260         0
89.280        29
89.300         0
89.320        14
89.340         0
89.360        29
89.380        29
89.400         0
89.420        43
89.440        43
89.460         0
89.480         0
89.500         0
89.520        29
89.540        14
89.560         0
89.580        14
89.600        29
89.620        14
89.640         0
89.660        29
89.680        43
89.700         0
89.720        43
89.740         0
89.760        14
89.780        14
89.800         0
89.820        14
89.840        29
89.860        43
89.880        57
89.900        29
89.920         0
89.940         0
89.960         0
89.980         0
90.000         0
