20.000       560
20.020       560
20.040       546
20.060       433
20.080       623
20.100       533
20.120       550
20.140       503
20.160       520
20.180       496
20.200       603
20.220       536
20.240       480
20.260       510
20.280       530
20.300       463
20.320       610
20.340       563
20.360       600
20.380       586
20.400       520
20.420       513
20.440       510
20.460       476
20.480       470
20.500       430
20.520       483
20.540       407
20.560       417
20.580       413
20.600       463
20.620       337
20.640       373
20.660       446
20.680       390
20.700       430
20.720       343
20.740       370
20.760       313
20.780       370
20.800       317
20.820       420
20.840       333
20.860       350
20.880       337
20.900       400
20.920       383
20.940       310
20.960       307
20.980       287
21.000       307
21.020       300
21.040       347
21.060       300
21.080       313
21.100       337
21.120       320
21.140       310
21.160       330
21.180       333
21.200       247
21.220       317
21.240       343
21.260       307
21.280       257
21.300       267
21.320       333
21.340       220
21.360       297
21.380       273
21.400       310
21.420       223
21.440       323
21.460       277
21.480       307
21.500       277
21.520       290
21.540       283
21.560       317
21.580       267
21.600       307
21.620       253
21.640       240
21.660       290
21.680       237
21.700       297
21.720       300
21.740       230
21.760       307
21.780       233
21.800       227
21.820       233
21.840       243
21.860       180
21.880       213
21.900       257
21.920       243
21.940       257
21.960       220
21.980       253
22.000       297
22.020       247
22.040       263
22.060       223
22.080       247
22.100       233
22.120       243
22.140       237
22.160       243
22.180       240
22.200       223
22.220       217
22.240       243
22.260       213
22.280       247
22.300       193
22.320       220
22.340       203
22.360       213
22.380       217
22.400       203
22.420       240
22.440       203
22.460       233
22.480       237
22.500       240
22.520       163
22.540       177
22.560       217
22.580       153
22.600       190
22.620       187
22.640       240
22.660       190
22.680       153
22.700       200
22.720       207
22.740       190
22.760       163
22.780       193
22.800       227
22.820       200
22.840       160
22.860       170
22.880       193
22.900       217
22.920       177
22.940       167
22.960       173
22.980       147
23.000       193
23.020       157
23.040       123
23.060       147
23.080       213
23.100       187
23.120       177
23.140       167
23.160       153
23.180       163
23.200       210
23.220       200
23.240       130
23.260       133
23.280       133
23.300       193
23.320       177
23.340       150
23.360       100
23.380       133
23.400       193
23.420       110
23.440       197
23.460       167
23.480       157
23.500       170
23.520       123
23.540       160
23.560       130
23.580       153
23.600       180
23.620       180
23.640       130
23.660       203
23.680       177
23.700       183
23.720       127
23.740       137
23.760       147
23.780       170
23.800       113
23.820       173
23.840       137
23.860       157
23.880       113
23.900       150
23.920       123
23.940       157
23.960        90
23.980       143
24.000       150
24.020       120
24.040       103
24.060       137
24.080       123
24.100       140
24.120       110
24.140       180
24.160       137
24.180       120
24.200       150
24.220       143
24.240       123
24.260       117
24.280       107
24.300       120
24.320       110
24.340       103
24.360       123
24.380       180
24.400       117
24.420       137
24.440       130
24.460       123
24.480       110
24.500       133
24.520        83
24.540        90
24.560       120
24.580       117
24.600       177
24.620       173
24.640       143
24.660       150
24.680        83
24.700       143
24.720       150
24.740       110
24.760       113
24.780       150
24.800       133
24.820        80
24.840       123
24.860       157
24.880       107
24.900       127
24.920       173
24.940       123
24.960       117
24.980       143
25.000       123
25.020       147
25.040       120
25.060       117
25.080       130
25.100       133
25.120       163
25.140       183
25.160       173
25.180       187
25.200       120
25.220       163
25.240       183
25.260       173
25.280       127
25.300       173
25.320       170
25.340       197
25.360       203
25.380       197
25.400       250
25.420       220
25.440       283
25.460       400
25.480       433
25.500       530
25.520       593
25.540       566
25.560       626
25.580       560
25.600       750
25.620       943
25.640      1986
25.660      4785
25.680      7071
25.700      7967
25.720      6541
25.740      3552
25.760      1609
25.780       866
25.800       690
25.820       600
25.840       553
25.860       450
25.880       417
25.900       380
25.920       387
25.940       390
25.960       377
25.980       307
26.000       290
26.020       333
26.040       267
26.060       333
26.080       313
26.100       293
26.120       260
26.140       270
26.160       273
26.180       277
26.200       303
26.220       327
26.240       313
26.260       277
26.280       250
26.300       290
26.320       257
26.340       267
26.360       273
26.380       270
26.400       210
26.420       257
26.440       243
26.460       220
26.480       203
26.500       263
26.520       230
26.540       180
26.560       193
26.580       223
26.600       250
26.620       210
26.640       210
26.660       160
26.680       250
26.700       207
26.720       207
26.740       203
26.760       177
26.780       200
26.800       187
26.820       267
26.840       203
26.860       197
26.880       180
26.900       217
26.920       187
26.940       207
26.960       160
26.980       160
27.000       177
27.020       213
27.040       213
27.060       277
27.080       243
27.100       227
27.120       197
27.140       167
27.160       137
27.180       200
27.200       163
27.220       150
27.240       193
27.260       213
27.280       247
27.300       253
27.320       243
27.340       280
27.360       250
27.380       293
27.400       353
27.420       393
27.440       546
27.460       866
27.480      1416
27.500      2292
27.520      2922
27.540      3352
27.560      3495
27.580      3449
27.600      3499
27.620      3399
27.640      3435
27.660      3489
27.680      3435
27.700      3575
27.720      3392
27.740      3399
27.760      3659
27.780      3662
27.800      4052
27.820      3845
27.840      3669
27.860      3938
27.880      3975
27.900      3778
27.920      3962
27.940      4012
27.960      4068
27.980      4075
28.000      4185
28.020      4068
28.040      4402
28.060      4741
28.080      4691
28.100      4811
28.120      5218
28.140      5235
28.160      5621
28.180      6188
28.200      7140
28.220      8597
28.240     11462
28.260     17526
28.280     25726
28.300     34653
28.320     44652
28.340     56687
28.360     66117
28.380     74547
28.400     86622
28.420    121425
28.440    241470
28.460    298371
28.480    284779
28.500    281464
28.520    295825
28.540    306804
28.560    304821
28.580    294949
28.600    219995
28.620    107727
28.640     58700
28.660     39208
28.680     28689
28.700     20478
28.720     15824
28.740     11735
28.760      9759
28.780      8477
28.800      7554
28.820      6947
28.840      6631
28.860      6201
28.880      5581
28.900      5524
28.920      5048
28.940      4898
28.960      4608
28.980      4455
29.000      4382
29.020      4285
29.040      4015
29.060      3625
29.080      3858
29.100      3599
29.120      3762
29.140      3595
29.160      3429
29.180      3472
29.200      3099
29.220      3219
29.240      3179
29.260      3009
29.280      3285
29.300      3159
29.320      2965
29.340      2916
29.360      2852
29.380      2972
29.400      2686
29.420      2746
29.440      2829
29.460      2639
29.480      2579
29.500      2546
29.520      2509
29.540      2669
29.560      2716
29.580      2556
29.600      2709
29.620      2369
29.640      2662
29.660      2639
29.680      2556
29.700      2392
29.720      2332
29.740      2219
29.760      2502
29.780      2366
29.800      2296
29.820      2242
29.840      2336
29.860      2359
29.880      2299
29.900      2262
29.920      2212
29.940      2259
29.960      2342
29.980      2292
30.000      2282
30.020      2212
30.040      2199
30.060      2119
30.080      2186
30.100      2172
30.120      2003
30.140      1863
30.160      2109
30.180      2122
30.200      2023
30.220      2083
30.240      2006
30.260      1933
30.280      2056
30.300      1943
30.320      1943
30.340      1799
30.360      1919
30.380      1916
30.400      1943
30.420      1993
30.440      1913
30.460      1963
30.480      1859
30.500      1849
30.520      1816
30.540      1719
30.560      1716
30.580      1736
30.600      1693
30.620      1843
30.640      1859
30.660      1813
30.680      1766
30.700      1736
30.720      1713
30.740      1893
30.760      1873
30.780      1906
30.800      1733
30.820      1519
30.840      1759
30.860      1453
30.880      1719
30.900      1603
30.920      1653
30.940      1579
30.960      1916
30.980      1523
31.000      1759
31.020      1569
31.040      1623
31.060      1693
31.080      1676
31.100      1536
31.120      1649
31.140      1619
31.160      1553
31.180      1523
31.200      1609
31.220      1539
31.240      1469
31.260      1633
31.280      1399
31.300      1419
31.320      1486
31.340      1623
31.360      1389
31.380      1383
31.400      1546
31.420      1506
31.440      1343
31.460      1453
31.480      1453
31.500      1403
31.520      1576
31.540      1456
31.560      1503
31.580      1346
31.600      1429
31.620      1429
31.640      1313
31.660      1463
31.680      1439
31.700      1279
31.720      1366
31.740      1269
31.760      1399
31.780      1366
31.800      1323
31.820      1259
31.840      1250
31.860      1363
31.880      1359
31.900      1273
31.920      1339
31.940      1250
31.960      1369
31.980      1266
32.000      1323
32.020      1299
32.040      1230
32.060      1499
32.080      1419
32.100      1303
32.120      1306
32.140      1389
32.160      1279
32.180      1379
32.200      1269
32.220      1226
32.240      1246
32.260      1286
32.280      1263
32.300      1306
32.320      1220
32.340      1160
32.360      1259
32.380      1243
32.400      1213
32.420      1106
32.440      1110
32.460      1166
32.480      1246
32.500      1200
32.520      1180
32.540      1213
32.560      1200
32.580      1143
32.600      1146
32.620      1183
32.640      1043
32.660      1200
32.680      1163
32.700      1026
32.720      1076
32.740      1203
32.760      1136
32.780      1200
32.800      1053
32.820      1126
32.840       970
32.860      1153
32.880      1113
32.900      1190
32.920      1013
32.940      1116
32.960       966
32.980      1160
33.000       973
33.020       973
33.040      1113
33.060      1066
33.080      1023
33.100      1093
33.120       970
33.140      1056
33.160       966
33.180       980
33.200       986
33.220       926
33.240      1003
33.260      1030
33.280       956
33.300      1026
33.320       986
33.340       910
33.360       893
33.380       976
33.400      1063
33.420      1026
33.440       916
33.460      1073
33.480       980
33.500       923
33.520       950
33.540       973
33.560       980
33.580       950
33.600       830
33.620       820
33.640       860
33.660       880
33.680       970
33.700       846
33.720       950
33.740       886
33.760       853
33.780       886
33.800       876
33.820       906
33.840       943
33.860       860
33.880       836
33.900       893
33.920       793
33.940       783
33.960       900
33.980       820
34.000       846
34.020       730
34.040       783
34.060       830
34.080       706
34.100       820
34.120       896
34.140       813
34.160       700
34.180       906
34.200       800
34.220       763
34.240       790
34.260       806
34.280       756
34.300       806
34.320       726
34.340       783
34.360       750
34.380       733
34.400       620
34.420       796
34.440       766
34.460       766
34.480       810
34.500       796
34.520       773
34.540       810
34.560       780
34.580       816
34.600       850
34.620       780
34.640       873
34.660       680
34.680       803
34.700       683
34.720       750
34.740       826
34.760       833
34.780       766
34.800       770
34.820       743
34.840       870
34.860       846
34.880       810
34.900       680
34.920       763
34.940       783
34.960       740
34.980       756
35.000       803
35.020       733
35.040       773
35.060       796
35.080       743
35.100       796
35.120       770
35.140       776
35.160       790
35.180       863
35.200       900
35.220       766
35.240       946
35.260       890
35.280       880
35.300      1033
35.320      1123
35.340      1250
35.360      1160
35.380      1329
35.400      1429
35.420      1699
35.440      1936
35.460      2212
35.480      2439
35.500      3149
35.520      3828
35.540      4678
35.560      5711
35.580      7037
35.600      9586
35.620     12592
35.640     16783
35.660     20089
35.680     22951
35.700     23511
35.720     22421
35.740     20892
35.760     18759
35.780     17100
35.800     14271
35.820     11989
35.840      9233
35.860      6847
35.880      5391
35.900      4248
35.920      3232
35.940      2682
35.960      2372
35.980      1926
36.000      1639
36.020      1573
36.040      1399
36.060      1246
36.080      1143
36.100      1126
36.120       986
36.140       970
36.160       930
36.180       746
36.200       903
36.220       790
36.240       720
36.260       720
36.280       666
36.300       623
36.320       710
36.340       626
36.360       610
36.380       606
36.400       600
36.420       526
36.440       500
36.460       430
36.480       496
36.500       526
36.520       616
36.540       516
36.560       560
36.580       526
36.600       440
36.620       480
36.640       560
36.660       540
36.680       443
36.700       446
36.720       456
36.740       490
36.760       473
36.780       443
36.800       486
36.820       456
36.840       466
36.860       473
36.880       470
36.900       473
36.920       443
36.940       506
36.960       506
36.980       446
37.000       530
37.020       390
37.040       387
37.060       453
37.080       460
37.100       436
37.120       380
37.140       363
37.160       470
37.180       430
37.200       430
37.220       347
37.240       423
37.260       433
37.280       380
37.300       377
37.320       387
37.340       443
37.360       373
37.380       443
37.400       403
37.420       380
37.440       410
37.460       387
37.480       340
37.500       393
37.520       353
37.540       377
37.560       410
37.580       360
37.600       373
37.620       393
37.640       317
37.660       307
37.680       407
37.700       337
37.720       426
37.740       377
37.760       373
37.780       403
37.800       317
37.820       320
37.840       323
37.860       330
37.880       310
37.900       307
37.920       337
37.940       300
37.960       380
37.980       323
38.000       343
38.020       320
38.040       297
38.060       297
38.080       347
38.100       277
38.120       323
38.140       383
38.160       310
38.180       293
38.200       300
38.220       313
38.240       293
38.260       360
38.280       317
38.300       270
38.320       340
38.340       300
38.360       333
38.380       323
38.400       313
38.420       337
38.440       243
38.460       277
38.480       267
38.500       313
38.520       310
38.540       330
38.560       303
38.580       353
38.600       337
38.620       260
38.640       320
38.660       317
38.680       283
38.700       293
38.720       293
38.740       280
38.760       307
38.780       287
38.800       267
38.820       253
38.840       280
38.860       263
38.880       283
38.900       243
38.920       293
38.940       250
38.960       233
38.980       280
39.000       213
39.020       280
39.040       227
39.060       247
39.080       267
39.100       260
39.120       267
39.140       297
39.160       267
39.180       277
39.200       303
39.220       247
39.240       247
39.260       267
39.280       253
39.300       247
39.320       270
39.340       283
39.360       187
39.380       300
39.400       203
39.420       270
39.440       230
39.460       223
39.480       300
39.500       270
39.520       243
39.540       213
39.560       233
39.580       260
39.600       227
39.620       237
39.640       233
39.660       210
39.680       247
39.700       263
39.720       233
39.740       230
39.760       237
39.780       210
39.800       223
39.820       270
39.840       240
39.860       250
39.880       170
39.900       213
39.920       180
39.940       187
39.960       200
39.980       190
40.000       217
40.020       210
40.040       190
40.060       173
40.080       183
40.100       230
40.120       197
40.140       187
40.160       170
40.180       210
40.200       220
40.220       193
40.240       220
40.260       240
40.280       210
40.300       187
40.320       220
40.340       233
40.360       190
40.380       160
40.400       190
40.420       233
40.440       203
40.460       210
40.480       217
40.500       243
40.520       170
40.540       210
40.560       143
40.580       140
40.600       170
40.620       207
40.640       187
40.660       217
40.680       207
40.700       197
40.720       200
40.740       160
40.760       157
40.780       157
40.800       200
40.820       173
40.840       133
40.860       227
40.880       180
40.900       173
40.920       153
40.940       150
40.960       187
40.980       177
41.000       140
41.020       140
41.040       157
41.060       203
41.080       127
41.100       170
41.120       187
41.140       180
41.160       170
41.180       227
41.200       160
41.220       150
41.240       203
41.260        97
41.280       157
41.300       123
41.320       190
41.340       123
41.360       170
41.380       133
41.400       187
41.420       163
41.440       147
41.460       150
41.480       183
41.500       190
41.520       193
41.540       193
41.560       160
41.580       190
41.600       140
41.620       173
41.640       140
41.660       103
41.680       143
41.700       180
41.720       147
41.740       147
41.760       127
41.780       170
41.800       137
41.820       160
41.840       177
41.860       167
41.880       143
41.900       157
41.920       163
41.940       183
41.960       140
41.980       133
42.000       160
42.020       143
42.040       140
42.060       140
42.080       180
42.100        77
42.120       120
42.140       157
42.160       163
42.180       133
42.200       153
42.220        90
42.240       157
42.260       127
42.280       100
42.300       123
42.320       123
42.340       147
42.360       150
42.380       130
42.400       120
42.420       210
42.440       133
42.460       167
42.480       163
42.500       123
42.520       127
42.540       160
42.560       137
42.580        97
42.600       167
42.620       140
42.640       130
42.660       103
42.680       110
42.700       130
42.720       160
42.740       113
42.760       157
42.780       147
42.800       140
42.820       130
42.840       157
42.860       137
42.880       130
42.900       150
42.920       143
42.940       100
42.960       130
42.980       147
43.000       123
43.020       123
43.040        97
43.060       170
43.080       113
43.100       127
43.120        93
43.140       127
43.160       147
43.180       183
43.200       117
43.220       123
43.240       110
43.260       157
43.280       113
43.300       100
43.320        87
43.340       137
43.360       120
43.380       137
43.400       117
43.420       107
43.440       120
43.460       107
43.480        97
43.500       133
43.520       133
43.540       120
43.560       127
43.580       120
43.600       120
43.620        93
43.640        97
43.660       153
43.680       103
43.700       110
43.720       123
43.740       147
43.760       103
43.780       123
43.800       123
43.820       113
43.840       127
43.860       113
43.880       130
43.900       120
43.920       100
43.940        90
43.960       117
43.980       110
44.000        93
44.020       113
44.040        63
44.060       113
44.080        93
44.100        93
44.120       103
44.140       113
44.160       117
44.180       127
44.200        57
44.220        97
44.240        97
44.260        90
44.280       100
44.300       133
44.320        93
44.340       133
44.360       110
44.380       130
44.400       147
44.420        70
44.440       140
44.460       130
44.480       120
44.500        83
44.520       107
44.540       100
44.560       107
44.580       110
44.600       110
44.620       123
44.640        93
44.660        83
44.680       113
44.700       110
44.720       150
44.740       117
44.760       153
44.780       133
44.800       130
44.820        97
44.840       100
44.860       130
44.880        97
44.900        93
44.920        97
44.940       123
44.960        97
44.980       103
45.000        97
45.020       117
45.040       110
45.060        67
45.080        83
45.100       103
45.120       100
45.140        67
45.160       103
45.180       130
45.200       127
45.220        67
45.240        90
45.260       137
45.280       123
45.300       130
45.320       123
45.340        83
45.360        97
45.380        90
45.400       113
45.420       100
45.440       107
45.460       100
45.480       107
45.500        80
45.520        57
45.540        77
45.560       110
45.580        97
45.600        97
45.620       110
45.640       103
45.660        53
45.680        87
45.700        97
45.720        77
45.740        83
45.760        83
45.780       117
45.800        87
45.820        80
45.840        80
45.860       107
45.880       130
45.900        87
45.920       100
45.940        87
45.960       110
45.980        53
46.000        97
46.020        83
46.040        90
46.060        47
46.080        93
46.100        93
46.120       100
46.140       103
46.160        77
46.180        83
46.200       113
46.220        93
46.240       100
46.260        87
46.280        83
46.300       120
46.320        77
46.340        73
46.360        77
46.380       107
46.400       117
46.420        70
46.440       107
46.460       130
46.480        87
46.500       100
46.520        97
46.540        90
46.560       123
46.580        87
46.600       107
46.620       107
46.640       103
46.660        83
46.680        70
46.700        93
46.720        77
46.740        87
46.760        83
46.780        77
46.800       123
46.820        63
46.840       117
46.860        60
46.880       103
46.900        97
46.920       110
46.940        70
46.960        90
46.980       117
47.000        63
47.020        77
47.040        67
47.060        97
47.080        73
47.100        93
47.120        87
47.140        70
47.160       103
47.180       103
47.200        83
47.220        83
47.240       110
47.260        90
47.280        83
47.300        77
47.320        70
47.340        97
47.360        93
47.380       103
47.400        63
47.420       100
47.440        67
47.460       117
47.480       123
47.500        97
47.520       103
47.540        93
47.560        83
47.580        70
47.600       100
47.620        83
47.640        93
47.660        90
47.680        80
47.700        47
47.720       103
47.740        73
47.760        73
47.780        73
47.800        93
47.820        80
47.840        87
47.860       100
47.880        80
47.900        90
47.920        87
47.940       100
47.960        63
47.980       107
48.000        73
48.020        67
48.040        57
48.060        90
48.080        83
48.100        87
48.120        60
48.140        93
48.160        97
48.180        87
48.200        83
48.220        97
48.240        80
48.260        87
48.280        73
48.300        63
48.320        97
48.340        93
48.360        77
48.380        90
48.400        70
48.420        87
48.440        67
48.460        90
48.480        93
48.500        87
48.520        73
48.540        80
48.560       130
48.580        97
48.600        80
48.620        93
48.640        67
48.660        73
48.680        50
48.700       107
48.720        87
48.740        73
48.760        93
48.780        83
48.800        93
48.820        90
48.840        83
48.860        97
48.880       100
48.900        93
48.920        87
48.940        53
48.960        93
48.980        90
49.000        93
49.020        87
49.040        63
49.060        83
49.080        47
49.100        97
49.120        83
49.140        63
49.160        70
49.180        67
49.200        70
49.220        80
49.240        83
49.260       103
49.280        60
49.300       117
49.320        63
49.340        90
49.360        70
49.380        93
49.400       120
49.420        80
49.440        57
49.460        50
49.480       100
49.500        70
49.520        93
49.540        57
49.560        83
49.580        63
49.600        60
49.620       113
49.640        60
49.660       107
49.680        63
49.700        67
49.720        83
49.740        70
49.760        90
49.780       107
49.800        73
49.820        90
49.840       103
49.860        90
49.880        57
49.900       107
49.920        93
49.940       103
49.960        83
49.980        77
50.000        57
50.020        77
50.040        67
50.060        97
50.080        60
50.100        70
50.120       117
50.140        97
50.160        63
50.180        67
50.200        77
50.220        47
50.240        97
50.260        77
50.280        63
50.300        83
50.320       110
50.340        37
50.360        67
50.380        87
50.400        70
50.420        63
50.440        53
50.460        67
50.480        97
50.500        67
50.520        63
50.540        80
50.560        77
50.580        70
50.600        83
50.620        83
50.640        67
50.660        93
50.680        93
50.700        40
50.720        73
50.740        90
50.760        57
50.780        80
50.800        57
50.820        73
50.840        83
50.860        80
50.880        90
50.900        57
50.920        37
50.940        70
50.960        70
50.980        60
51.000        73
51.020        87
51.040        70
51.060        57
51.080        83
51.100        90
51.120        73
51.140        60
51.160        83
51.180        93
51.200       100
51.220        63
51.240        93
51.260        73
51.280        90
51.300        77
51.320        73
51.340        77
51.360        73
51.380       110
51.400        70
51.420        97
51.440        97
51.460        67
51.480        73
51.500        53
51.520        60
51.540        53
51.560        73
51.580        53
51.600       117
51.620       103
51.640        77
51.660        47
51.680        53
51.700        70
51.720        47
51.740        53
51.760        47
51.780        80
51.800        60
51.820        87
51.840        87
51.860        60
51.880        73
51.900        37
51.920        77
51.940        77
51.960        73
51.980        67
52.000        40
52.020        47
52.040        77
52.060        57
52.080        80
52.100        73
52.120       103
52.140        70
52.160        43
52.180        83
52.200        87
52.220        97
52.240        83
52.260        70
52.280        80
52.300        90
52.320        90
52.340        60
52.360        93
52.380        60
52.400        50
52.420        60
52.440        80
52.460       100
52.480        53
52.500        73
52.520        93
52.540        80
52.560        60
52.580       100
52.600        87
52.620        57
52.640        60
52.660        63
52.680        70
52.700        70
52.720        83
52.740        73
52.760        97
52.780        57
52.800        90
52.820        63
52.840        50
52.860        83
52.880        60
52.900        73
52.920        43
52.940        77
52.960        57
52.980        77
53.000        70
53.020        83
53.040        87
53.060        77
53.080        70
53.100        63
53.120        83
53.140        60
53.160        60
53.180        73
53.200        90
53.220        53
53.240        87
53.260        90
53.280        73
53.300        90
53.320        47
53.340       100
53.360        77
53.380        73
53.400        83
53.420        53
53.440        63
53.460        73
53.480        57
53.500        70
53.520        73
53.540        60
53.560        80
53.580       107
53.600        57
53.620        73
53.640        67
53.660        87
53.680        63
53.700       100
53.720        70
53.740        63
53.760        83
53.780        93
53.800        37
53.820        67
53.840        60
53.860       107
53.880        97
53.900        87
53.920        87
53.940        47
53.960        80
53.980        63
54.000        53
54.020        87
54.040        87
54.060        50
54.080       103
54.100        37
54.120        47
54.140        50
54.160        67
54.180        80
54.200        70
54.220        70
54.240        83
54.260        73
54.280        60
54.300        50
54.320        63
54.340        67
54.360        63
54.380        87
54.400        57
54.420        37
54.440        87
54.460        70
54.480        50
54.500        40
54.520        40
54.540        70
54.560        87
54.580        70
54.600        70
54.620        67
54.640        73
54.660        93
54.680        87
54.700        83
54.720        70
54.740        43
54.760        63
54.780        63
54.800        47
54.820        90
54.840        60
54.860        57
54.880        70
54.900        80
54.920        67
54.940        53
54.960        43
54.980        37
55.000       100
55.020        80
55.040        67
55.060        57
55.080        90
55.100        47
55.120        60
55.140        57
55.160        80
55.180        63
55.200        67
55.220        90
55.240        77
55.260        60
55.280        63
55.300        57
55.320        60
55.340        83
55.360        93
55.380        93
55.400        60
55.420        63
55.440       123
55.460        60
55.480        37
55.500        57
55.520        53
55.540        67
55.560        63
55.580        67
55.600        80
55.620        90
55.640        73
55.660        77
55.680        90
55.700        43
55.720        50
55.740        70
55.760        53
55.780        87
55.800        67
55.820        63
55.840        90
55.860        77
55.880        50
55.900        83
55.920        70
55.940        83
55.960       100
55.980        70
56.000        53
56.020        77
56.040        83
56.060        70
56.080        80
56.100        53
56.120        53
56.140        60
56.160        63
56.180        60
56.200        57
56.220       107
56.240        80
56.260        47
56.280        57
56.300        80
56.320        67
56.340        63
56.360        80
56.380        83
56.400        67
56.420        80
56.440        57
56.460        57
56.480        73
56.500        73
56.520        70
56.540        63
56.560        83
56.580        67
56.600        60
56.620        50
56.640        60
56.660        93
56.680        70
56.700        70
56.720        87
56.740        67
56.760        73
56.780        47
56.800        77
56.820        93
56.840        67
56.860        37
56.880        93
56.900        83
56.920        80
56.940        77
56.960        47
56.980       100
57.000        50
57.020        43
57.040        53
57.060        47
57.080        57
57.100        87
57.120        60
57.140        47
57.160        60
57.180        77
57.200        47
57.220        57
57.240        93
57.260        77
57.280        50
57.300        57
57.320        43
57.340        70
57.360        47
57.380        83
57.400        80
57.420        53
57.440        57
57.460        80
57.480        70
57.500        53
57.520        43
57.540        73
57.560        57
57.580        90
57.600        63
57.620        63
57.640        57
57.660        67
57.680        60
57.700        97
57.720        47
57.740        57
57.760        77
57.780        67
57.800        47
57.820        80
57.840        77
57.860        50
57.880        53
57.900        50
57.920        60
57.940        67
57.960        33
57.980        83
58.000        70
58.020        57
58.040        80
58.060        80
58.080        50
58.100        77
58.120        73
58.140        47
58.160        47
58.180        67
58.200        57
58.220        73
58.240        67
58.260        60
58.280        60
58.300        63
58.320        60
58.340        73
58.360        83
58.380        77
58.400        57
58.420        73
58.440        83
58.460        63
58.480        57
58.500        67
58.520        63
58.540        63
58.560        77
58.580        70
58.600        97
58.620       113
58.640        50
58.660        93
58.680        70
58.700        73
58.720       100
58.740       143
58.760        93
58.780       170
58.800       153
58.820       153
58.840       327
58.860       720
58.880      1216
58.900      1306
58.920      1163
58.940       706
58.960       323
58.980       240
59.000       287
59.020       383
59.040       713
59.060       710
59.080       543
59.100       383
59.120       197
59.140       150
59.160       103
59.180        70
59.200        97
59.220        90
59.240        50
59.260        60
59.280        43
59.300        77
59.320        57
59.340        77
59.360        53
59.380        93
59.400        57
59.420       110
59.440        63
59.460        73
59.480       100
59.500        63
59.520        87
59.540        73
59.560        73
59.580        97
59.600        60
59.620        97
59.640       100
59.660        77
59.680       113
59.700        83
59.720        90
59.740        83
59.760        97
59.780       137
59.800       133
59.820       147
59.840       180
59.860       110
59.880       167
59.900       160
59.920       260
59.940       270
59.960       293
59.980       297
60.000       393
60.020       310
60.040       370
60.060       370
60.080       307
60.100       320
60.120       273
60.140       267
60.160       217
60.180       243
60.200       223
60.220       230
60.240       180
60.260       190
60.280       183
60.300       143
60.320       100
60.340       130
60.360        97
60.380       100
60.400        73
60.420        87
60.440        77
60.460        50
60.480        60
60.500        87
60.520        60
60.540        63
60.560        73
60.580        90
60.600        73
60.620        90
60.640        90
60.660        53
60.680        47
60.700        67
60.720        83
60.740        57
60.760        67
60.780        83
60.800        93
60.820        57
60.840        67
60.860        57
60.880        83
60.900        60
60.920        70
60.940        60
60.960        80
60.980        73
61.000        60
61.020        53
61.040        67
61.060        50
61.080        83
61.100        83
61.120        53
61.140        77
61.160        50
61.180        83
61.200        73
61.220        83
61.240        60
61.260        43
61.280        70
61.300        67
61.320        67
61.340        53
61.360        40
61.380        50
61.400        47
61.420        80
61.440        57
61.460        77
61.480        40
61.500        47
61.520        70
61.540        57
61.560        73
61.580        70
61.600        50
61.620        47
61.640        50
61.660        63
61.680        43
61.700        57
61.720        53
61.740        53
61.760        67
61.780        97
61.800        43
61.820        70
61.840        70
61.860        47
61.880        57
61.900        57
61.920        53
61.940        60
61.960        57
61.980        63
62.000        83
62.020        60
62.040        33
62.060        47
62.080        43
62.100        50
62.120        77
62.140        67
62.160        87
62.180        60
62.200        63
62.220        57
62.240        63
62.260        70
62.280        43
62.300        43
62.320        47
62.340        53
62.360        60
62.380        60
62.400        43
62.420        53
62.440        47
62.460        67
62.480        37
62.500        70
62.520        93
62.540        47
62.560        50
62.580        47
62.600        40
62.620        47
62.640        73
62.660        87
62.680        37
62.700        50
62.720        33
62.740        60
62.760        27
62.780        53
62.800        50
62.820        43
62.840        47
62.860        40
62.880        40
62.900        53
62.920        47
62.940        60
62.960        57
62.980        63
63.000        47
63.020        53
63.040        43
63.060        40
63.080        50
63.100        60
63.120        80
63.140        70
63.160        53
63.180        47
63.200        57
63.220        47
63.240        60
63.260        43
63.280        70
63.300        50
63.320        57
63.340        33
63.360        43
63.380        40
63.400        37
63.420        70
63.440        50
63.460        60
63.480        50
63.500        30
63.520        53
63.540        57
63.560        63
63.580        77
63.600        60
63.620        67
63.640        60
63.660        80
63.680        53
63.700        57
63.720        60
63.740        40
63.760        57
63.780        50
63.800        83
63.820        37
63.840        37
63.860        43
63.880        73
63.900        50
63.920        63
63.940        33
63.960        57
63.980        57
64.000        53
64.020        63
64.040        37
64.060        73
64.080        63
64.100        27
64.120        73
64.140        43
64.160        50
64.180        50
64.200        50
64.220        67
64.240        53
64.260        63
64.280        57
64.300        37
64.320        60
64.340        40
64.360        80
64.380        63
64.400        73
64.420        53
64.440        70
64.460        23
64.480        67
64.500        53
64.520        40
64.540        63
64.560        50
64.580        70
64.600        83
64.620        50
64.640        37
64.660        57
64.680        70
64.700        60
64.720        37
64.740        53
64.760        30
64.780        33
64.800        70
64.820        50
64.840        50
64.860        43
64.880        50
64.900        37
64.920        73
64.940        53
64.960        40
64.980        57
65.000        60
65.020        37
65.040        57
65.060        53
65.080        60
65.100        40
65.120        60
65.140        37
65.160        47
65.180        43
65.200        53
65.220        47
65.240        37
65.260        50
65.280        70
65.300        50
65.320        57
65.340        43
65.360        53
65.380        27
65.400        60
65.420        47
65.440        63
65.460        70
65.480        43
65.500        50
65.520        60
65.540        53
65.560        50
65.580        43
65.600        53
65.620        90
65.640        60
65.660        47
65.680        53
65.700        63
65.720        50
65.740        43
65.760        53
65.780        57
65.800        63
65.820        70
65.840        57
65.860        80
65.880        57
65.900        27
65.920        47
65.940        33
65.960        53
65.980        43
66.000        67
66.020        57
66.040        47
66.060        53
66.080        57
66.100        37
66.120        63
66.140        73
66.160        57
66.180        40
66.200        43
66.220        43
66.240        53
66.260        47
66.280        40
66.300        50
66.320        47
66.340        47
66.360        33
66.380        37
66.400        53
66.420        47
66.440        43
66.460        53
66.480        67
66.500        57
66.520        37
66.540        43
66.560        47
66.580        50
66.600        53
66.620        53
66.640        40
66.660        57
66.680        60
66.700        47
66.720        40
66.740        30
66.760        47
66.780        60
66.800        43
66.820        50
66.840        33
66.860        57
66.880        63
66.900        47
66.920        50
66.940        47
66.960        33
66.980        43
67.000        50
67.020        50
67.040        37
67.060        57
67.080        63
67.100        40
67.120        47
67.140        37
67.160        67
67.180        73
67.200        47
67.220        60
67.240        33
67.260        27
67.280        57
67.300        37
67.320        70
67.340        43
67.360        67
67.380        33
67.400        37
67.420        53
67.440        40
67.460        40
67.480        47
67.500        63
67.520        43
67.540        53
67.560        70
67.580        47
67.600        40
67.620        40
67.640        43
67.660        57
67.680        40
67.700        53
67.720        43
67.740        57
67.760        43
67.780        60
67.800        37
67.820        37
67.840        30
67.860        43
67.880        30
67.900        60
67.920        67
67.940        33
67.960        33
67.980        60
68.000        37
68.020        43
68.040        67
68.060        33
68.080        57
68.100        43
68.120        43
68.140        57
68.160        77
68.180        47
68.200        33
68.220        57
68.240        57
68.260        63
68.280        40
68.300        53
68.320        33
68.340        50
68.360        47
68.380        37
68.400        37
68.420        33
68.440        47
68.460        40
68.480        33
68.500        37
68.520        47
68.540        40
68.560        37
68.580        57
68.600        37
68.620        50
68.640        53
68.660        47
68.680        43
68.700        27
68.720        43
68.740        40
68.760        50
68.780        60
68.800        47
68.820        67
68.840        27
68.860        60
68.880        63
68.900        33
68.920        40
68.940        43
68.960        60
68.980        30
69.000        60
69.020        57
69.040        40
69.060        53
69.080        37
69.100        57
69.120        40
69.140        40
69.160        43
69.180        47
69.200        53
69.220        67
69.240        57
69.260        57
69.280        27
69.300        60
69.320        40
69.340        30
69.360        40
69.380        63
69.400        57
69.420        50
69.440        37
69.460        40
69.480        37
69.500        30
69.520        30
69.540        30
69.560        47
69.580        57
69.600        40
69.620        60
69.640        43
69.660        53
69.680        37
69.700        30
69.720        43
69.740        43
69.760        33
69.780        63
69.800        50
69.820        53
69.840        37
69.860        67
69.880        27
69.900        43
69.920        43
69.940        50
69.960        43
69.980        57
70.000        43
70.020        27
70.040        50
70.060        47
70.080        50
70.100        43
70.120        40
70.140        40
70.160        27
70.180        47
70.200        27
70.220        37
70.240        27
70.260        70
70.280        53
70.300        47
70.320        27
70.340        57
70.360        63
70.380        27
70.400        43
70.420        10
70.440        17
70.460        43
70.480        37
70.500        33
70.520        37
70.540        33
70.560        40
70.580        47
70.600        40
70.620        43
70.640        47
70.660        53
70.680        73
70.700        37
70.720        37
70.740        40
70.760        47
70.780        57
70.800        37
70.820        40
70.840        57
70.860        37
70.880        60
70.900        53
70.920        30
70.940        63
70.960        47
70.980        17
71.000        47
71.020        40
71.040        27
71.060        50
71.080        47
71.100        57
71.120        50
71.140        40
71.160        57
71.180        27
71.200        40
71.220        43
71.240        70
71.260        40
71.280        67
71.300        57
71.320        50
71.340        43
71.360        23
71.380        37
71.400        30
71.420        30
71.440        37
71.460        53
71.480        40
71.500        40
71.520        40
71.540        27
71.560        47
71.580        60
71.600        43
71.620        50
71.640        37
71.660        47
71.680        50
71.700        57
71.720        53
71.740        70
71.760        70
71.780        77
71.800        60
71.820        70
71.840        70
71.860        50
71.880        50
71.900        37
71.920        43
71.940        47
71.960        63
71.980        67
72.000        40
72.020        40
72.040        40
72.060        33
72.080        47
72.100        50
72.120        37
72.140        27
72.160        43
72.180        37
72.200        50
72.220        60
72.240        40
72.260        40
72.280        33
72.300        33
72.320        53
72.340        37
72.360        47
72.380        47
72.400        30
72.420        27
72.440        37
72.460        50
72.480        20
72.500        23
72.520        47
72.540        53
72.560        23
72.580        37
72.600        53
72.620        40
72.640        57
72.660        50
72.680        30
72.700        37
72.720        40
72.740        53
72.760        27
72.780        40
72.800        57
72.820        63
72.840        70
72.860        53
72.880        50
72.900        60
72.920        57
72.940        60
72.960        40
72.980        43
73.000        27
73.020        43
73.040        33
73.060        37
73.080        27
73.100        47
73.120        30
73.140        43
73.160        40
73.180        37
73.200        40
73.220        40
73.240        40
73.260        33
73.280        50
73.300        53
73.320        27
73.340        37
73.360        50
73.380        40
73.400        23
73.420        63
73.440        37
73.460        27
73.480        80
73.500        47
73.520        43
73.540        50
73.560        50
73.580        23
73.600        73
73.620        30
73.640        50
73.660        27
73.680        27
73.700        20
73.720        33
73.740        43
73.760        43
73.780        23
73.800        43
73.820        43
73.840        33
73.860        57
73.880        40
73.900        40
73.920        67
73.940        53
73.960        47
73.980        47
74.000        33
74.020        23
74.040        27
74.060        40
74.080        30
74.100        50
74.120        17
74.140        23
74.160        17
74.180        33
74.200        40
74.220        47
74.240        30
74.260        37
74.280        27
74.300        43
74.320        47
74.340        40
74.360        37
74.380        40
74.400        47
74.420        40
74.440        50
74.460        33
74.480        40
74.500        50
74.520        33
74.540        27
74.560        40
74.580        63
74.600        47
74.620        30
74.640        20
74.660        40
74.680        37
74.700        47
74.720        37
74.740        43
74.760        67
74.780        30
74.800        53
74.820        50
74.840        47
74.860        40
74.880        70
74.900        63
74.920        57
74.940        43
74.960        67
74.980        57
75.000        77
75.020        73
75.040        87
75.060        67
75.080        70
75.100        60
75.120        73
75.140        80
75.160        80
75.180       100
75.200        77
75.220       127
75.240       120
75.260       113
75.280       180
75.300       187
75.320       193
75.340       230
75.360       293
75.380       330
75.400       313
75.420       360
75.440       417
75.460       526
75.480       563
75.500       633
75.520       763
75.540       696
75.560       856
75.580       693
75.600       560
75.620       550
75.640       463
75.660       596
75.680       496
75.700       516
75.720       503
75.740       483
75.760       493
75.780       323
75.800       413
75.820       323
75.840       260
75.860       263
75.880       230
75.900       193
75.920       157
75.940       163
75.960       120
75.980       107
76.000        60
76.020        80
76.040        57
76.060        73
76.080        63
76.100        80
76.120        83
76.140        50
76.160        60
76.180        47
76.200        50
76.220        60
76.240        37
76.260        33
76.280        60
76.300        53
76.320        37
76.340        67
76.360        50
76.380        30
76.400        53
76.420        40
76.440        43
76.460        20
76.480        27
76.500        53
76.520        53
76.540        47
76.560        40
76.580        47
76.600        50
76.620        43
76.640        47
76.660        50
76.680        40
76.700        30
76.720        43
76.740        20
76.760        37
76.780        33
76.800        40
76.820        47
76.840        40
76.860        53
76.880        53
76.900        33
76.920        23
76.940        33
76.960        33
76.980        37
77.000        47
77.020        30
77.040        57
77.060        40
77.080        50
77.100        43
77.120        33
77.140        37
77.160        20
77.180        40
77.200        50
77.220        47
77.240        33
77.260        43
77.280        63
77.300        27
77.320        40
77.340        37
77.360        13
77.380        30
77.400        30
77.420        33
77.440        47
77.460        33
77.480        37
77.500        23
77.520        37
77.540        23
77.560        50
77.580        50
77.600        27
77.620        43
77.640        37
77.660        30
77.680        63
77.700        27
77.720        23
77.740        37
77.760        27
77.780        23
77.800        17
77.820        23
77.840        43
77.860        23
77.880        60
77.900        10
77.920        37
77.940        30
77.960        23
77.980        27
78.000        53
78.020        23
78.040        27
78.060        50
78.080        37
78.100        20
78.120        40
78.140        20
78.160        27
78.180        33
78.200        37
78.220        33
78.240        33
78.260        13
78.280        37
78.300        47
78.320        57
78.340        27
78.360        17
78.380        23
78.400        33
78.420        50
78.440        27
78.460        23
78.480        20
78.500        40
78.520        47
78.540        30
78.560        10
78.580         3
78.600        37
78.620        33
78.640        47
78.660        40
78.680        27
78.700        37
78.720        27
78.740        40
78.760        30
78.780        30
78.800        47
78.820        43
78.840        20
78.860        50
78.880        30
78.900        40
78.920        30
78.940        30
78.960        27
78.980        37
79.000        33
79.020        20
79.040        33
79.060        27
79.080        33
79.100        17
79.120        33
79.140        37
79.160        27
79.180        27
79.200        23
79.220        40
79.240        50
79.260        30
79.280        43
79.300        53
79.320        27
79.340        37
79.360        40
79.380        13
79.400        33
79.420        47
79.440        33
79.460        33
79.480        33
79.500        27
79.520        40
79.540        17
79.560        23
79.580        43
79.600        30
79.620        13
79.640        33
79.660        30
79.680        30
79.700        17
79.720        10
79.740        23
79.760        27
79.780        27
79.800        23
79.820        37
79.840        33
79.860        27
79.880        43
79.900        30
79.920        23
79.940        30
79.960        30
79.980        30
80.000        20
80.020        23
80.040        23
80.060        27
80.080        27
80.100        30
80.120        27
80.140        17
80.160        33
80.180        27
80.200        40
80.220        30
80.240        27
80.260        20
80.280        37
80.300        20
80.320        17
80.340        27
80.360        40
80.380        33
80.400        37
80.420        30
80.440        30
80.460        23
80.480        20
80.500        43
80.520        43
80.540        23
80.560        10
80.580        27
80.600        47
80.620        17
80.640        10
80.660        30
80.680        37
80.700        20
80.720        23
80.740        30
80.760        27
80.780        30
80.800        17
80.820        30
80.840        20
80.860        53
80.880        30
80.900        23
80.920        47
80.940        17
80.960        43
80.980        30
81.000        17
81.020        40
81.040        17
81.060        30
81.080        37
81.100        23
81.120        43
81.140        57
81.160        27
81.180        33
81.200        33
81.220        33
81.240        33
81.260        30
81.280        37
81.300        20
81.320        33
81.340        40
81.360        37
81.380        13
81.400        23
81.420        20
81.440        27
81.460        47
81.480        43
81.500        20
81.520        30
81.540        37
81.560        17
81.580        33
81.600        27
81.620        23
81.640        30
81.660        23
81.680        27
81.700        20
81.720        17
81.740        40
81.760        43
81.780        30
81.800        30
81.820        47
81.840        43
81.860        27
81.880        37
81.900        27
81.920        33
81.940        37
81.960        33
81.980        43
82.000        17
82.020        33
82.040        27
82.060        37
82.080        23
82.100        37
82.120        30
82.140        23
82.160        13
82.180        10
82.200        30
82.220        30
82.240        17
82.260        10
82.280        30
82.300        27
82.320        13
82.340        47
82.360        20
82.380        33
82.400        30
82.420        17
82.440        40
82.460        23
82.480        23
82.500        23
82.520        10
82.540        27
82.560        47
82.580        17
82.600        57
82.620        37
82.640        33
82.660        40
82.680        43
82.700        30
82.720        20
82.740        47
82.760        47
82.780        33
82.800        40
82.820        33
82.840        30
82.860        27
82.880        37
82.900        40
82.920        13
82.940        20
82.960        33
82.980        23
83.000        37
83.020        27
83.040        27
83.060        40
83.080        27
83.100        27
83.120        43
83.140        43
83.160        40
83.180        47
83.200        27
83.220        43
83.240         7
83.260        43
83.280        40
83.300        43
83.320        43
83.340        57
83.360        60
83.380        53
83.400        73
83.420        63
83.440        90
83.460       123
83.480       167
83.500       227
83.520       320
83.540       456
83.560       530
83.580       633
83.600       503
83.620       397
83.640       230
83.660       250
83.680       150
83.700       133
83.720        93
83.740        70
83.760        57
83.780        40
83.800        40
83.820        53
83.840        63
83.860        60
83.880        67
83.900        43
83.920        43
83.940        40
83.960        37
83.980        43
84.000        37
84.020        33
84.040        37
84.060        57
84.080        33
84.100        50
84.120        27
84.140        30
84.160        40
84.180        33
84.200        17
84.220        40
84.240        30
84.260        33
84.280        37
84.300        60
84.320        33
84.340        20
84.360        47
84.380        17
84.400        20
84.420        30
84.440        30
84.460        23
84.480        20
84.500        20
84.520        43
84.540        27
84.560        27
84.580        37
84.600        33
84.620        30
84.640        33
84.660        33
84.680        17
84.700        37
84.720        27
84.740        37
84.760        27
84.780        30
84.800        27
84.820        30
84.840        33
84.860        17
84.880        23
84.900        27
84.920        27
84.940        17
84.960        30
84.980        17
85.000        20
85.020        20
85.040        27
85.060        23
85.080        17
85.100        43
85.120        20
85.140        13
85.160        37
85.180        43
85.200        20
85.220        43
85.240        27
85.260        20
85.280        37
85.300        20
85.320        20
85.340        27
85.360        20
85.380        20
85.400        43
85.420        27
85.440        27
85.460        30
85.480        17
85.500        17
85.520        27
85.540        27
85.560        20
85.580        33
85.600        30
85.620        23
85.640        27
85.660        40
85.680        10
85.700        20
85.720        17
85.740        23
85.760        23
85.780        30
85.800        20
85.820        23
85.840        27
85.860        30
85.880        30
85.900        30
85.920        20
85.940        27
85.960        30
85.980        23
86.000        30
86.020        37
86.040        37
86.060        27
86.080        23
86.100        10
86.120        10
86.140        17
86.160        37
86.180        20
86.200        23
86.220        20
86.240        20
86.260        10
86.280        23
86.300        20
86.320        20
86.340        23
86.360        20
86.380        30
86.400        20
86.420        17
86.440        17
86.460        40
86.480        20
86.500        23
86.520        33
86.540        27
86.560        23
86.580        23
86.600        33
86.620        20
86.640        13
86.660        23
86.680        23
86.700        30
86.720        13
86.740        13
86.760        13
86.780        40
86.800        20
86.820        37
86.840        27
86.860        20
86.880        23
86.900        27
86.920        37
86.940        17
86.960        33
86.980        33
87.000        23
87.020        20
87.040        27
87.060        23
87.080        20
87.100        27
87.120        27
87.140        13
87.160        20
87.180        33
87.200        30
87.220        17
87.240        17
87.260        30
87.280        20
87.300        17
87.320        30
87.340        17
87.360        17
87.380        27
87.400        30
87.420        33
87.440        27
87.460        30
87.480        37
87.500        23
87.520        13
87.540        23
87.560        20
87.580        30
87.600         7
87.620        27
87.640        17
87.660        33
87.680         7
87.700        23
87.720        30
87.740        17
87.760        13
87.780        20
87.800        37
87.820        17
87.840        27
87.860        13
87.880        33
87.900        40
87.920         7
87.940        33
87.960        20
87.980        13
88.000        13
88.020        30
88.040        23
88.060        27
88.080        30
88.100         7
88.120        20
88.140        10
88.160        30
88.180        13
88.200        23
88.220        40
88.240        10
88.260        17
88.280        13
88.300        20
88.320        30
88.340        27
88.360        40
88.380        37
88.400        30
88.420        17
88.440        23
88.460        27
88.480        20
88.500        27
88.520        53
88.540        33
88.560        20
88.580        17
88.600        17
88.620        20
88.640        27
88.660        13
88.680        37
88.700        27
88.720        10
88.740        20
88.760        27
88.780        37
88.800        20
88.820        23
88.840        13
88.860        30
88.880        10
88.900        13
88.920        20
88.940        20
88.960        30
88.980        17
89.000        40
89.020        20
89.040        23
89.060        30
89.080        13
89.100        20
89.120        17
89.140        17
89.160        37
89.180        17
89.200        23
89.220        43
89.240        20
89.260        33
89.280        17
89.300        23
89.320        23
89.340        23
89.360        27
89.380        30
89.400        17
89.420         7
89.440        23
89.460        23
89.480        23
89.500        23
89.520        27
89.540        17
89.560        20
89.580        20
89.600        27
89.620        20
89.640        20
89.660        23
89.680        30
89.700        23
89.720        30
89.740        23
89.760        40
89.780        20
89.800        37
89.820        27
89.840        43
89.860        17
89.880        27
89.900        27
89.920        23
89.940        17
89.960        17
89.980        37
90.000        17
