20.000       213
20.010       213
20.020       287
20.030       400
20.040       373
20.050       413
20.060       466
20.070       473
20.080       360
20.090       466
20.100       347
20.110       380
20.120       420
20.130       420
20.140       320
20.150       433
20.160       353
20.170       327
20.180       393
20.190       387
20.200       393
20.210       446
20.220       360
20.230       393
20.240       373
20.250       480
20.260       347
20.270       313
20.280       393
20.290       400
20.300       313
20.310       407
20.320       313
20.330       400
20.340       426
20.350       380
20.360       353
20.370       413
20.380       340
20.390       320
20.400       353
20.410       340
20.420       387
20.430       353
20.440       407
20.450       373
20.460       380
20.470       253
20.480       433
20.490       300
20.500       327
20.510       313
20.520       293
20.530       367
20.540       407
20.550       367
20.560       333
20.570       273
20.580       307
20.590       227
20.600       313
20.610       280
20.620       293
20.630       273
20.640       227
20.650       200
20.660       333
20.670       267
20.680       280
20.690       293
20.700       293
20.710       253
20.720       253
20.730       233
20.740       227
20.750       240
20.760       207
20.770       253
20.780       253
20.790       273
20.800       193
20.810       213
20.820       227
20.830       213
20.840       207
20.850       267
20.860       180
20.870       173
20.880       327
20.890       280
20.900       273
20.910       180
20.920       213
20.930       187
20.940       253
20.950       220
20.960       213
20.970       240
20.980       227
20.990       193
21.000       273
21.010       247
21.020       240
21.030       227
21.040       220
21.050       167
21.060       200
21.070       213
21.080       200
21.090       200
21.100       113
21.110       200
21.120       227
21.130       193
21.140       207
21.150       240
21.160       180
21.170       187
21.180       207
21.190       187
21.200       280
21.210       253
21.220       200
21.230       187
21.240       187
21.250       220
21.260       200
21.270       240
21.280       227
21.290       207
21.300       160
21.310       107
21.320       207
21.330       227
21.340       193
21.350       200
21.360       247
21.370       213
21.380       147
21.390       173
21.400       180
21.410       193
21.420       240
21.430       207
21.440       287
21.450       153
21.460       213
21.470       173
21.480       193
21.490       207
21.500       167
21.510       300
21.520       213
21.530       273
21.540       160
21.550       213
21.560       160
21.570       180
21.580       180
21.590       173
21.600       187
21.610       127
21.620       233
21.630       180
21.640       173
21.650       200
21.660       233
21.670       207
21.680       273
21.690       200
21.700       220
21.710       253
21.720       220
21.730       180
21.740       193
21.750       280
21.760       260
21.770       220
21.780       193
21.790       193
21.800       160
21.810       200
21.820       180
21.830       200
21.840       240
21.850       227
21.860       167
21.870       153
21.880       220
21.890       133
21.900       153
21.910       160
21.920       167
21.930       193
21.940       167
21.950       167
21.960        93
21.970       187
21.980       193
21.990       173
22.000       207
22.010       173
22.020       147
22.030       120
22.040       207
22.050       193
22.060       167
22.070       160
22.080       193
22.090       133
22.100       167
22.110       167
22.120       127
22.130       127
22.140       147
22.150       140
22.160       153
22.170       167
22.180       100
22.190       147
22.200       100
22.210       133
22.220       120
22.230       140
22.240       113
22.250       140
22.260       107
22.270       140
22.280       153
22.290       127
22.300       107
22.310       147
22.320       100
22.330       113
22.340       140
22.350       160
22.360       113
22.370       153
22.380        80
22.390       100
22.400       133
22.410       167
22.420       120
22.430        60
22.440       153
22.450        93
22.460       127
22.470       167
22.480       140
22.490       107
22.500       147
22.510       100
22.520       127
22.530       200
22.540       160
22.550        87
22.560       113
22.570       100
22.580       113
22.590       140
22.600       100
22.610        93
22.620       113
22.630       120
22.640        93
22.650       187
22.660       113
22.670       113
22.680       133
22.690        87
22.700       113
22.710        87
22.720       133
22.730       160
22.740       140
22.750        87
22.760       133
22.770        60
22.780       147
22.790        93
22.800       127
22.810        73
22.820        67
22.830       120
22.840        73
22.850       120
22.860       100
22.870       113
22.880       167
22.890       113
22.900       147
22.910        73
22.920       127
22.930       107
22.940       113
22.950       113
22.960       127
22.970       107
22.980       100
22.990       133
23.000       120
23.010       107
23.020        87
23.030        60
23.040       100
23.050       113
23.060       100
23.070        67
23.080       113
23.090        80
23.100        67
23.110       113
23.120        80
23.130       100
23.140        87
23.150       120
23.160       113
23.170        67
23.180       107
23.190       113
23.200        87
23.210       100
23.220       133
23.230       107
23.240       100
23.250        80
23.260        73
23.270        73
23.280       127
23.290        80
23.300        73
23.310        93
23.320        53
23.330        60
23.340        93
23.350        87
23.360        93
23.370       113
23.380        60
23.390        73
23.400       107
23.410        73
23.420        80
23.430        47
23.440       107
23.450       100
23.460       113
23.470       127
23.480        80
23.490       133
23.500       153
23.510        67
23.520       113
23.530        60
23.540        80
23.550        80
23.560        87
23.570       133
23.580        67
23.590        80
23.600       100
23.610       120
23.620       107
23.630        80
23.640        93
23.650       127
23.660        67
23.670        80
23.680        73
23.690        67
23.700        73
23.710        87
23.720        53
23.730       113
23.740        73
23.750       113
23.760        40
23.770        80
23.780       120
23.790        53
23.800       113
23.810        60
23.820       133
23.830       113
23.840        53
23.850        80
23.860        60
23.870       107
23.880        80
23.890       100
23.900       100
23.910        53
23.920        87
23.930        87
23.940        80
23.950        67
23.960        67
23.970        67
23.980        80
23.990        87
24.000        93
24.010        67
24.020        87
24.030        93
24.040        67
24.050        87
24.060        93
24.070        47
24.080        67
24.090        60
24.100        80
24.110       127
24.120        47
24.130       113
24.140       127
24.150        87
24.160        73
24.170       113
24.180       100
24.190        80
24.200       113
24.210        80
24.220        67
24.230        80
24.240        67
24.250        87
24.260        67
24.270        73
24.280        73
24.290        80
24.300        93
24.310        87
24.320        53
24.330       107
24.340       160
24.350        60
24.360        87
24.370        87
24.380        93
24.390        60
24.400        60
24.410        80
24.420        73
24.430       107
24.440       113
24.450        60
24.460        87
24.470        73
24.480        60
24.490        73
24.500        60
24.510        93
24.520        93
24.530       113
24.540       127
24.550        80
24.560        73
24.570        73
24.580        33
24.590        80
24.600       153
24.610       113
24.620       133
24.630        80
24.640        73
24.650        60
24.660        73
24.670        67
24.680        93
24.690       113
24.700        87
24.710        80
24.720       127
24.730       113
24.740        93
24.750        80
24.760        73
24.770       113
24.780       100
24.790        80
24.800        87
24.810        87
24.820        73
24.830       127
24.840        67
24.850        80
24.860       107
24.870       120
24.880        93
24.890       140
24.900       107
24.910       113
24.920       120
24.930       113
24.940        73
24.950        40
24.960        93
24.970        93
24.980       113
24.990        87
25.000        80
25.010        47
25.020        60
25.030       107
25.040       173
25.050       100
25.060       140
25.070       120
25.080        73
25.090       127
25.100        93
25.110       160
25.120       133
25.130       107
25.140       113
25.150       180
25.160       140
25.170        87
25.180       147
25.190       187
25.200       147
25.210       147
25.220       153
25.230       193
25.240       147
25.250       140
25.260       153
25.270       100
25.280       147
25.290       140
25.300       173
25.310       140
25.320       167
25.330       113
25.340       173
25.350        93
25.360       253
25.370       147
25.380       173
25.390       147
25.400       133
25.410       140
25.420       167
25.430       187
25.440       167
25.450       213
25.460       253
25.470       307
25.480       347
25.490       300
25.500       340
25.510       327
25.520       340
25.530       353
25.540       347
25.550       333
25.560       353
25.570       300
25.580       420
25.590       353
25.600       333
25.610       426
25.620       653
25.630       673
25.640      1133
25.650      1933
25.660      2939
25.670      3852
25.680      4611
25.690      4938
25.700      5198
25.710      5031
25.720      4352
25.730      3212
25.740      2286
25.750      1399
25.760      1080
25.770       613
25.780       586
25.790       553
25.800       520
25.810       540
25.820       493
25.830       380
25.840       413
25.850       433
25.860       293
25.870       333
25.880       260
25.890       180
25.900       227
25.910       227
25.920       167
25.930       133
25.940       200
25.950       207
25.960       213
25.970       240
25.980       160
25.990       193
26.000       167
26.010       300
26.020       200
26.030       173
26.040       167
26.050       200
26.060       187
26.070       173
26.080       213
26.090       200
26.100       213
26.110       200
26.120       193
26.130       213
26.140       260
26.150       193
26.160       180
26.170       213
26.180       173
26.190       153
26.200       220
26.210       167
26.220       173
26.230        80
26.240       167
26.250       173
26.260       113
26.270       160
26.280       187
26.290       140
26.300       133
26.310       153
26.320       127
26.330       120
26.340       180
26.350       100
26.360       147
26.370       147
26.380       120
26.390       133
26.400       100
26.410       153
26.420       140
26.430       153
26.440       100
26.450       113
26.460       120
26.470       127
26.480       100
26.490       180
26.500       147
26.510        87
26.520       100
26.530       173
26.540       113
26.550       127
26.560       153
26.570       147
26.580       133
26.590       140
26.600       160
26.610       180
26.620       153
26.630       107
26.640       187
26.650       140
26.660       133
26.670        93
26.680       120
26.690       100
26.700       113
26.710       140
26.720       113
26.730        93
26.740       173
26.750       140
26.760       120
26.770        93
26.780       140
26.790        60
26.800       113
26.810       100
26.820       120
26.830        93
26.840       120
26.850       113
26.860        87
26.870       160
26.880       147
26.890       120
26.900       120
26.910        93
26.920        67
26.930       133
26.940       140
26.950        93
26.960       120
26.970       120
26.980       113
26.990       153
27.000        87
27.010        87
27.020       107
27.030       113
27.040        73
27.050        80
27.060        93
27.070        73
27.080       113
27.090        87
27.100       120
27.110       147
27.120       153
27.130       100
27.140       113
27.150       133
27.160       113
27.170        87
27.180        93
27.190       127
27.200       107
27.210       147
27.220       100
27.230        80
27.240        87
27.250        53
27.260       140
27.270       100
27.280       113
27.290       107
27.300       167
27.310        80
27.320       100
27.330       120
27.340       147
27.350       153
27.360       173
27.370       140
27.380       187
27.390       147
27.400       187
27.410       187
27.420       180
27.430       287
27.440       233
27.450       353
27.460       407
27.470       533
27.480       733
27.490       993
27.500      1186
27.510      1453
27.520      1566
27.530      1793
27.540      2013
27.550      1899
27.560      1813
27.570      1986
27.580      2066
27.590      1906
27.600      2039
27.610      2059
27.620      2086
27.630      1946
27.640      2053
27.650      2033
27.660      2046
27.670      2006
27.680      2132
27.690      1999
27.700      2146
27.710      2039
27.720      1899
27.730      2046
27.740      2146
27.750      1866
27.760      1899
27.770      2279
27.780      2139
27.790      2219
27.800      2099
27.810      1773
27.820      1953
27.830      1886
27.840      2079
27.850      1919
27.860      2146
27.870      2232
27.880      2212
27.890      2159
27.900      2199
27.910      2199
27.920      2119
27.930      2166
27.940      2079
27.950      2166
27.960      2126
27.970      2079
27.980      2186
27.990      2452
28.000      2232
28.010      2452
28.020      2466
28.030      2506
28.040      2326
28.050      2312
28.060      2326
28.070      2299
28.080      2532
28.090      2539
28.100      2346
28.110      2552
28.120      2606
28.130      2539
28.140      2552
28.150      2746
28.160      2799
28.170      2792
28.180      2906
28.190      3079
28.200      2965
28.210      3185
28.220      3392
28.230      3565
28.240      3665
28.250      3865
28.260      4212
28.270      4898
28.280      5225
28.290      5711
28.300      6917
28.310      9156
28.320     11295
28.330     14727
28.340     18246
28.350     22144
28.360     25556
28.370     28302
28.380     32554
28.390     35506
28.400     38511
28.410     44875
28.420     54478
28.430     82180
28.440    149014
28.450    225590
28.460    274410
28.470    288638
28.480    293443
28.490    294182
28.500    293916
28.510    293163
28.520    289717
28.530    273844
28.540    255891
28.550    247728
28.560    244389
28.570    243323
28.580    234260
28.590    207457
28.600    159196
28.610    102432
28.620     65574
28.630     49547
28.640     39884
28.650     35186
28.660     29322
28.670     25450
28.680     21685
28.690     19066
28.700     16640
28.710     14341
28.720     12915
28.730     10496
28.740      8643
28.750      6751
28.760      5478
28.770      4911
28.780      4485
28.790      4385
28.800      3765
28.810      3865
28.820      3485
28.830      3525
28.840      3085
28.850      3572
28.860      2999
28.870      3192
28.880      3065
28.890      2879
28.900      2879
28.910      2925
28.920      2686
28.930      2612
28.940      2579
28.950      2399
28.960      2572
28.970      2452
28.980      2339
28.990      2379
29.000      2439
29.010      2166
29.020      2152
29.030      2132
29.040      2119
29.050      2039
29.060      2239
29.070      2099
29.080      1973
29.090      1926
29.100      1999
29.110      1966
29.120      1939
29.130      1899
29.140      1833
29.150      1973
29.160      2073
29.170      1786
29.180      1859
29.190      1693
29.200      1719
29.210      1626
29.220      1726
29.230      1693
29.240      1639
29.250         0
29.260      1806
29.270      1666
29.280      1626
29.290      1566
29.300      1693
29.310      1719
29.320      1633
29.330      1526
29.340      1486
29.350      1619
29.360      1533
29.370      1639
29.380      1639
29.390      1406
29.400      1326
29.410      1519
29.420      1406
29.430      1493
29.440      1333
29.450      1599
29.460      1466
29.470      1506
29.480      1413
29.490      1559
29.500      1526
29.510      1433
29.520      1586
29.530      1346
29.540      1473
29.550      1259
29.560      1286
29.570      1213
29.580      1326
29.590      1213
29.600      1240
29.610      1339
29.620      1426
29.630      1266
29.640      1106
29.650      1466
29.660      1240
29.670      1319
29.680      1146
29.690      1293
29.700      1406
29.710      1186
29.720      1253
29.730      1086
29.740      1299
29.750      1246
29.760      1026
29.770      1173
29.780      1173
29.790      1293
29.800      1013
29.810      1200
29.820      1140
29.830      1233
29.840      1253
29.850      1126
29.860      1086
29.870      1106
29.880      1133
29.890      1313
29.900      1266
29.910      1166
29.920      1033
29.930      1166
29.940      1259
29.950       993
29.960      1013
29.970      1146
29.980      1040
29.990      1359
30.000      1173
30.010      1240
30.020       973
30.030      1286
30.040      1040
30.050      1066
30.060      1073
30.070      1013
30.080      1233
30.090       973
30.100      1266
30.110      1046
30.120      1106
30.130       960
30.140      1053
30.150      1046
30.160      1140
30.170      1033
30.180       960
30.190      1113
30.200      1086
30.210      1140
30.220       986
30.230      1040
30.240      1020
30.250      1120
30.260       853
30.270      1146
30.280      1053
30.290       960
30.300      1013
30.310      1040
30.320       940
30.330       986
30.340      1053
30.350      1173
30.360       980
30.370       986
30.380       946
30.390      1206
30.400       940
30.410       880
30.420       946
30.430       793
30.440       960
30.450       900
30.460       980
30.470       833
30.480       900
30.490       880
30.500       946
30.510       973
30.520       953
30.530       980
30.540      1006
30.550       940
30.560       866
30.570       826
30.580       833
30.590       913
30.600       833
30.610       893
30.620       860
30.630       913
30.640       926
30.650       840
30.660       860
30.670       960
30.680      1020
30.690       926
30.700       813
30.710       886
30.720       940
30.730       880
30.740       886
30.750      1006
30.760       853
30.770       853
30.780       966
30.790      1020
30.800       800
30.810       846
30.820      1073
30.830       906
30.840      1000
30.850       833
30.860       726
30.870       913
30.880       793
30.890       886
30.900       800
30.910       926
30.920       753
30.930       906
30.940       993
30.950       826
30.960       773
30.970       866
30.980       846
30.990       720
31.000       740
31.010       913
31.020       853
31.030       906
31.040       773
31.050       780
31.060       746
31.070       753
31.080       740
31.090       833
31.100       853
31.110       673
31.120       900
31.130       706
31.140       726
31.150       920
31.160       860
31.170       773
31.180       753
31.190       840
31.200       946
31.210       766
31.220       713
31.230       786
31.240       793
31.250       766
31.260       780
31.270       746
31.280       780
31.290       640
31.300       713
31.310       773
31.320       653
31.330       920
31.340       786
31.350       766
31.360       786
31.370       686
31.380       893
31.390       746
31.400       753
31.410       820
31.420       673
31.430       726
31.440       700
31.450       706
31.460       600
31.470       726
31.480       673
31.490       733
31.500       806
31.510       553
31.520       766
31.530       813
31.540       680
31.550       653
31.560       700
31.570       786
31.580       800
31.590       713
31.600       740
31.610       666
31.620       706
31.630       646
31.640       626
31.650       693
31.660       660
31.670       833
31.680       633
31.690       726
31.700       673
31.710       580
31.720       760
31.730       580
31.740       720
31.750       626
31.760       680
31.770       626
31.780       600
31.790       593
31.800       620
31.810       733
31.820       693
31.830       646
31.840       733
31.850       733
31.860       606
31.870       620
31.880       653
31.890       633
31.900       613
31.910       620
31.920       653
31.930       566
31.940       646
31.950       533
31.960       613
31.970       540
31.980       706
31.990       673
32.000       620
32.010       640
32.020       580
32.030       606
32.040       626
32.050       653
32.060       606
32.070       633
32.080       573
32.090       653
32.100       700
32.110       593
32.120       560
32.130       620
32.140       613
32.150       580
32.160       626
32.170       580
32.180       573
32.190       646
32.200       586
32.210       606
32.220       593
32.230       566
32.240       573
32.250       620
32.260       460
32.270       586
32.280       600
32.290       633
32.300       646
32.310       573
32.320       526
32.330       526
32.340       486
32.350       540
32.360       500
32.370       480
32.380       520
32.390       593
32.400       546
32.410       586
32.420       526
32.430       500
32.440       546
32.450       546
32.460       640
32.470       586
32.480       540
32.490       506
32.500       633
32.510       553
32.520       473
32.530       633
32.540       553
32.550       526
32.560       606
32.570       553
32.580       526
32.590       466
32.600       540
32.610       546
32.620       526
32.630       586
32.640       540
32.650       593
32.660       686
32.670       560
32.680       600
32.690       473
32.700       673
32.710       526
32.720       546
32.730       473
32.740       546
32.750       546
32.760       546
32.770       453
32.780       586
32.790       520
32.800       553
32.810       526
32.820       480
32.830       493
32.840       580
32.850       586
32.860       600
32.870       533
32.880       466
32.890       533
32.900       593
32.910       566
32.920       580
32.930       546
32.940       533
32.950       460
32.960       600
32.970       493
32.980       466
32.990       380
33.000       560
33.010       526
33.020       660
33.030       520
33.040       640
33.050       493
33.060       533
33.070       526
33.080       573
33.090       566
33.100       560
33.110       526
33.120       480
33.130       367
33.140       613
33.150       500
33.160       460
33.170       440
33.180       526
33.190       466
33.200       520
33.210       460
33.220       440
33.230       486
33.240       500
33.250       407
33.260       466
33.270       453
33.280       500
33.290       453
33.300       480
33.310       360
33.320       373
33.330       473
33.340       466
33.350       393
33.360       387
33.370       453
33.380       380
33.390       426
33.400       560
33.410       333
33.420       480
33.430       513
33.440       446
33.450       440
33.460       453
33.470       460
33.480       473
33.490       420
33.500       367
33.510       520
33.520       327
33.530       413
33.540       353
33.550       453
33.560       566
33.570       473
33.580       473
33.590       400
33.600       400
33.610       380
33.620       453
33.630       373
33.640       526
33.650       446
33.660       433
33.670       347
33.680       620
33.690       460
33.700       580
33.710       347
33.720       387
33.730       340
33.740       353
33.750       433
33.760       393
33.770       466
33.780       300
33.790       413
33.800       506
33.810       453
33.820       493
33.830       460
33.840       426
33.850       540
33.860       347
33.870       347
33.880       413
33.890       426
33.900       373
33.910       413
33.920       380
33.930       393
33.940       360
33.950       407
33.960       446
33.970       466
33.980       333
33.990       433
34.000       367
34.010       433
34.020       373
34.030       407
34.040       407
34.050       413
34.060       300
34.070       393
34.080       333
34.090       333
34.100       320
34.110       387
34.120       300
34.130       400
34.140       446
34.150       473
34.160       340
34.170       327
34.180       387
34.190       313
34.200       347
34.210       333
34.220       273
34.230       360
34.240       380
34.250       373
34.260       313
34.270       333
34.280       347
34.290       380
34.300       380
34.310       373
34.320       307
34.330       520
34.340       287
34.350       347
34.360       426
34.370       387
34.380       287
34.390       280
34.400       433
34.410       367
34.420       387
34.430       333
34.440       380
34.450       373
34.460       400
34.470       420
34.480       320
34.490       473
34.500       327
34.510       420
34.520       313
34.530       320
34.540       353
34.550       380
34.560       373
34.570       373
34.580       407
34.590       267
34.600       300
34.610       367
34.620       280
34.630       333
34.640       380
34.650       227
34.660       260
34.670       327
34.680       360
34.690       347
34.700       273
34.710       273
34.720       300
34.730       340
34.740       360
34.750       387
34.760       313
34.770       347
34.780       287
34.790       267
34.800       307
34.810       267
34.820       293
34.830       273
34.840       300
34.850       300
34.860       293
34.870       267
34.880       267
34.890       280
34.900       333
34.910       260
34.920       347
34.930       233
34.940       260
34.950       287
34.960       293
34.970       287
34.980       273
34.990       360
35.000       300
35.010       247
35.020       333
35.030       287
35.040       233
35.050       240
35.060       260
35.070       380
35.080       320
35.090       347
35.100       293
35.110       280
35.120       247
35.130       273
35.140       280
35.150       267
35.160       220
35.170       267
35.180       253
35.190       333
35.200       247
35.210       240
35.220       320
35.230       193
35.240       247
35.250       213
35.260       280
35.270       393
35.280       240
35.290       287
35.300       280
35.310       347
35.320       280
35.330       340
35.340       280
35.350       187
35.360       240
35.370       240
35.380       307
35.390       360
35.400       260
35.410       260
35.420       293
35.430       213
35.440       260
35.450       307
35.460       260
35.470       227
35.480       220
35.490       260
35.500       267
35.510       247
35.520       247
35.530       200
35.540       233
35.550       207
35.560       200
35.570       193
35.580       253
35.590       220
35.600       220
35.610       240
35.620       220
35.630       260
35.640       200
35.650       193
35.660       320
35.670       227
35.680       300
35.690       253
35.700       193
35.710       260
35.720       180
35.730       247
35.740       213
35.750       213
35.760       240
35.770       187
35.780       173
35.790       187
35.800       213
35.810       253
35.820       280
35.830       260
35.840       200
35.850       240
35.860       240
35.870       287
35.880       267
35.890       233
35.900       213
35.910       260
35.920       260
35.930       260
35.940       227
35.950       340
35.960       267
35.970       200
35.980       227
35.990       260
36.000       227
36.010       313
36.020       240
36.030       227
36.040       253
36.050       300
36.060       240
36.070       300
36.080       240
36.090       220
36.100       220
36.110       247
36.120       253
36.130       273
36.140       220
36.150       193
36.160       260
36.170       253
36.180       253
36.190       220
36.200       193
36.210       187
36.220       207
36.230       193
36.240       167
36.250       133
36.260       240
36.270       200
36.280       133
36.290       280
36.300       207
36.310       247
36.320       127
36.330       187
36.340       160
36.350       173
36.360       187
36.370       253
36.380       260
36.390       247
36.400       207
36.410       247
36.420       160
36.430       207
36.440       220
36.450       207
36.460       160
36.470       213
36.480       200
36.490       267
36.500       193
36.510       233
36.520       220
36.530       127
36.540       220
36.550       233
36.560       273
36.570       207
36.580       300
36.590       207
36.600       153
36.610       100
36.620       187
36.630       187
36.640       227
36.650       200
36.660       193
36.670       113
36.680       267
36.690       193
36.700       220
36.710       180
36.720       187
36.730       213
36.740       167
36.750       153
36.760       180
36.770       207
36.780       213
36.790       173
36.800       200
36.810       140
36.820       200
36.830       213
36.840       200
36.850       147
36.860       160
36.870       153
36.880       193
36.890       147
36.900       140
36.910       187
36.920       187
36.930       193
36.940       160
36.950       187
36.960       227
36.970       140
36.980       167
36.990       233
37.000       173
37.010       193
37.020       187
37.030       213
37.040       173
37.050       187
37.060       167
37.070       180
37.080       153
37.090       253
37.100       160
37.110       160
37.120       167
37.130       180
37.140       167
37.150       167
37.160       153
37.170       173
37.180       153
37.190       180
37.200       173
37.210       213
37.220       187
37.230       180
37.240       167
37.250       180
37.260       167
37.270       167
37.280       127
37.290       140
37.300       207
37.310       153
37.320       147
37.330       187
37.340       140
37.350       133
37.360       187
37.370       200
37.380       207
37.390       147
37.400       153
37.410       187
37.420       127
37.430       120
37.440       140
37.450       160
37.460       193
37.470       120
37.480       180
37.490       140
37.500       187
37.510       187
37.520       167
37.530       173
37.540       167
37.550       147
37.560       180
37.570       133
37.580       133
37.590       153
37.600       100
37.610       133
37.620       160
37.630       127
37.640       160
37.650       120
37.660       127
37.670       207
37.680       140
37.690       140
37.700       153
37.710       173
37.720        80
37.730       140
37.740       147
37.750       153
37.760       187
37.770       180
37.780       127
37.790       147
37.800       120
37.810       140
37.820       100
37.830       100
37.840       147
37.850       120
37.860       233
37.870       140
37.880       133
37.890       153
37.900       160
37.910        93
37.920        93
37.930       127
37.940       120
37.950       173
37.960       120
37.970       187
37.980        87
37.990       107
38.000        93
38.010       127
38.020       160
38.030       120
38.040       127
38.050       160
38.060       160
38.070       153
38.080        93
38.090       100
38.100       127
38.110       160
38.120        93
38.130       153
38.140       160
38.150        80
38.160       153
38.170       133
38.180       113
38.190       140
38.200        93
38.210       160
38.220       120
38.230       133
38.240       127
38.250       107
38.260       133
38.270       180
38.280       140
38.290       133
38.300       153
38.310       127
38.320       127
38.330       113
38.340       133
38.350       107
38.360        93
38.370       147
38.380       107
38.390       107
38.400        93
38.410       120
38.420       140
38.430       120
38.440       140
38.450       153
38.460       187
38.470       127
38.480        67
38.490       120
38.500       120
38.510       167
38.520        93
38.530       147
38.540        80
38.550       113
38.560       147
38.570        93
38.580        67
38.590       120
38.600        60
38.610       200
38.620       153
38.630       133
38.640        73
38.650       113
38.660        80
38.670        87
38.680       113
38.690       153
38.700       133
38.710       113
38.720        80
38.730       140
38.740       160
38.750       133
38.760       107
38.770       160
38.780       133
38.790       100
38.800       127
38.810       107
38.820       153
38.830       107
38.840       120
38.850       107
38.860       113
38.870       133
38.880       100
38.890        87
38.900       113
38.910       100
38.920       120
38.930        80
38.940       133
38.950       107
38.960        80
38.970       113
38.980       160
38.990        93
39.000        73
39.010        93
39.020       100
39.030       133
39.040       120
39.050        80
39.060       113
39.070       100
39.080        87
39.090       140
39.100       140
39.110       107
39.120       100
39.130       153
39.140       213
39.150       107
39.160       107
39.170        93
39.180        73
39.190       160
39.200       127
39.210       100
39.220       167
39.230        93
39.240       187
39.250       187
39.260       167
39.270       120
39.280       107
39.290       167
39.300       193
39.310       213
39.320       207
39.330       267
39.340       173
39.350       200
39.360       167
39.370       213
39.380       160
39.390       100
39.400       153
39.410       173
39.420       173
39.430        93
39.440       120
39.450       127
39.460       127
39.470       120
39.480       173
39.490        93
39.500        87
39.510       140
39.520       107
39.530       160
39.540        93
39.550       100
39.560       100
39.570       107
39.580       113
39.590       107
39.600        93
39.610       100
39.620       100
39.630       133
39.640        73
39.650        87
39.660        73
39.670       107
39.680        60
39.690       107
39.700       107
39.710       100
39.720        73
39.730       113
39.740        87
39.750       107
39.760        93
39.770       113
39.780       107
39.790        73
39.800        87
39.810        60
39.820        80
39.830       133
39.840        67
39.850       160
39.860        60
39.870        80
39.880       100
39.890        73
39.900        73
39.910        93
39.920       153
39.930        93
39.940       160
39.950        60
39.960        93
39.970       107
39.980        80
39.990        80
40.000        87
40.010        40
40.020       127
40.030       100
40.040        87
40.050       113
40.060        93
40.070       113
40.080        87
40.090       120
40.100        87
40.110       100
40.120        87
40.130       153
40.140        87
40.150        60
40.160        47
40.170       140
40.180        53
40.190       107
40.200        73
40.210        60
40.220       127
40.230       133
40.240        67
40.250        87
40.260        53
40.270        80
40.280       120
40.290        87
40.300        67
40.310        60
40.320        87
40.330       113
40.340        93
40.350       107
40.360        60
40.370        60
40.380        67
40.390        73
40.400        93
40.410       113
40.420        60
40.430        60
40.440        73
40.450       107
40.460        60
40.470        87
40.480        67
40.490        27
40.500        73
40.510        80
40.520        60
40.530        80
40.540        67
40.550       100
40.560        87
40.570       107
40.580        53
40.590        73
40.600       107
40.610       107
40.620        60
40.630        93
40.640        60
40.650        93
40.660        60
40.670       100
40.680        60
40.690       120
40.700        60
40.710        73
40.720        47
40.730        93
40.740       113
40.750        60
40.760        80
40.770        80
40.780        67
40.790        60
40.800        60
40.810        73
40.820       127
40.830       107
40.840       113
40.850        73
40.860        67
40.870        73
40.880       107
40.890        60
40.900        87
40.910        87
40.920        87
40.930        47
40.940        67
40.950        47
40.960        60
40.970        53
40.980        53
40.990        73
41.000        73
41.010        93
41.020       113
41.030        67
41.040        73
41.050        67
41.060        40
41.070       107
41.080        60
41.090        67
41.100        60
41.110        47
41.120        73
41.130        80
41.140        93
41.150       107
41.160        87
41.170        80
41.180        47
41.190        73
41.200        73
41.210        53
41.220        60
41.230        33
41.240       153
41.250       120
41.260        60
41.270        40
41.280        87
41.290        67
41.300        53
41.310        53
41.320        73
41.330       100
41.340        67
41.350        40
41.360        47
41.370       100
41.380        87
41.390        73
41.400        73
41.410       107
41.420        93
41.430        53
41.440       100
41.450        87
41.460        73
41.470        67
41.480        60
41.490       100
41.500        33
41.510        87
41.520        53
41.530        67
41.540        67
41.550        47
41.560        93
41.570        60
41.580        53
41.590        93
41.600        60
41.610       100
41.620        67
41.630        67
41.640        60
41.650        80
41.660       100
41.670       100
41.680        60
41.690        73
41.700        73
41.710        73
41.720        60
41.730        60
41.740        47
41.750       127
41.760        47
41.770        60
41.780       147
41.790       107
41.800       107
41.810        67
41.820        73
41.830        53
41.840        60
41.850        60
41.860        87
41.870        87
41.880        20
41.890        87
41.900        60
41.910        53
41.920        60
41.930        80
41.940        60
41.950        93
41.960        67
41.970        47
41.980        67
41.990        87
42.000        73
42.010        60
42.020        53
42.030        60
42.040        73
42.050        40
42.060        67
42.070       120
42.080        67
42.090        67
42.100        40
42.110       113
42.120        47
42.130        53
42.140        47
42.150        73
42.160        67
42.170        40
42.180        73
42.190        60
42.200        60
42.210        67
42.220        73
42.230        73
42.240        53
42.250       107
42.260        93
42.270       100
42.280        73
42.290        80
42.300        47
42.310        27
42.320        13
42.330        73
42.340        47
42.350        93
42.360        73
42.370        93
42.380        53
42.390        73
42.400        33
42.410        47
42.420        33
42.430        53
42.440        60
42.450        73
42.460        60
42.470        67
42.480       100
42.490        60
42.500        53
42.510        40
42.520        73
42.530        40
42.540        47
42.550        60
42.560        53
42.570       113
42.580        67
42.590        67
42.600        53
42.610        73
42.620        47
42.630        67
42.640        87
42.650        73
42.660        47
42.670        40
42.680       100
42.690        87
42.700        60
42.710        33
42.720        27
42.730        40
42.740        40
42.750        33
42.760        40
42.770        47
42.780        80
42.790        47
42.800        33
42.810       100
42.820       107
42.830        60
42.840        47
42.850        67
42.860        80
42.870        87
42.880        93
42.890        67
42.900        47
42.910        60
42.920        47
42.930        80
42.940        60
42.950        40
42.960        53
42.970       100
42.980        73
42.990        60
43.000        60
43.010        60
43.020        60
43.030        47
43.040        73
43.050        27
43.060        47
43.070        80
43.080        40
43.090       100
43.100        60
43.110        27
43.120        60
43.130        60
43.140        33
43.150        73
43.160        93
43.170        27
43.180        67
43.190        53
43.200        67
43.210        53
43.220        73
43.230       100
43.240       100
43.250        40
43.260        40
43.270        93
43.280        67
43.290        67
43.300        67
43.310        93
43.320        40
43.330        53
43.340        73
43.350        73
43.360        67
43.370        73
43.380        53
43.390        80
43.400        73
43.410        67
43.420        47
43.430        20
43.440        73
43.450        87
43.460        60
43.470        47
43.480        80
43.490        87
43.500        53
43.510        53
43.520        60
43.530        67
43.540        80
43.550        67
43.560        53
43.570        73
43.580        67
43.590       107
43.600        33
43.610        47
43.620        13
43.630        47
43.640        53
43.650        87
43.660        40
43.670        47
43.680        87
43.690        67
43.700        60
43.710        80
43.720        47
43.730        73
43.740        53
43.750        80
43.760       107
43.770        53
43.780        67
43.790        60
43.800        53
43.810        80
43.820        40
43.830        27
43.840        47
43.850        60
43.860        53
43.870        27
43.880        27
43.890        53
43.900        60
43.910        47
43.920        60
43.930        80
43.940        60
43.950        67
43.960        40
43.970        47
43.980        67
43.990        80
44.000        60
44.010        60
44.020        20
44.030        60
44.040        67
44.050        60
44.060        33
44.070        40
44.080        67
44.090        60
44.100        73
44.110        80
44.120        60
44.130        40
44.140        60
44.150        67
44.160        93
44.170        40
44.180        40
44.190        60
44.200        60
44.210        67
44.220       100
44.230        67
44.240        73
44.250        60
44.260        33
44.270        33
44.280        60
44.290        40
44.300        47
44.310        60
44.320        40
44.330        73
44.340        40
44.350        67
44.360        47
44.370        53
44.380        40
44.390        67
44.400        60
44.410        47
44.420        53
44.430        60
44.440        53
44.450        53
44.460        53
44.470        47
44.480        53
44.490        87
44.500        67
44.510        20
44.520        27
44.530        53
44.540        53
44.550        53
44.560        73
44.570        67
44.580        67
44.590        87
44.600        47
44.610        87
44.620        53
44.630        93
44.640        80
44.650        87
44.660        33
44.670        33
44.680        60
44.690        93
44.700        80
44.710        47
44.720        47
44.730        80
44.740        53
44.750        73
44.760        47
44.770        13
44.780        53
44.790        73
44.800        87
44.810        60
44.820        47
44.830        93
44.840        53
44.850        73
44.860        33
44.870        53
44.880        40
44.890        80
44.900        53
44.910        47
44.920        60
44.930        47
44.940        60
44.950        60
44.960        27
44.970        27
44.980        53
44.990        33
45.000        80
45.010        87
45.020        33
45.030        80
45.040        67
45.050        67
45.060        47
45.070        53
45.080        53
45.090        27
45.100        60
45.110        40
45.120        27
45.130        87
45.140        47
45.150        87
45.160        53
45.170        60
45.180        73
45.190        27
45.200        80
45.210        67
45.220        67
45.230        67
45.240        53
45.250        47
45.260        40
45.270        67
45.280        80
45.290        40
45.300        33
45.310        47
45.320        53
45.330        53
45.340        53
45.350        33
45.360        27
45.370        40
45.380        67
45.390        40
45.400        20
45.410        40
45.420        47
45.430        93
45.440        60
45.450        87
45.460        80
45.470        60
45.480        73
45.490        53
45.500        80
45.510        53
45.520        40
45.530        67
45.540        60
45.550        60
45.560       107
45.570        73
45.580        60
45.590        60
45.600        67
45.610        53
45.620        60
45.630        80
45.640        40
45.650        47
45.660        33
45.670        67
45.680        67
45.690        53
45.700        13
45.710        40
45.720        60
45.730       120
45.740        33
45.750        40
45.760        80
45.770        67
45.780        53
45.790        27
45.800        60
45.810        47
45.820        53
45.830        40
45.840        40
45.850        53
45.860        73
45.870        80
45.880        27
45.890        47
45.900        47
45.910        47
45.920        67
45.930        60
45.940        40
45.950        60
45.960        60
45.970        27
45.980        53
45.990        20
46.000        53
46.010        60
46.020        73
46.030        47
46.040        33
46.050        13
46.060        27
46.070        53
46.080        53
46.090        53
46.100        93
46.110        80
46.120        33
46.130        40
46.140        40
46.150        67
46.160        73
46.170        60
46.180        73
46.190        87
46.200        47
46.210        20
46.220        47
46.230        67
46.240        53
46.250        20
46.260        60
46.270        73
46.280        80
46.290        47
46.300        47
46.310        53
46.320        47
46.330        40
46.340        47
46.350        53
46.360        33
46.370        73
46.380        73
46.390         7
46.400        40
46.410        13
46.420        60
46.430        47
46.440        87
46.450        67
46.460        33
46.470        80
46.480        33
46.490        67
46.500        40
46.510        33
46.520        67
46.530        67
46.540        40
46.550        53
46.560        47
46.570       100
46.580        47
46.590        53
46.600        87
46.610        60
46.620        53
46.630        53
46.640        60
46.650        33
46.660        53
46.670        47
46.680        27
46.690        47
46.700        33
46.710        53
46.720        87
46.730        87
46.740        27
46.750        27
46.760        40
46.770        33
46.780        67
46.790        53
46.800        67
46.810        60
46.820        87
46.830        60
46.840        40
46.850        73
46.860        27
46.870        60
46.880        60
46.890        47
46.900        20
46.910        53
46.920        20
46.930        80
46.940        53
46.950        53
46.960        80
46.970        73
46.980        40
46.990        73
47.000        80
47.010       100
47.020       113
47.030        40
47.040        47
47.050        60
47.060        33
47.070        73
47.080        67
47.090        53
47.100        73
47.110        33
47.120        73
47.130        53
47.140        73
47.150        40
47.160        33
47.170        33
47.180        87
47.190        80
47.200        47
47.210        73
47.220        33
47.230        27
47.240        40
47.250        67
47.260        20
47.270        60
47.280        53
47.290        40
47.300        60
47.310        47
47.320        33
47.330        80
47.340        13
47.350        53
47.360        80
47.370        27
47.380        33
47.390        33
47.400        40
47.410        47
47.420        47
47.430        40
47.440        27
47.450        60
47.460        40
47.470         7
47.480        20
47.490        20
47.500        73
47.510        47
47.520        53
47.530       100
47.540        47
47.550        53
47.560        40
47.570        67
47.580        40
47.590        40
47.600        33
47.610        60
47.620        80
47.630        53
47.640        40
47.650        67
47.660        67
47.670        53
47.680        53
47.690        47
47.700        73
47.710        87
47.720        27
47.730        73
47.740        47
47.750        20
47.760        20
47.770        53
47.780        40
47.790        13
47.800        40
47.810        47
47.820        53
47.830        60
47.840        60
47.850        47
47.860        27
47.870        47
47.880        53
47.890        40
47.900        53
47.910        93
47.920        60
47.930        33
47.940        73
47.950        53
47.960        53
47.970        47
47.980        27
47.990        53
48.000        40
48.010        47
48.020        20
48.030        67
48.040        53
48.050        33
48.060        47
48.070        27
48.080        40
48.090        40
48.100        33
48.110        33
48.120        53
48.130        67
48.140        53
48.150        60
48.160        53
48.170        53
48.180        47
48.190        33
48.200        20
48.210        87
48.220        47
48.230        40
48.240        60
48.250        53
48.260        53
48.270       127
48.280        67
48.290        67
48.300        80
48.310        47
48.320        60
48.330        53
48.340        73
48.350        67
48.360        60
48.370        20
48.380        47
48.390        33
48.400        47
48.410       100
48.420        67
48.430        73
48.440        47
48.450        53
48.460        67
48.470        40
48.480        33
48.490        60
48.500        33
48.510        47
48.520        40
48.530       107
48.540        53
48.550        67
48.560        53
48.570        47
48.580        60
48.590        33
48.600        27
48.610        27
48.620        40
48.630        60
48.640        80
48.650        60
48.660        87
48.670        80
48.680        53
48.690        53
48.700        73
48.710        47
48.720        73
48.730        80
48.740        40
48.750        27
48.760        20
48.770        33
48.780        40
48.790        53
48.800        60
48.810        67
48.820        33
48.830        47
48.840        40
48.850        53
48.860        47
48.870        47
48.880        33
48.890        60
48.900        47
48.910        67
48.920        20
48.930        53
48.940        53
48.950        60
48.960        73
48.970        40
48.980        53
48.990        60
49.000        53
49.010        93
49.020        47
49.030        40
49.040        73
49.050        47
49.060        53
49.070        53
49.080        67
49.090        33
49.100        60
49.110        20
49.120        60
49.130        47
49.140        47
49.150       107
49.160        27
49.170        47
49.180        60
49.190        60
49.200        40
49.210        33
49.220        33
49.230        73
49.240        73
49.250        27
49.260        33
49.270        27
49.280        47
49.290        53
49.300        53
49.310        40
49.320        67
49.330        60
49.340        40
49.350        87
49.360        47
49.370        33
49.380        40
49.390        87
49.400        47
49.410        40
49.420        67
49.430        53
49.440        47
49.450        60
49.460        60
49.470        60
49.480        33
49.490        47
49.500        27
49.510        47
49.520        27
49.530        47
49.540        47
49.550        67
49.560        40
49.570        40
49.580        67
49.590        47
49.600        40
49.610        53
49.620        60
49.630        47
49.640        33
49.650       120
49.660        47
49.670        53
49.680        40
49.690        40
49.700        53
49.710        47
49.720        67
49.730        87
49.740        87
49.750        53
49.760        33
49.770        80
49.780        87
49.790        87
49.800        33
49.810        80
49.820        47
49.830        40
49.840        40
49.850        60
49.860        60
49.870        67
49.880        67
49.890        53
49.900       107
49.910        47
49.920        53
49.930        33
49.940        33
49.950        53
49.960        47
49.970        40
49.980        47
49.990        53
50.000        53
50.010        53
50.020        73
50.030        93
50.040        67
50.050        60
50.060        60
50.070        47
50.080        53
50.090        13
50.100        33
50.110       100
50.120        40
50.130        60
50.140        60
50.150        27
50.160        47
50.170        67
50.180        73
50.190        67
50.200        67
50.210        33
50.220        60
50.230        13
50.240        20
50.250        40
50.260        60
50.270        53
50.280        53
50.290        33
50.300        60
50.310        80
50.320        60
50.330        40
50.340        40
50.350        87
50.360        40
50.370        47
50.380        67
50.390        47
50.400        33
50.410        40
50.420        53
50.430        27
50.440        47
50.450        47
50.460        60
50.470        33
50.480        93
50.490        40
50.500        93
50.510        60
50.520        47
50.530        80
50.540        80
50.550        53
50.560        33
50.570        40
50.580        47
50.590        33
50.600        47
50.610        53
50.620        40
50.630        73
50.640        47
50.650        60
50.660        33
50.670        27
50.680        67
50.690        40
50.700        40
50.710        53
50.720        40
50.730        67
50.740        73
50.750        13
50.760        40
50.770        40
50.780        53
50.790        73
50.800        47
50.810        53
50.820        60
50.830        53
50.840        60
50.850        47
50.860        33
50.870        67
50.880        47
50.890        33
50.900        20
50.910        53
50.920        47
50.930        33
50.940        60
50.950        27
50.960        40
50.970        53
50.980        27
50.990        60
51.000        67
51.010        20
51.020        33
51.030        53
51.040        33
51.050        13
51.060        33
51.070        53
51.080        47
51.090        40
51.100        47
51.110        47
51.120        40
51.130        67
51.140        20
51.150        67
51.160        47
51.170        40
51.180        67
51.190        60
51.200        27
51.210        40
51.220        60
51.230        47
51.240        47
51.250        40
51.260        20
51.270        53
51.280        60
51.290        33
51.300        47
51.310        47
51.320        40
51.330        40
51.340        67
51.350        60
51.360        20
51.370        27
51.380        60
51.390        53
51.400        53
51.410        53
51.420        40
51.430        40
51.440        73
51.450        67
51.460        93
51.470        27
51.480        27
51.490        40
51.500        67
51.510        73
51.520        53
51.530        40
51.540        67
51.550        33
51.560        27
51.570        27
51.580        40
51.590        53
51.600        67
51.610        67
51.620        33
51.630        53
51.640        20
51.650        47
51.660        40
51.670        93
51.680        40
51.690        47
51.700        53
51.710        27
51.720        40
51.730        53
51.740        27
51.750        53
51.760        73
51.770        33
51.780        53
51.790        47
51.800        27
51.810        53
51.820        40
51.830        47
51.840        33
51.850        40
51.860        47
51.870        47
51.880        47
51.890        53
51.900        33
51.910        47
51.920        67
51.930        53
51.940        67
51.950        40
51.960        20
51.970        13
51.980        53
51.990        67
52.000        40
52.010        40
52.020        33
52.030        33
52.040        47
52.050        20
52.060        47
52.070        60
52.080        27
52.090        27
52.100        53
52.110        53
52.120        80
52.130        53
52.140        20
52.150        40
52.160        60
52.170        67
52.180        47
52.190        20
52.200        60
52.210        33
52.220        27
52.230        60
52.240        47
52.250        27
52.260        20
52.270        33
52.280        40
52.290        73
52.300        60
52.310        60
52.320         7
52.330        40
52.340        27
52.350        53
52.360        53
52.370        73
52.380        47
52.390        33
52.400        33
52.410        47
52.420        53
52.430        40
52.440        47
52.450        40
52.460        20
52.470        87
52.480         7
52.490        20
52.500        60
52.510        27
52.520        47
52.530        20
52.540        40
52.550        67
52.560        47
52.570        53
52.580        67
52.590        40
52.600        67
52.610        40
52.620        33
52.630        53
52.640        73
52.650        60
52.660        27
52.670        47
52.680        33
52.690        60
52.700        27
52.710        33
52.720        47
52.730        27
52.740        47
52.750        33
52.760        47
52.770        80
52.780        80
52.790        47
52.800        40
52.810        47
52.820        40
52.830        40
52.840        53
52.850        27
52.860        53
52.870        60
52.880        53
52.890        40
52.900        60
52.910        33
52.920        40
52.930        27
52.940        60
52.950        33
52.960        40
52.970        20
52.980        20
52.990        53
53.000        67
53.010        60
53.020        40
53.030        47
53.040        47
53.050        33
53.060        73
53.070        53
53.080        33
53.090        80
53.100        20
53.110        53
53.120        53
53.130        47
53.140        40
53.150        27
53.160        80
53.170        20
53.180        33
53.190        33
53.200        67
53.210        33
53.220        40
53.230        47
53.240        53
53.250        60
53.260        33
53.270        13
53.280        73
53.290        53
53.300        33
53.310        47
53.320        20
53.330        47
53.340        60
53.350        53
53.360        47
53.370        47
53.380        53
53.390        53
53.400        20
53.410        53
53.420        53
53.430        53
53.440        33
53.450        33
53.460        80
53.470        53
53.480        27
53.490        40
53.500        40
53.510        53
53.520        47
53.530        40
53.540        67
53.550        33
53.560        53
53.570        53
53.580        53
53.590        60
53.600        33
53.610        27
53.620        73
53.630        40
53.640        20
53.650        47
53.660        60
53.670        67
53.680        93
53.690        60
53.700        80
53.710        67
53.720        20
53.730        53
53.740        27
53.750        60
53.760        33
53.770        60
53.780        60
53.790        67
53.800        53
53.810        73
53.820        40
53.830        47
53.840        40
53.850        47
53.860        53
53.870        60
53.880        47
53.890        33
53.900        33
53.910        20
53.920        40
53.930        73
53.940        53
53.950        40
53.960        60
53.970       107
53.980        73
53.990        60
54.000        40
54.010        27
54.020        67
54.030        20
54.040        47
54.050        20
54.060        60
54.070        27
54.080        67
54.090        53
54.100        47
54.110        33
54.120        73
54.130        40
54.140        53
54.150        40
54.160        40
54.170        47
54.180        53
54.190        53
54.200        53
54.210        20
54.220        47
54.230        53
54.240        27
54.250        67
54.260        47
54.270        27
54.280        73
54.290        53
54.300        47
54.310        40
54.320        40
54.330        60
54.340        80
54.350        40
54.360        40
54.370        47
54.380        20
54.390        47
54.400        60
54.410        53
54.420        20
54.430        40
54.440        53
54.450        53
54.460        33
54.470        27
54.480        73
54.490        33
54.500        33
54.510        27
54.520        33
54.530        53
54.540        33
54.550        13
54.560        67
54.570        20
54.580        40
54.590        40
54.600        60
54.610        33
54.620         7
54.630        47
54.640        33
54.650        53
54.660        40
54.670        40
54.680        60
54.690        67
54.700        40
54.710        33
54.720        27
54.730        60
54.740        40
54.750        60
54.760        27
54.770        13
54.780        40
54.790        40
54.800        67
54.810        33
54.820        40
54.830        67
54.840        13
54.850        67
54.860        53
54.870        33
54.880        47
54.890        33
54.900        60
54.910        47
54.920        33
54.930        60
54.940        47
54.950        27
54.960        47
54.970        20
54.980        33
54.990        40
55.000        53
55.010        47
55.020        47
55.030        40
55.040        67
55.050        60
55.060        33
55.070        47
55.080        47
55.090        47
55.100        60
55.110        53
55.120        67
55.130        20
55.140        67
55.150        53
55.160        33
55.170        53
55.180        47
55.190        20
55.200        40
55.210        60
55.220        67
55.230        53
55.240        60
55.250        53
55.260        60
55.270        40
55.280        27
55.290        27
55.300        20
55.310        73
55.320        53
55.330        53
55.340        33
55.350        60
55.360        53
55.370        33
55.380        53
55.390        67
55.400        67
55.410        60
55.420        20
55.430        40
55.440        20
55.450        20
55.460        40
55.470        40
55.480        40
55.490        53
55.500        47
55.510        87
55.520        87
55.530        47
55.540        33
55.550        27
55.560        40
55.570        40
55.580        47
55.590        20
55.600        53
55.610        60
55.620        33
55.630        87
55.640        47
55.650        60
55.660        53
55.670        20
55.680        40
55.690        60
55.700        53
55.710        27
55.720        33
55.730        67
55.740        60
55.750        53
55.760        20
55.770        20
55.780        60
55.790        73
55.800        87
55.810        33
55.820        60
55.830        40
55.840        53
55.850        40
55.860        47
55.870        73
55.880        27
55.890        53
55.900        60
55.910        40
55.920        13
55.930        40
55.940        73
55.950        40
55.960        53
55.970        60
55.980        40
55.990        33
56.000        47
56.010        27
56.020        67
56.030        33
56.040        60
56.050        53
56.060        47
56.070        33
56.080        53
56.090        27
56.100        40
56.110        53
56.120        60
56.130        60
56.140        13
56.150        33
56.160        47
56.170        33
56.180        40
56.190        60
56.200        47
56.210        33
56.220        40
56.230        20
56.240        20
56.250       100
56.260        53
56.270        53
56.280        47
56.290        47
56.300        40
56.310        33
56.320        60
56.330        40
56.340        33
56.350        93
56.360        47
56.370        40
56.380        60
56.390        47
56.400        40
56.410        93
56.420        40
56.430        60
56.440        27
56.450        60
56.460        40
56.470        27
56.480        73
56.490        47
56.500        47
56.510        47
56.520        67
56.530        67
56.540        40
56.550        60
56.560        80
56.570        67
56.580        60
56.590        47
56.600        27
56.610        47
56.620        47
56.630        53
56.640        40
56.650        47
56.660        53
56.670        40
56.680        40
56.690        40
56.700        40
56.710        87
56.720        53
56.730        33
56.740        40
56.750        47
56.760        73
56.770        47
56.780        47
56.790        93
56.800        33
56.810        40
56.820        40
56.830        40
56.840        60
56.850        40
56.860        53
56.870        47
56.880        33
56.890        33
56.900        33
56.910        20
56.920        60
56.930        53
56.940        40
56.950        27
56.960        60
56.970        20
56.980        40
56.990        27
57.000        27
57.010        53
57.020        27
57.030        47
57.040        60
57.050        33
57.060        53
57.070        53
57.080        53
57.090        20
57.100        27
57.110        53
57.120        27
57.130        73
57.140        20
57.150        27
57.160        60
57.170        80
57.180        93
57.190        53
57.200        47
57.210        27
57.220        13
57.230        53
57.240        67
57.250        53
57.260        27
57.270        33
57.280        53
57.290        47
57.300        40
57.310        40
57.320        33
57.330        40
57.340        60
57.350        67
57.360        87
57.370        53
57.380        47
57.390        53
57.400        67
57.410        40
57.420        67
57.430        20
57.440        20
57.450        40
57.460        40
57.470        73
57.480        33
57.490        60
57.500        40
57.510        47
57.520        13
57.530        20
57.540        33
57.550        20
57.560        13
57.570        47
57.580        40
57.590        20
57.600        60
57.610        53
57.620        67
57.630        47
57.640        33
57.650        33
57.660        53
57.670        73
57.680        40
57.690        53
57.700        27
57.710        53
57.720        53
57.730        20
57.740        47
57.750        13
57.760         7
57.770        53
57.780        47
57.790        73
57.800        33
57.810        40
57.820        47
57.830        53
57.840        53
57.850        47
57.860        60
57.870        40
57.880        47
57.890        60
57.900        47
57.910        47
57.920        33
57.930        20
57.940        27
57.950        33
57.960        33
57.970        47
57.980        67
57.990        27
58.000        40
58.010        80
58.020        53
58.030        80
58.040        40
58.050        27
58.060        40
58.070        20
58.080        47
58.090        40
58.100        40
58.110        67
58.120        47
58.130        33
58.140        40
58.150        40
58.160        47
58.170        33
58.180        33
58.190        47
58.200        20
58.210        40
58.220        33
58.230        20
58.240        33
58.250        27
58.260        60
58.270        40
58.280        40
58.290        47
58.300        47
58.310        20
58.320        47
58.330        53
58.340        20
58.350         7
58.360        33
58.370        33
58.380        53
58.390        73
58.400        60
58.410        53
58.420        27
58.430        53
58.440        67
58.450        20
58.460        47
58.470        47
58.480        27
58.490        53
58.500        47
58.510        27
58.520        73
58.530        40
58.540        27
58.550        40
58.560        27
58.570        67
58.580        87
58.590        40
58.600        33
58.610        27
58.620        33
58.630        40
58.640        53
58.650        53
58.660        80
58.670        60
58.680        47
58.690        47
58.700        53
58.710        40
58.720        53
58.730        20
58.740        47
58.750        60
58.760        73
58.770        73
58.780        93
58.790        80
58.800        53
58.810        80
58.820        93
58.830       100
58.840       113
58.850       140
58.860       200
58.870       333
58.880       387
58.890       586
58.900       580
58.910       620
58.920       633
58.930       433
58.940       400
58.950       253
58.960       240
58.970       167
58.980       107
58.990       153
59.000       120
59.010       180
59.020       180
59.030       193
59.040       207
59.050       287
59.060       320
59.070       313
59.080       340
59.090       227
59.100       253
59.110       120
59.120        93
59.130        93
59.140        73
59.150        60
59.160        80
59.170        80
59.180       100
59.190        47
59.200        40
59.210        67
59.220        47
59.230        73
59.240        47
59.250        73
59.260        27
59.270        33
59.280        20
59.290        20
59.300        53
59.310        40
59.320        67
59.330        60
59.340        40
59.350        47
59.360        53
59.370        87
59.380        53
59.390        33
59.400        60
59.410        27
59.420        33
59.430        27
59.440        53
59.450        33
59.460        53
59.470        33
59.480        40
59.490        33
59.500        47
59.510        60
59.520        47
59.530        27
59.540        60
59.550        40
59.560        27
59.570        53
59.580        27
59.590        47
59.600        33
59.610        53
59.620        47
59.630        53
59.640        27
59.650        60
59.660        40
59.670        53
59.680        47
59.690        20
59.700        67
59.710        47
59.720        20
59.730        60
59.740        53
59.750        40
59.760        27
59.770        47
59.780        60
59.790        67
59.800        27
59.810        53
59.820        40
59.830        27
59.840        20
59.850        27
59.860        33
59.870        60
59.880        40
59.890        47
59.900        13
59.910        20
59.920        33
59.930        40
59.940        27
59.950        33
59.960        67
59.970        60
59.980        40
59.990        20
60.000        33
