20.000        40
20.020        53
20.040        40
20.060        17
20.080        43
20.100        50
20.120        37
20.140        17
20.160        53
20.180        30
20.200        23
20.220        37
20.240        43
20.260        20
20.280        33
20.300        53
20.320        40
20.340        33
20.360        33
20.380        47
20.400        40
20.420        23
20.440        37
20.460        47
20.480        40
20.500        27
20.520        10
20.540        33
20.560        23
20.580        37
20.600        17
20.620        27
20.640        47
20.660        40
20.680        53
20.700        40
20.720        43
20.740        37
20.760        27
20.780        43
20.800        47
20.820        40
20.840        17
20.860        47
20.880        33
20.900        40
20.920        40
20.940        23
20.960        40
20.980        40
21.000        33
21.020        50
21.040        17
21.060        50
21.080        27
21.100        30
21.120        47
21.140        43
21.160        37
21.180        27
21.200        23
21.220        43
21.240        57
21.260        43
21.280        40
21.300        53
21.320        53
21.340        17
21.360        40
21.380        50
21.400        27
21.420        33
21.440        50
21.460        20
21.480        43
21.500        27
21.520        50
21.540        37
21.560        40
21.580        60
21.600        33
21.620        43
21.640        37
21.660        27
21.680        23
21.700        37
21.720        27
21.740        27
21.760        40
21.780        43
21.800        37
21.820        23
21.840        40
21.860        30
21.880        20
21.900        17
21.920        33
21.940        23
21.960        20
21.980        30
22.000        33
22.020        17
22.040        40
22.060        27
22.080        33
22.100        40
22.120        27
22.140        37
22.160        47
22.180        27
22.200        30
22.220        27
22.240        40
22.260        23
22.280        37
22.300        23
22.320        33
22.340        37
22.360        40
22.380        17
22.400        50
22.420        20
22.440        27
22.460        27
22.480        40
22.500        50
22.520        47
22.540        43
22.560        30
22.580        30
22.600        43
22.620        37
22.640        37
22.660        37
22.680        43
22.700        23
22.720        63
22.740        30
22.760        40
22.780        30
22.800        47
22.820        27
22.840        37
22.860        50
22.880        17
22.900        10
22.920         7
22.940        27
22.960        27
22.980        23
23.000         7
23.020        53
23.040        37
23.060        17
23.080        40
23.100        33
23.120        20
23.140        57
23.160        37
23.180        30
23.200        30
23.220        40
23.240        20
23.260        50
23.280        13
23.300        23
23.320        50
23.340        37
23.360        43
23.380        20
23.400        40
23.420        37
23.440        27
23.460        27
23.480        33
23.500        53
23.520        67
23.540        20
23.560        40
23.580        40
23.600        43
23.620        57
23.640        30
23.660        30
23.680        37
23.700        33
23.720        43
23.740        10
23.760        27
23.780        33
23.800        37
23.820        17
23.840        23
23.860        23
23.880        20
23.900        17
23.920        17
23.940        37
23.960        20
23.980        13
24.000        40
24.020        23
24.040        23
24.060        23
24.080        30
24.100        20
24.120        23
24.140        33
24.160        43
24.180        23
24.200        30
24.220        23
24.240        30
24.260        23
24.280         7
24.300        20
24.320        17
24.340        30
24.360        33
24.380        40
24.400        13
24.420         7
24.440        20
24.460        43
24.480        27
24.500        23
24.520        23
24.540        27
24.560        27
24.580        40
24.600        27
24.620        23
24.640        20
24.660        43
24.680        27
24.700        37
24.720         7
24.740        27
24.760        20
24.780        33
24.800        30
24.820        33
24.840        17
24.860        57
24.880        13
24.900        27
24.920        40
24.940        40
24.960        20
24.980        20
25.000        37
25.020        40
25.040        30
25.060        40
25.080        27
25.100        17
25.120        50
25.140        30
25.160        30
25.180        43
25.200        33
25.220        27
25.240        20
25.260        27
25.280        30
25.300        37
25.320        27
25.340        33
25.360        30
25.380        33
25.400        23
25.420        17
25.440        30
25.460        20
25.480        37
25.500        57
25.520        43
25.540        23
25.560        70
25.580        37
25.600        40
25.620       103
25.640        57
25.660        67
25.680        77
25.700        60
25.720        57
25.740        53
25.760        80
25.780        27
25.800        23
25.820        27
25.840        37
25.860        27
25.880        27
25.900        47
25.920        53
25.940        20
25.960        23
25.980        23
26.000         7
26.020        47
26.040        27
26.060        33
26.080        23
26.100        17
26.120        27
26.140        27
26.160        30
26.180        13
26.200        30
26.220        23
26.240        17
26.260        23
26.280        27
26.300        27
26.320        23
26.340        20
26.360        17
26.380        33
26.400        23
26.420        40
26.440        17
26.460        23
26.480        33
26.500        20
26.520        33
26.540        23
26.560        23
26.580        30
26.600        33
26.620        27
26.640        13
26.660        40
26.680        20
26.700        37
26.720        30
26.740        33
26.760        17
26.780        30
26.800        20
26.820        17
26.840        17
26.860        17
26.880        30
26.900        20
26.920        37
26.940        23
26.960        20
26.980        20
27.000        27
27.020        13
27.040        20
27.060         7
27.080        27
27.100        27
27.120        17
27.140        37
27.160        33
27.180        20
27.200        27
27.220        30
27.240        23
27.260        17
27.280        33
27.300        13
27.320        37
27.340        27
27.360        17
27.380        27
27.400        37
27.420        23
27.440        30
27.460        27
27.480        27
27.500        27
27.520        13
27.540        17
27.560        27
27.580        33
27.600        30
27.620        20
27.640        10
27.660        20
27.680        13
27.700        20
27.720        37
27.740        13
27.760        30
27.780        37
27.800        33
27.820        10
27.840        17
27.860        17
27.880        27
27.900        27
27.920        23
27.940        17
27.960        20
27.980         7
28.000        23
28.020        17
28.040        40
28.060        17
28.080        10
28.100         7
28.120        13
28.140         0
28.160        17
28.180        17
28.200        30
28.220        33
28.240        17
28.260        30
28.280        20
28.300        17
28.320        30
28.340        27
28.360        10
28.380        13
28.400        13
28.420        27
28.440        27
28.460        10
28.480        23
28.500        33
28.520        10
28.540        40
28.560        13
28.580         7
28.600        20
28.620        17
28.640        13
28.660        10
28.680        20
28.700        27
28.720         7
28.740        20
28.760        20
28.780        33
28.800        30
28.820        17
28.840        33
28.860        27
28.880        23
28.900        27
28.920        33
28.940        23
28.960        10
28.980        30
29.000        17
29.020        27
29.040        10
29.060        13
29.080        33
29.100        37
29.120        17
29.140        23
29.160         7
29.180        27
29.200        20
29.220        27
29.240        33
29.260        30
29.280        27
29.300        23
29.320        23
29.340        40
29.360        33
29.380        27
29.400        23
29.420        10
29.440        40
29.460        23
29.480        30
29.500        20
29.520        17
29.540        23
29.560        27
29.580        27
29.600        20
29.620        20
29.640        20
29.660        20
29.680        20
29.700        20
29.720        10
29.740        33
29.760        20
29.780        17
29.800        20
29.820        30
29.840        30
29.860        17
29.880        23
29.900        20
29.920        23
29.940        20
29.960        10
29.980         7
30.000        17
30.020        23
30.040        20
30.060        20
30.080        10
30.100        30
30.120        13
30.140        13
30.160        23
30.180        13
30.200        23
30.220         3
30.240        17
30.260        30
30.280        30
30.300        23
30.320        23
30.340        13
30.360        33
30.380        17
30.400        30
30.420        17
30.440         7
30.460        17
30.480        13
30.500        27
30.520        13
30.540        17
30.560         7
30.580        27
30.600        17
30.620        13
30.640        20
30.660        30
30.680        13
30.700        20
30.720        30
30.740        10
30.760        23
30.780        13
30.800        20
30.820        23
30.840        10
30.860        27
30.880        17
30.900         7
30.920        17
30.940        27
30.960        43
30.980        13
31.000        20
31.020        13
31.040        13
31.060        23
31.080        10
31.100        23
31.120        17
31.140        17
31.160        13
31.180        33
31.200        17
31.220        17
31.240        10
31.260        20
31.280        17
31.300        20
31.320         7
31.340        20
31.360        13
31.380        17
31.400         7
31.420        13
31.440        10
31.460        13
31.480        20
31.500        20
31.520        30
31.540        43
31.560        17
31.580        17
31.600        13
31.620        17
31.640        20
31.660        20
31.680        10
31.700        17
31.720        17
31.740         7
31.760        17
31.780        13
31.800        27
31.820        23
31.840        10
31.860         7
31.880        10
31.900        23
31.920        23
31.940        13
31.960        13
31.980        17
32.000         7
32.020        23
32.040        27
32.060        20
32.080        13
32.100        27
32.120        13
32.140        13
32.160        20
32.180        20
32.200        20
32.220        17
32.240        17
32.260        10
32.280        17
32.300        23
32.320        10
32.340        13
32.360        27
32.380        13
32.400        17
32.420        13
32.440        30
32.460         7
32.480        10
32.500        10
32.520        13
32.540        17
32.560        23
32.580         3
32.600        17
32.620        20
32.640         7
32.660        53
32.680        17
32.700        17
32.720        33
32.740        17
32.760        20
32.780        23
32.800        27
32.820        13
32.840        23
32.860        17
32.880        37
32.900        10
32.920        23
32.940        17
32.960        30
32.980        33
33.000         3
33.020        23
33.040        23
33.060        20
33.080        17
33.100        23
33.120        13
33.140        10
33.160        33
33.180         7
33.200        13
33.220        17
33.240        10
33.260        17
33.280        10
33.300         7
33.320        20
33.340        17
33.360        10
33.380        30
33.400        13
33.420        23
33.440        17
33.460        10
33.480        23
33.500        13
33.520        30
33.540        10
33.560        20
33.580        17
33.600        13
33.620         3
33.640        10
33.660        20
33.680         0
33.700        13
33.720        40
33.740        13
33.760        10
33.780        13
33.800        13
33.820        10
33.840        20
33.860        20
33.880         3
33.900        17
33.920        17
33.940        13
33.960        20
33.980        17
34.000         7
34.020        17
34.040         3
34.060        30
34.080        13
34.100        13
34.120        17
34.140        20
34.160        10
34.180        20
34.200        17
34.220        20
34.240        17
34.260        27
34.280         7
34.300        17
34.320        30
34.340        17
34.360        20
34.380        20
34.400        10
34.420        17
34.440         7
34.460        13
34.480        10
34.500        17
34.520        20
34.540        13
34.560        13
34.580        17
34.600        17
34.620        10
34.640         7
34.660         3
34.680        37
34.700        17
34.720        13
34.740        30
34.760        13
34.780        10
34.800        17
34.820        30
34.840        17
34.860        10
34.880        13
34.900        33
34.920        17
34.940        13
34.960         3
34.980        13
35.000        10
35.020        10
35.040        20
35.060        20
35.080        10
35.100         3
35.120        13
35.140        10
35.160        13
35.180        17
35.200        20
35.220         7
35.240        23
35.260        17
35.280        33
35.300        10
35.320        17
35.340        10
35.360        27
35.380        30
35.400         7
35.420        10
35.440         7
35.460        13
35.480        17
35.500        27
35.520        13
35.540        17
35.560        13
35.580        17
35.600        27
35.620        23
35.640        20
35.660         7
35.680        30
35.700        23
35.720        20
35.740        37
35.760        17
35.780        13
35.800        23
35.820        23
35.840        27
35.860         7
35.880        17
35.900        27
35.920        30
35.940        17
35.960        57
35.980        33
36.000        27
36.020        33
36.040        37
36.060        20
36.080        20
36.100        40
36.120        37
36.140        37
36.160        30
36.180        40
36.200        40
36.220        43
36.240        43
36.260        60
36.280        57
36.300        70
36.320        60
36.340        70
36.360        73
36.380        67
36.400        67
36.420       103
36.440        80
36.460       123
36.480       117
36.500       167
36.520       167
36.540       150
36.560       223
36.580       223
36.600       223
36.620       287
36.640       280
36.660       267
36.680       257
36.700       330
36.720       327
36.740       300
36.760       347
36.780       400
36.800       377
36.820       293
36.840       420
36.860       320
36.880       363
36.900       297
36.920       300
36.940       337
36.960       297
36.980       253
37.000       220
37.020       227
37.040       247
37.060       220
37.080       190
37.100       180
37.120       147
37.140       160
37.160       167
37.180       103
37.200       107
37.220       103
37.240       107
37.260        93
37.280       100
37.300       107
37.320        70
37.340        63
37.360        60
37.380        63
37.400        87
37.420        53
37.440        67
37.460        80
37.480        77
37.500        37
37.520        47
37.540        40
37.560        23
37.580        53
37.600        40
37.620        33
37.640        43
37.660        63
37.680        30
37.700        47
37.720        60
37.740        20
37.760        30
37.780        33
37.800        27
37.820        53
37.840        30
37.860        30
37.880        23
37.900        27
37.920        40
37.940        20
37.960        20
37.980        27
38.000        27
38.020         7
38.040        30
38.060        27
38.080        37
38.100        23
38.120        27
38.140        23
38.160        17
38.180        23
38.200        30
38.220        20
38.240        23
38.260        17
38.280        20
38.300        20
38.320        20
38.340        33
38.360        17
38.380        37
38.400        17
38.420        20
38.440        23
38.460        27
38.480        20
38.500        33
38.520        30
38.540        13
38.560        17
38.580        33
38.600        27
38.620        23
38.640        13
38.660         3
38.680        37
38.700        27
38.720        13
38.740        27
38.760        23
38.780        13
38.800        37
38.820        20
38.840        23
38.860        27
38.880        33
38.900        27
38.920        27
38.940        10
38.960        20
38.980        20
39.000        23
39.020        23
39.040        27
39.060        37
39.080        27
39.100        10
39.120        20
39.140        23
39.160        33
39.180        13
39.200        10
39.220        20
39.240        17
39.260        27
39.280        10
39.300        17
39.320        17
39.340        10
39.360        33
39.380        17
39.400        23
39.420        23
39.440        20
39.460        10
39.480        27
39.500        23
39.520        20
39.540        23
39.560        27
39.580        17
39.600        37
39.620        23
39.640        37
39.660        23
39.680        17
39.700        23
39.720        13
39.740        17
39.760        13
39.780        17
39.800        17
39.820        30
39.840        20
39.860        40
39.880        23
39.900        23
39.920        27
39.940        17
39.960        17
39.980        27
40.000        17
40.020        23
40.040        23
40.060        13
40.080        13
40.100        23
40.120        27
40.140        23
40.160        13
40.180        13
40.200        13
40.220        20
40.240        17
40.260        30
40.280        20
40.300        10
40.320        23
40.340        23
40.360        20
40.380        20
40.400        37
40.420        17
40.440        27
40.460        27
40.480        23
40.500        43
40.520        30
40.540        27
40.560        30
40.580        20
40.600        23
40.620        13
40.640        13
40.660        10
40.680        13
40.700        23
40.720        23
40.740        20
40.760        17
40.780        20
40.800        13
40.820        10
40.840        20
40.860        17
40.880        10
40.900        13
40.920        17
40.940         3
40.960        37
40.980        33
41.000        23
41.020        27
41.040        20
41.060        47
41.080        10
41.100         7
41.120        27
41.140        33
41.160        13
41.180        23
41.200        23
41.220        30
41.240        23
41.260        23
41.280        20
41.300        20
41.320        27
41.340        17
41.360        20
41.380        13
41.400        20
41.420        53
41.440        17
41.460        17
41.480         7
41.500        17
41.520        10
41.540        10
41.560        23
41.580        17
41.600        27
41.620        23
41.640        23
41.660        27
41.680        20
41.700        20
41.720        17
41.740        33
41.760        33
41.780        20
41.800        30
41.820        10
41.840        23
41.860        20
41.880         7
41.900        23
41.920        27
41.940        33
41.960        20
41.980        20
42.000        20
42.020        27
42.040        23
42.060        23
42.080        10
42.100        30
42.120        20
42.140        20
42.160        33
42.180        23
42.200        27
42.220        30
42.240        27
42.260        20
42.280        30
42.300        13
42.320        20
42.340        30
42.360        27
42.380        30
42.400        40
42.420        13
42.440        33
42.460        27
42.480        27
42.500        33
42.520        27
42.540        30
42.560        23
42.580        30
42.600        13
42.620        30
42.640        20
42.660        43
42.680        23
42.700        20
42.720        33
42.740        17
42.760        30
42.780        27
42.800        47
42.820        23
42.840        23
42.860        30
42.880        17
42.900        17
42.920        37
42.940        17
42.960        30
42.980        30
43.000        20
43.020        33
43.040        20
43.060        17
43.080        33
43.100        10
43.120        23
43.140        30
43.160        30
43.180        33
43.200        37
43.220        20
43.240        23
43.260        23
43.280        20
43.300        20
43.320        47
43.340        17
43.360        43
43.380        10
43.400        17
43.420        33
43.440        23
43.460        33
43.480        20
43.500        23
43.520        37
43.540         7
43.560        20
43.580        27
43.600        23
43.620        20
43.640        23
43.660        13
43.680         7
43.700        13
43.720        23
43.740        30
43.760        33
43.780        17
43.800        37
43.820        33
43.840        17
43.860        23
43.880        17
43.900        20
43.920        30
43.940         7
43.960        30
43.980        20
44.000        23
44.020        17
44.040        20
44.060        30
44.080        13
44.100        10
44.120        17
44.140        20
44.160        40
44.180        27
44.200        30
44.220        13
44.240         7
44.260        17
44.280        17
44.300        33
44.320        30
44.340        27
44.360        37
44.380        17
44.400        27
44.420        33
44.440        23
44.460        20
44.480        13
44.500        13
44.520        27
44.540        17
44.560        13
44.580        23
44.600        20
44.620        20
44.640        23
44.660         7
44.680        37
44.700        30
44.720        23
44.740        13
44.760        20
44.780        17
44.800        23
44.820        20
44.840        13
44.860        27
44.880        17
44.900        27
44.920        33
44.940        13
44.960        20
44.980        27
45.000        13
45.020        17
45.040        37
45.060        23
45.080        30
45.100        37
45.120        27
45.140         3
45.160        13
45.180        20
45.200        27
45.220        17
45.240        27
45.260        30
45.280        23
45.300        30
45.320        30
45.340        23
45.360        33
45.380        30
45.400        33
45.420        27
45.440         3
45.460        13
45.480        27
45.500        40
45.520        13
45.540        37
45.560        27
45.580        17
45.600        23
45.620        20
45.640         7
45.660        27
45.680        13
45.700        30
45.720        23
45.740        20
45.760        17
45.780        23
45.800        17
45.820        43
45.840        33
45.860        27
45.880        27
45.900        23
45.920        17
45.940        27
45.960        37
45.980        47
46.000        23
46.020        33
46.040        17
46.060        17
46.080        37
46.100        33
46.120        13
46.140        40
46.160        20
46.180        20
46.200        17
46.220        20
46.240        30
46.260        23
46.280        43
46.300        17
46.320        17
46.340        17
46.360        17
46.380        40
46.400        43
46.420        20
46.440        30
46.460        33
46.480        17
46.500        20
46.520        23
46.540        23
46.560        27
46.580        37
46.600        40
46.620        17
46.640        20
46.660        20
46.680        37
46.700        33
46.720        40
46.740        17
46.760        40
46.780        37
46.800        40
46.820        33
46.840        30
46.860        43
46.880        40
46.900        57
46.920        37
46.940        37
46.960        33
46.980        57
47.000        33
47.020        40
47.040        57
47.060        47
47.080        40
47.100        43
47.120        73
47.140        63
47.160       143
47.180       240
47.200       380
47.220       500
47.240       410
47.260       307
47.280       203
47.300       140
47.320        87
47.340        60
47.360        57
47.380        53
47.400        63
47.420        43
47.440        60
47.460        27
47.480        17
47.500        23
47.520        37
47.540        40
47.560        27
47.580        33
47.600        30
47.620        30
47.640        50
47.660        37
47.680        10
47.700        27
47.720        23
47.740        17
47.760        30
47.780        27
47.800        10
47.820        23
47.840        37
47.860        40
47.880        20
47.900        17
47.920        37
47.940        20
47.960        27
47.980        27
48.000        20
48.020         7
48.040        23
48.060        33
48.080         7
48.100        13
48.120        20
48.140        13
48.160        30
48.180        30
48.200        13
48.220        23
48.240        50
48.260        37
48.280        13
48.300        33
48.320        17
48.340        27
48.360        23
48.380        33
48.400        27
48.420        23
48.440        37
48.460        40
48.480        27
48.500        30
48.520        20
48.540        33
48.560        40
48.580        27
48.600        27
48.620        27
48.640        33
48.660        33
48.680        33
48.700        27
48.720        30
48.740        27
48.760        33
48.780        40
48.800        20
48.820        20
48.840        33
48.860        40
48.880        23
48.900        37
48.920        23
48.940        30
48.960        30
48.980        17
49.000        27
49.020        20
49.040        27
49.060        20
49.080        37
49.100        27
49.120        30
49.140        17
49.160        33
49.180        33
49.200        13
49.220         7
49.240        13
49.260        30
49.280        27
49.300        37
49.320        23
49.340        23
49.360        37
49.380        33
49.400        27
49.420        30
49.440        33
49.460        30
49.480        33
49.500        40
49.520        23
49.540        37
49.560        30
49.580        37
49.600        33
49.620        20
49.640        40
49.660        30
49.680        40
49.700        30
49.720        23
49.740        20
49.760        23
49.780        30
49.800        27
49.820        33
49.840        20
49.860        27
49.880        43
49.900        17
49.920        27
49.940        23
49.960        23
49.980        47
50.000        17
50.020        20
50.040         7
50.060        10
50.080        23
50.100        37
50.120        23
50.140        17
50.160        43
50.180        40
50.200        23
50.220        27
50.240        23
50.260        57
50.280        33
50.300        50
50.320        37
50.340        23
50.360        20
50.380        33
50.400        23
50.420        30
50.440        20
50.460        17
50.480        23
50.500        30
50.520        40
50.540        33
50.560        50
50.580        20
50.600        40
50.620        27
50.640        13
50.660        43
50.680        53
50.700        97
50.720       133
50.740       157
50.760       160
50.780       133
50.800       180
50.820       160
50.840       153
50.860       133
50.880       133
50.900       167
50.920       187
50.940       110
50.960       137
50.980       127
51.000        90
51.020       103
51.040       187
51.060       147
51.080       137
51.100       113
51.120       150
51.140       143
51.160       163
51.180       113
51.200       167
51.220       140
51.240       117
51.260       167
51.280       123
51.300       183
51.320       137
51.340       140
51.360       197
51.380       150
51.400       147
51.420       120
51.440       113
51.460       177
51.480       127
51.500       140
51.520       123
51.540       163
51.560       167
51.580       153
51.600       150
51.620       127
51.640       180
51.660       143
51.680       163
51.700       173
51.720       133
51.740       173
51.760       133
51.780       150
51.800       173
51.820       207
51.840       130
51.860       217
51.880       160
51.900       213
51.920       187
51.940       163
51.960       167
51.980       183
52.000       173
52.020       230
52.040       223
52.060       213
52.080       217
52.100       233
52.120       240
52.140       190
52.160       263
52.180       250
52.200       287
52.220       333
52.240       293
52.260       360
52.280       373
52.300       500
52.320       646
52.340       813
52.360       886
52.380      1113
52.400      1146
52.420      1046
52.440      1120
52.460      1183
52.480      1516
52.500      2126
52.520      3165
52.540      5474
52.560     12322
52.580     35712
52.600     62812
52.620     70478
52.640     62418
52.660     35406
52.680     15347
52.700     13548
52.720     23711
52.740     36405
52.760     40384
52.780     34859
52.800     19562
52.820      7574
52.840      4385
52.860      3512
52.880      2859
52.900      2219
52.920      1616
52.940      1166
52.960       763
52.980       720
53.000       563
53.020       510
53.040       456
53.060       390
53.080       397
53.100       380
53.120       363
53.140       263
53.160       350
53.180       250
53.200       277
53.220       283
53.240       223
53.260       260
53.280       243
53.300       237
53.320       243
53.340       270
53.360       160
53.380       180
53.400       250
53.420       193
53.440       203
53.460       173
53.480       193
53.500       203
53.520       157
53.540       173
53.560       170
53.580       220
53.600       197
53.620       137
53.640       157
53.660       190
53.680       170
53.700       167
53.720       147
53.740       203
53.760       143
53.780       137
53.800       133
53.820       167
53.840       173
53.860       120
53.880       147
53.900        50
53.920       133
53.940       190
53.960       183
53.980       120
54.000       147
54.020       150
54.040       143
54.060       140
54.080       110
54.100       127
54.120       110
54.140       170
54.160       147
54.180       130
54.200       107
54.220       110
54.240       133
54.260       107
54.280        80
54.300        83
54.320       150
54.340       113
54.360       103
54.380       110
54.400       113
54.420       103
54.440       103
54.460       107
54.480        83
54.500        97
54.520       137
54.540        73
54.560        93
54.580       133
54.600       117
54.620       123
54.640       120
54.660        77
54.680       103
54.700       113
54.720        93
54.740        73
54.760        93
54.780       100
54.800       130
54.820       100
54.840       100
54.860        83
54.880       103
54.900        97
54.920       143
54.940        87
54.960       133
54.980        97
55.000        97
55.020        93
55.040        77
55.060        97
55.080        93
55.100       113
55.120        97
55.140       117
55.160        93
55.180       113
55.200       123
55.220       107
55.240       113
55.260        83
55.280        83
55.300        87
55.320       117
55.340        77
55.360       107
55.380        83
55.400        87
55.420        93
55.440       107
55.460       120
55.480       103
55.500       103
55.520        70
55.540        83
55.560        67
55.580       113
55.600        97
55.620        73
55.640        87
55.660        87
55.680        77
55.700       100
55.720       153
55.740        77
55.760        97
55.780       117
55.800       123
55.820        77
55.840       107
55.860       107
55.880        80
55.900        73
55.920        83
55.940        77
55.960        57
55.980        60
56.000        77
56.020       107
56.040        90
56.060        93
56.080       103
56.100       110
56.120        67
56.140       110
56.160        53
56.180       103
56.200        93
56.220        63
56.240        87
56.260        73
56.280        93
56.300        53
56.320        73
56.340       113
56.360        67
56.380       123
56.400        80
56.420        60
56.440       120
56.460        80
56.480        77
56.500        53
56.520       127
56.540        93
56.560       110
56.580        70
56.600        97
56.620        80
56.640        70
56.660       110
56.680        87
56.700        47
56.720        80
56.740        90
56.760        77
56.780        93
56.800        43
56.820       100
56.840        53
56.860       100
56.880        60
56.900        77
56.920        70
56.940       100
56.960        77
56.980        73
57.000       130
57.020        90
57.040        73
57.060        70
57.080        60
57.100        73
57.120        73
57.140        70
57.160        60
57.180        80
57.200        63
57.220        83
57.240        60
57.260        67
57.280        53
57.300        87
57.320       100
57.340        83
57.360        77
57.380        73
57.400        77
57.420        67
57.440        80
57.460       117
57.480        60
57.500        80
57.520       107
57.540        97
57.560        83
57.580        70
57.600        70
57.620        97
57.640        70
57.660        80
57.680        77
57.700        73
57.720        63
57.740        53
57.760        90
57.780        83
57.800        80
57.820        83
57.840        70
57.860        53
57.880        93
57.900        57
57.920        57
57.940        77
57.960        67
57.980        73
58.000        50
58.020        70
58.040        37
58.060        70
58.080        93
58.100        73
58.120        60
58.140        87
58.160        73
58.180        80
58.200        83
58.220        77
58.240        73
58.260        47
58.280        63
58.300        37
58.320        57
58.340        57
58.360        53
58.380        53
58.400       107
58.420        67
58.440        60
58.460        77
58.480        60
58.500        53
58.520        57
58.540        63
58.560       103
58.580        53
58.600        80
58.620        70
58.640        77
58.660        57
58.680        70
58.700        73
58.720        70
58.740        83
58.760        53
58.780        73
58.800        77
58.820        67
58.840        57
58.860        93
58.880        53
58.900        70
58.920        57
58.940        63
58.960        53
58.980        37
59.000        67
59.020        53
59.040        47
59.060        80
59.080        67
59.100        53
59.120        57
59.140        67
59.160        37
59.180        70
59.200        70
59.220        47
59.240        73
59.260        40
59.280        63
59.300        57
59.320        57
59.340        63
59.360        93
59.380        53
59.400        60
59.420        53
59.440        93
59.460        53
59.480        53
59.500        70
59.520        70
59.540        70
59.560        57
59.580        40
59.600        53
59.620        63
59.640        73
59.660        73
59.680        50
59.700        57
59.720        43
59.740        93
59.760        47
59.780        57
59.800        70
59.820        63
59.840        50
59.860        90
59.880        63
59.900        53
59.920        60
59.940        43
59.960        73
59.980         0
60.000         0
