20.000        37
20.020        43
20.040        63
20.060        27
20.080        40
20.100        30
20.120        50
20.140        63
20.160        50
20.180        53
20.200        40
20.220        50
20.240        43
20.260        47
20.280        37
20.300        40
20.320        60
20.340        60
20.360        63
20.380        57
20.400        43
20.420        57
20.440        27
20.460        77
20.480        40
20.500        50
20.520        40
20.540        50
20.560        33
20.580        30
20.600        47
20.620        40
20.640        50
20.660        77
20.680        47
20.700        33
20.720        60
20.740        53
20.760        33
20.780        50
20.800        27
20.820        63
20.840        30
20.860        33
20.880        40
20.900        37
20.920        53
20.940        37
20.960        50
20.980        47
21.000        60
21.020        57
21.040        53
21.060        93
21.080        57
21.100        90
21.120        70
21.140        60
21.160       110
21.180        83
21.200        83
21.220       117
21.240       107
21.260       153
21.280       140
21.300       117
21.320        90
21.340       163
21.360       153
21.380       180
21.400       123
21.420       127
21.440       157
21.460       163
21.480       173
21.500       183
21.520       170
21.540       167
21.560       113
21.580       147
21.600       157
21.620       127
21.640        87
21.660        97
21.680        73
21.700        70
21.720       100
21.740        50
21.760        80
21.780        70
21.800        60
21.820        40
21.840        57
21.860        80
21.880        53
21.900        60
21.920        37
21.940        43
21.960        40
21.980        53
22.000        53
22.020        47
22.040        47
22.060        47
22.080        33
22.100        53
22.120        27
22.140        43
22.160        50
22.180        50
22.200        30
22.220        33
22.240        43
22.260        43
22.280        23
22.300        50
22.320        53
22.340        37
22.360        40
22.380        40
22.400        27
22.420        30
22.440        43
22.460        40
22.480        53
22.500        43
22.520        27
22.540        33
22.560        50
22.580        40
22.600        37
22.620        33
22.640        53
22.660        40
22.680        37
22.700        30
22.720        53
22.740        27
22.760        47
22.780        33
22.800        47
22.820        50
22.840        50
22.860        17
22.880        30
22.900        40
22.920        23
22.940        23
22.960        27
22.980        43
23.000        30
23.020        40
23.040        63
23.060        27
23.080        30
23.100        43
23.120        40
23.140        33
23.160        33
23.180        43
23.200        37
23.220        40
23.240        47
23.260        33
23.280        30
23.300        13
23.320        23
23.340        37
23.360        30
23.380        23
23.400        23
23.420        43
23.440        47
23.460        27
23.480        23
23.500        37
23.520        10
23.540        43
23.560        40
23.580        30
23.600        20
23.620        37
23.640        27
23.660        27
23.680        37
23.700        40
23.720        47
23.740        40
23.760        43
23.780        40
23.800        37
23.820        27
23.840        40
23.860        30
23.880        40
23.900        23
23.920        40
23.940        43
23.960        30
23.980        23
24.000        37
24.020        30
24.040        33
24.060        33
24.080        47
24.100        30
24.120        30
24.140        43
24.160        37
24.180        27
24.200        27
24.220        37
24.240        23
24.260        33
24.280        23
24.300        33
24.320        40
24.340        20
24.360        23
24.380        30
24.400        43
24.420        37
24.440        40
24.460        30
24.480        23
24.500        50
24.520        27
24.540        33
24.560        47
24.580        47
24.600        40
24.620        30
24.640        37
24.660        50
24.680        30
24.700        43
24.720        33
24.740        63
24.760        90
24.780        53
24.800        63
24.820        60
24.840        77
24.860        90
24.880        73
24.900       103
24.920        50
24.940        43
24.960        50
24.980        47
25.000        60
25.020        37
25.040        47
25.060        47
25.080        60
25.100        27
25.120        37
25.140        50
25.160        50
25.180        37
25.200         3
25.220        37
25.240        20
25.260        37
25.280        47
25.300        23
25.320        37
25.340        23
25.360        30
25.380        27
25.400        13
25.420        20
25.440        17
25.460        10
25.480        23
25.500        33
25.520        20
25.540        33
25.560        20
25.580        33
25.600        20
25.620        30
25.640        37
25.660        33
25.680        30
25.700        33
25.720        30
25.740        27
25.760        17
25.780        23
25.800        53
25.820        47
25.840        27
25.860        40
25.880        27
25.900        37
25.920        30
25.940        40
25.960        27
25.980        30
26.000        30
26.020        33
26.040        20
26.060        13
26.080        33
26.100        23
26.120        40
26.140        20
26.160        27
26.180        20
26.200        23
26.220        40
26.240        27
26.260        20
26.280        37
26.300        40
26.320        40
26.340        33
26.360        53
26.380        40
26.400        40
26.420        33
26.440        37
26.460        23
26.480        27
26.500        30
26.520        27
26.540        27
26.560        57
26.580        30
26.600        37
26.620        47
26.640        90
26.660        50
26.680        67
26.700        57
26.720        60
26.740        33
26.760        43
26.780        53
26.800        37
26.820        17
26.840        20
26.860        43
26.880        23
26.900        23
26.920        43
26.940        20
26.960        37
26.980        23
27.000        20
27.020        33
27.040        27
27.060        33
27.080        33
27.100        27
27.120        40
27.140        10
27.160        30
27.180        33
27.200        33
27.220        23
27.240        23
27.260        13
27.280        27
27.300        23
27.320        23
27.340        23
27.360        17
27.380        40
27.400        20
27.420        37
27.440        47
27.460        30
27.480        23
27.500        20
27.520        33
27.540        27
27.560        47
27.580         3
27.600        23
27.620        23
27.640        27
27.660        67
27.680        13
27.700        27
27.720        23
27.740        27
27.760        27
27.780        20
27.800        17
27.820        27
27.840        27
27.860        33
27.880        27
27.900        37
27.920        27
27.940        23
27.960        60
27.980        33
28.000        30
28.020        30
28.040        47
28.060        43
28.080        30
28.100        17
28.120        33
28.140        23
28.160        27
28.180        13
28.200        13
28.220        40
28.240        17
28.260        60
28.280        43
28.300        40
28.320        13
28.340        40
28.360        33
28.380        67
28.400        33
28.420        23
28.440        33
28.460        40
28.480        30
28.500        40
28.520        23
28.540        43
28.560        57
28.580        40
28.600        37
28.620        43
28.640        50
28.660        57
28.680        43
28.700        43
28.720        47
28.740        53
28.760        50
28.780        57
28.800        27
28.820        63
28.840        83
28.860        60
28.880       110
28.900        93
28.920       110
28.940        63
28.960        73
28.980        80
29.000        77
29.020        83
29.040       100
29.060       127
29.080        73
29.100        80
29.120       133
29.140       127
29.160        93
29.180        97
29.200       143
29.220       137
29.240       107
29.260       143
29.280       143
29.300       127
29.320       140
29.340       133
29.360       143
29.380       120
29.400       190
29.420       107
29.440       137
29.460       137
29.480       107
29.500        73
29.520        93
29.540        93
29.560        53
29.580        47
29.600        50
29.620        60
29.640        33
29.660        40
29.680        33
29.700        37
29.720        43
29.740        20
29.760        40
29.780        37
29.800        20
29.820        57
29.840        37
29.860        20
29.880        33
29.900        23
29.920        20
29.940        17
29.960        13
29.980        17
30.000        20
30.020        33
30.040        10
30.060        20
30.080        50
30.100        20
30.120        50
30.140        27
30.160        43
30.180        33
30.200        17
30.220        37
30.240        23
30.260        10
30.280        13
30.300        23
30.320        23
30.340        33
30.360        20
30.380        30
30.400        13
30.420        17
30.440        23
30.460        27
30.480        17
30.500        20
30.520        40
30.540        40
30.560        17
30.580        23
30.600        20
30.620        20
30.640        13
30.660        17
30.680        13
30.700        20
30.720        20
30.740        20
30.760        17
30.780        23
30.800        27
30.820        23
30.840        27
30.860        20
30.880        27
30.900        17
30.920        13
30.940        17
30.960        20
30.980        27
31.000        43
31.020        30
31.040        20
31.060        23
31.080        17
31.100        17
31.120        10
31.140        37
31.160        43
31.180        23
31.200        23
31.220        10
31.240        30
31.260        30
31.280        13
31.300        20
31.320        27
31.340        33
31.360        23
31.380        13
31.400        27
31.420        23
31.440        27
31.460        20
31.480        17
31.500        20
31.520        23
31.540        27
31.560        13
31.580        20
31.600        27
31.620        13
31.640        20
31.660        13
31.680        17
31.700        20
31.720        23
31.740        20
31.760        20
31.780        20
31.800        10
31.820        17
31.840        30
31.860        27
31.880        20
31.900        23
31.920        13
31.940        27
31.960        20
31.980        13
32.000        30
32.020        20
32.040        10
32.060        20
32.080        13
32.100        10
32.120        37
32.140        33
32.160        20
32.180        23
32.200        37
32.220        40
32.240        17
32.260        10
32.280        17
32.300        53
32.320        13
32.340        37
32.360        13
32.380        27
32.400         3
32.420        30
32.440        20
32.460        23
32.480        30
32.500        20
32.520        17
32.540        17
32.560        10
32.580        20
32.600        10
32.620        20
32.640        23
32.660        27
32.680         3
32.700        13
32.720        17
32.740        20
32.760        13
32.780        20
32.800        17
32.820        23
32.840        23
32.860        20
32.880        23
32.900        17
32.920        17
32.940        27
32.960        33
32.980        23
33.000        27
33.020        10
33.040        20
33.060        20
33.080         7
33.100        13
33.120        43
33.140        10
33.160        17
33.180        17
33.200        17
33.220        30
33.240        20
33.260        13
33.280         7
33.300        13
33.320        17
33.340        17
33.360        13
33.380        10
33.400        13
33.420        13
33.440        17
33.460        17
33.480        17
33.500        37
33.520        20
33.540        27
33.560        17
33.580        10
33.600        10
33.620         3
33.640        20
33.660        17
33.680        23
33.700        17
33.720         3
33.740        17
33.760        27
33.780        17
33.800        17
33.820        10
33.840        13
33.860        17
33.880        10
33.900        30
33.920        20
33.940         7
33.960         7
33.980         7
34.000         3
34.020        30
34.040        20
34.060        13
34.080        17
34.100        20
34.120        10
34.140        13
34.160        23
34.180        10
34.200         7
34.220        13
34.240        10
34.260         7
34.280        17
34.300        30
34.320         7
34.340        23
34.360        13
34.380         7
34.400        17
34.420        13
34.440        27
34.460        23
34.480        10
34.500        30
34.520        20
34.540        17
34.560        13
34.580         3
34.600        20
34.620        20
34.640        10
34.660        13
34.680        20
34.700        10
34.720        33
34.740        17
34.760        17
34.780        13
34.800        40
34.820        17
34.840        33
34.860        20
34.880        27
34.900        17
34.920        10
34.940        23
34.960        10
34.980        30
35.000        20
35.020        17
35.040        23
35.060        30
35.080         7
35.100        30
35.120        20
35.140        13
35.160        20
35.180        30
35.200        20
35.220        33
35.240        17
35.260         7
35.280        30
35.300        23
35.320        30
35.340        17
35.360        20
35.380        10
35.400        20
35.420        23
35.440        33
35.460        20
35.480        33
35.500        33
35.520        20
35.540         7
35.560        17
35.580        20
35.600        13
35.620        30
35.640        17
35.660        33
35.680        30
35.700        30
35.720        27
35.740        30
35.760        27
35.780        40
35.800        30
35.820        33
35.840        13
35.860        37
35.880        37
35.900        33
35.920        17
35.940        17
35.960        40
35.980        43
36.000        57
36.020        27
36.040        23
36.060        30
36.080        20
36.100        27
36.120        20
36.140        10
36.160        20
36.180        13
36.200        17
36.220        17
36.240        30
36.260        30
36.280        20
36.300        23
36.320         3
36.340        13
36.360        17
36.380        20
36.400        10
36.420        20
36.440        13
36.460        13
36.480        20
36.500        13
36.520         0
36.540        10
36.560        23
36.580        10
36.600        13
36.620        13
36.640        17
36.660         3
36.680         3
36.700        20
36.720        30
36.740        17
36.760        20
36.780        17
36.800        10
36.820        13
36.840        20
36.860        20
36.880        27
36.900        13
36.920        17
36.940        23
36.960        20
36.980        10
37.000         7
37.020        20
37.040        17
37.060         7
37.080        20
37.100        13
37.120        13
37.140        20
37.160        23
37.180        10
37.200        20
37.220         7
37.240        17
37.260        17
37.280        27
37.300        10
37.320        33
37.340        13
37.360        20
37.380        17
37.400        20
37.420        23
37.440        17
37.460        20
37.480         7
37.500        13
37.520        20
37.540        17
37.560        30
37.580        27
37.600        17
37.620        13
37.640        23
37.660        17
37.680        33
37.700        23
37.720        37
37.740        20
37.760        17
37.780        10
37.800        17
37.820        27
37.840        23
37.860        17
37.880        17
37.900        27
37.920        13
37.940        17
37.960        17
37.980        10
38.000        20
38.020        23
38.040        33
38.060        27
38.080        23
38.100        23
38.120        30
38.140        10
38.160        17
38.180        17
38.200         7
38.220        23
38.240        30
38.260        30
38.280        23
38.300        10
38.320        30
38.340        23
38.360        30
38.380        30
38.400         3
38.420        33
38.440        20
38.460        23
38.480        33
38.500        23
38.520        17
38.540        10
38.560        23
38.580        23
38.600        20
38.620        20
38.640        23
38.660        10
38.680        30
38.700        27
38.720        17
38.740        23
38.760        23
38.780        17
38.800        17
38.820        20
38.840        27
38.860        37
38.880        20
38.900        23
38.920        40
38.940        17
38.960        33
38.980        23
39.000        17
39.020        20
39.040        30
39.060        33
39.080        10
39.100        13
39.120        30
39.140        17
39.160        27
39.180        30
39.200        27
39.220        33
39.240        37
39.260        23
39.280        20
39.300        40
39.320        30
39.340        60
39.360        50
39.380        53
39.400        40
39.420        20
39.440        50
39.460        50
39.480        30
39.500        40
39.520        43
39.540        27
39.560        20
39.580        27
39.600        17
39.620        17
39.640        17
39.660        20
39.680        10
39.700        23
39.720        13
39.740        27
39.760        17
39.780        10
39.800        27
39.820         7
39.840        10
39.860        10
39.880         7
39.900        20
39.920         3
39.940        20
39.960        13
39.980        27
40.000        27
40.020        23
40.040         3
40.060        27
40.080        17
40.100        13
40.120        20
40.140        17
40.160        13
40.180        23
40.200        17
40.220        10
40.240        23
40.260        10
40.280        10
40.300        23
40.320        13
40.340        27
40.360         7
40.380         7
40.400        17
40.420        23
40.440         7
40.460        27
40.480        10
40.500        10
40.520        10
40.540        20
40.560        17
40.580        27
40.600        23
40.620         3
40.640        10
40.660        10
40.680        13
40.700        27
40.720        17
40.740        13
40.760        10
40.780        17
40.800        10
40.820        20
40.840        13
40.860        17
40.880        13
40.900        17
40.920        20
40.940        13
40.960        27
40.980        33
41.000        10
41.020        23
41.040        17
41.060        13
41.080        20
41.100        33
41.120        17
41.140        27
41.160        17
41.180         7
41.200        23
41.220        13
41.240        10
41.260        27
41.280        33
41.300        17
41.320        17
41.340        23
41.360        13
41.380         7
41.400        13
41.420         3
41.440        17
41.460        27
41.480        17
41.500        23
41.520        13
41.540         7
41.560        10
41.580        17
41.600        17
41.620        10
41.640        13
41.660        10
41.680        13
41.700        17
41.720        13
41.740         3
41.760        20
41.780        37
41.800        10
41.820        17
41.840        27
41.860        20
41.880        20
41.900        17
41.920         7
41.940        40
41.960        10
41.980        13
42.000        27
42.020        33
42.040        10
42.060        20
42.080        13
42.100        17
42.120        10
42.140        23
42.160        13
42.180        13
42.200        13
42.220        17
42.240        30
42.260         7
42.280        10
42.300         7
42.320        43
42.340        23
42.360        43
42.380        50
42.400        20
42.420        27
42.440        27
42.460        17
42.480        17
42.500        40
42.520        20
42.540        23
42.560        27
42.580        37
42.600        23
42.620         7
42.640        23
42.660        20
42.680        17
42.700        30
42.720        30
42.740         7
42.760        30
42.780        37
42.800        20
42.820        23
42.840        27
42.860        23
42.880        27
42.900        30
42.920        23
42.940        23
42.960        30
42.980        27
43.000        37
43.020        23
43.040        37
43.060        27
43.080        43
43.100        40
43.120        30
43.140        33
43.160        47
43.180        37
43.200        40
43.220        40
43.240        33
43.260        37
43.280        33
43.300        27
43.320        43
43.340        20
43.360        27
43.380        10
43.400        27
43.420        33
43.440        33
43.460        47
43.480        27
43.500        27
43.520        33
43.540        50
43.560        30
43.580        20
43.600        40
43.620        53
43.640        43
43.660        23
43.680        23
43.700        40
43.720        50
43.740        27
43.760        40
43.780        50
43.800        37
43.820        63
43.840        37
43.860        50
43.880        37
43.900        57
43.920        33
43.940        60
43.960        60
43.980        57
44.000        60
44.020        47
44.040        70
44.060        73
44.080        73
44.100        47
44.120        63
44.140        67
44.160        47
44.180        73
44.200        80
44.220        87
44.240        77
44.260       117
44.280        83
44.300        50
44.320        87
44.340        73
44.360        60
44.380        93
44.400        73
44.420        67
44.440        43
44.460        73
44.480        63
44.500        90
44.520        53
44.540        33
44.560        70
44.580        70
44.600        47
44.620        40
44.640        57
44.660        50
44.680        50
44.700        60
44.720        43
44.740        40
44.760        43
44.780        17
44.800        53
44.820        33
44.840        53
44.860        40
44.880        13
44.900        20
44.920        47
44.940        43
44.960        33
44.980        20
45.000        47
45.020        60
45.040        20
45.060        23
45.080        10
45.100        23
45.120        30
45.140        20
45.160        27
45.180        13
45.200        17
45.220        30
45.240        27
45.260        17
45.280        37
45.300        27
45.320        30
45.340        20
45.360        30
45.380        33
45.400        17
45.420        20
45.440        10
45.460        23
45.480        20
45.500        23
45.520        27
45.540        33
45.560        27
45.580        30
45.600        27
45.620        30
45.640        13
45.660        20
45.680        33
45.700        27
45.720        17
45.740        33
45.760        27
45.780        17
45.800        23
45.820        30
45.840        17
45.860        20
45.880        30
45.900        23
45.920        27
45.940        20
45.960        23
45.980         3
46.000        17
46.020         7
46.040        17
46.060        30
46.080        30
46.100        13
46.120        17
46.140        17
46.160        17
46.180        13
46.200        13
46.220        10
46.240        20
46.260        17
46.280         0
46.300        23
46.320        23
46.340        13
46.360        13
46.380        10
46.400        13
46.420        13
46.440        10
46.460        13
46.480        10
46.500        30
46.520        17
46.540        20
46.560        20
46.580        33
46.600        13
46.620        10
46.640        20
46.660        13
46.680        27
46.700         7
46.720        13
46.740        17
46.760         3
46.780        37
46.800        27
46.820        80
46.840        30
46.860        17
46.880        20
46.900        17
46.920        23
46.940        23
46.960        10
46.980        17
47.000        17
47.020        13
47.040        47
47.060         7
47.080        40
47.100        17
47.120        47
47.140        30
47.160        17
47.180        23
47.200        20
47.220        33
47.240        33
47.260        17
47.280        23
47.300        27
47.320        30
47.340        40
47.360        30
47.380        33
47.400        50
47.420        70
47.440        30
47.460        50
47.480        53
47.500        33
47.520        53
47.540        27
47.560        37
47.580        53
47.600        43
47.620        33
47.640        37
47.660        37
47.680        47
47.700        13
47.720        30
47.740        13
47.760        17
47.780        13
47.800        13
47.820        17
47.840        23
47.860        20
47.880        20
47.900        40
47.920        10
47.940        20
47.960        17
47.980        10
48.000        10
48.020        20
48.040        20
48.060        33
48.080         7
48.100         7
48.120        20
48.140        20
48.160        27
48.180        20
48.200        23
48.220        23
48.240        27
48.260        20
48.280        37
48.300        20
48.320        20
48.340        23
48.360        30
48.380        33
48.400        33
48.420        30
48.440        47
48.460        50
48.480        37
48.500        40
48.520        70
48.540        27
48.560        33
48.580        60
48.600        47
48.620        37
48.640        27
48.660        23
48.680        20
48.700        37
48.720        20
48.740        27
48.760        27
48.780        13
48.800        33
48.820        33
48.840        23
48.860        17
48.880        10
48.900        30
48.920        10
48.940         7
48.960        13
48.980        23
49.000        13
49.020        13
49.040        13
49.060        20
49.080        27
49.100        13
49.120        20
49.140        13
49.160        20
49.180        20
49.200        13
49.220        40
49.240        30
49.260        20
49.280        10
49.300        27
49.320        17
49.340        20
49.360        10
49.380        17
49.400         0
49.420        17
49.440        13
49.460        20
49.480        13
49.500        13
49.520        10
49.540         7
49.560        10
49.580        10
49.600        13
49.620        40
49.640        10
49.660        13
49.680         7
49.700        13
49.720        10
49.740        10
49.760        17
49.780        10
49.800        17
49.820        20
49.840        13
49.860        37
49.880        13
49.900        20
49.920         7
49.940         0
49.960        10
49.980        13
50.000        20
50.020        13
50.040        23
50.060        20
50.080        20
50.100        17
50.120        13
50.140        20
50.160         3
50.180         3
50.200        17
50.220        17
50.240        13
50.260        33
50.280        10
50.300        20
50.320        27
50.340         7
50.360        17
50.380        20
50.400        20
50.420         7
50.440        10
50.460        17
50.480        23
50.500        17
50.520        27
50.540        10
50.560         7
50.580        27
50.600        17
50.620        10
50.640        10
50.660        23
50.680        10
50.700         7
50.720        13
50.740         3
50.760         7
50.780        17
50.800        20
50.820        13
50.840        20
50.860        23
50.880        30
50.900         3
50.920        17
50.940        13
50.960        17
50.980        20
51.000        10
51.020        20
51.040        13
51.060        20
51.080        23
51.100        17
51.120        20
51.140        20
51.160        27
51.180         7
51.200        23
51.220        13
51.240        13
51.260        17
51.280        17
51.300        10
51.320        13
51.340        20
51.360        17
51.380         7
51.400        10
51.420        10
51.440        17
51.460        13
51.480         7
51.500        13
51.520        17
51.540        20
51.560        17
51.580        13
51.600        17
51.620        13
51.640        27
51.660        13
51.680         3
51.700        23
51.720        23
51.740        13
51.760        10
51.780        17
51.800        20
51.820        23
51.840         7
51.860        13
51.880         7
51.900        30
51.920        20
51.940        10
51.960        10
51.980        10
52.000        17
52.020        13
52.040        17
52.060        13
52.080        17
52.100        13
52.120        17
52.140        20
52.160        10
52.180        20
52.200        27
52.220        13
52.240        10
52.260         0
52.280        23
52.300        13
52.320        17
52.340        30
52.360         7
52.380        13
52.400        20
52.420        20
52.440         7
52.460         7
52.480        23
52.500        10
52.520         7
52.540        17
52.560        17
52.580        20
52.600        13
52.620        13
52.640        17
52.660         3
52.680        10
52.700        13
52.720        17
52.740        10
52.760        17
52.780        27
52.800         7
52.820        10
52.840        10
52.860         3
52.880        13
52.900        17
52.920        17
52.940         3
52.960         3
52.980        10
53.000        13
53.020        20
53.040        20
53.060        17
53.080        13
53.100        20
53.120        13
53.140        30
53.160        10
53.180         3
53.200        23
53.220         3
53.240        17
53.260        13
53.280        13
53.300        13
53.320        17
53.340        10
53.360        10
53.380        17
53.400         3
53.420         7
53.440        17
53.460         0
53.480        20
53.500         3
53.520        10
53.540         0
53.560        23
53.580        13
53.600         7
53.620        17
53.640         7
53.660        17
53.680         7
53.700        10
53.720        23
53.740        20
53.760        20
53.780         3
53.800        17
53.820        10
53.840         3
53.860        13
53.880         7
53.900         3
53.920         7
53.940        13
53.960        23
53.980        10
54.000        10
54.020        20
54.040        10
54.060        13
54.080        20
54.100         7
54.120        10
54.140        10
54.160        10
54.180        13
54.200         7
54.220        17
54.240        13
54.260        20
54.280        10
54.300        20
54.320         7
54.340        23
54.360        10
54.380        10
54.400        23
54.420        37
54.440         3
54.460        17
54.480        17
54.500        23
54.520        17
54.540        17
54.560        13
54.580        13
54.600        20
54.620        37
54.640        27
54.660        10
54.680        10
54.700        10
54.720        23
54.740        20
54.760        20
54.780        20
54.800        10
54.820        27
54.840         7
54.860        27
54.880        17
54.900        10
54.920        17
54.940        13
54.960        27
54.980        13
55.000        17
55.020        23
55.040        27
55.060        13
55.080        10
55.100        27
55.120        10
55.140        23
55.160        30
55.180        20
55.200        40
55.220        20
55.240         7
55.260        23
55.280        30
55.300        23
55.320        20
55.340        27
55.360        23
55.380        10
55.400        20
55.420        23
55.440        13
55.460        17
55.480         0
55.500        13
55.520        20
55.540        20
55.560        20
55.580        13
55.600         7
55.620        13
55.640        13
55.660        27
55.680        20
55.700        10
55.720        40
55.740        10
55.760         7
55.780        13
55.800        23
55.820        10
55.840        30
55.860        13
55.880        10
55.900        10
55.920        10
55.940        13
55.960        10
55.980        10
56.000        27
56.020         7
56.040        17
56.060         7
56.080        13
56.100        20
56.120        33
56.140        13
56.160         7
56.180        20
56.200        37
56.220        30
56.240        13
56.260        30
56.280        13
56.300        20
56.320        20
56.340         7
56.360        13
56.380        27
56.400        13
56.420        17
56.440         3
56.460        17
56.480        10
56.500        17
56.520        10
56.540         7
56.560        17
56.580        17
56.600        20
56.620        13
56.640        17
56.660        20
56.680        27
56.700        13
56.720        23
56.740        13
56.760        20
56.780        13
56.800        23
56.820         7
56.840        20
56.860        47
56.880         3
56.900        23
56.920        10
56.940        23
56.960         7
56.980        23
57.000        10
57.020         7
57.040        30
57.060        33
57.080        17
57.100        20
57.120        13
57.140        10
57.160         7
57.180         7
57.200        10
57.220        20
57.240        20
57.260        13
57.280        23
57.300        33
57.320        17
57.340        33
57.360        30
57.380        30
57.400        23
57.420        27
57.440        17
57.460        30
57.480        27
57.500        13
57.520        10
57.540        17
57.560        33
57.580        17
57.600        13
57.620        13
57.640        13
57.660        33
57.680        17
57.700        23
57.720        17
57.740        23
57.760        13
57.780        13
57.800        13
57.820        20
57.840        17
57.860        20
57.880        13
57.900        17
57.920        13
57.940         3
57.960        17
57.980        30
58.000        13
58.020        10
58.040        10
58.060        20
58.080        17
58.100        13
58.120        20
58.140        20
58.160        10
58.180        13
58.200        13
58.220        27
58.240        10
58.260         3
58.280        20
58.300        20
58.320        13
58.340        30
58.360        27
58.380        13
58.400        17
58.420        17
58.440         7
58.460         7
58.480        13
58.500         7
58.520        20
58.540        20
58.560        20
58.580        17
58.600        23
58.620        13
58.640        13
58.660        10
58.680        10
58.700        13
58.720        17
58.740        13
58.760        10
58.780        10
58.800        13
58.820        33
58.840         7
58.860        27
58.880         3
58.900        13
58.920        17
58.940        13
58.960        17
58.980        20
59.000         7
59.020        23
59.040         0
59.060        17
59.080        13
59.100        13
59.120         7
59.140        10
59.160        13
59.180         3
59.200         3
59.220        13
59.240        10
59.260        13
59.280        23
59.300        30
59.320        10
59.340        17
59.360        27
59.380        23
59.400         7
59.420        17
59.440         3
59.460        27
59.480        27
59.500         7
59.520        20
59.540        20
59.560        13
59.580        20
59.600        20
59.620        17
59.640         7
59.660        13
59.680        13
59.700        20
59.720        20
59.740         7
59.760        13
59.780        30
59.800        27
59.820        13
59.840        10
59.860        20
59.880        17
59.900         7
59.920        10
59.940        20
59.960        20
59.980        13
60.000        13
