20.000        20
20.020        20
20.040        60
20.060        43
20.080        63
20.100        30
20.120        43
20.140        50
20.160        27
20.180        37
20.200        47
20.220        47
20.240        40
20.260        37
20.280        43
20.300        63
20.320        60
20.340        70
20.360        53
20.380        50
20.400        50
20.420        47
20.440        83
20.460        50
20.480        60
20.500        47
20.520        47
20.540        57
20.560        27
20.580        53
20.600        50
20.620        33
20.640        47
20.660        43
20.680        37
20.700        53
20.720        63
20.740        23
20.760        47
20.780        37
20.800        47
20.820        50
20.840        50
20.860        40
20.880        43
20.900        47
20.920        43
20.940        43
20.960        40
20.980        37
21.000        27
21.020        47
21.040        60
21.060        67
21.080        50
21.100        77
21.120        53
21.140        53
21.160        60
21.180        43
21.200        53
21.220        77
21.240        67
21.260        73
21.280        90
21.300        90
21.320        93
21.340        77
21.360       100
21.380        80
21.400       180
21.420       127
21.440       133
21.460        97
21.480       143
21.500       110
21.520       153
21.540       123
21.560       137
21.580        83
21.600        80
21.620        83
21.640        67
21.660        57
21.680        67
21.700        53
21.720        50
21.740        57
21.760        33
21.780        57
21.800        33
21.820        53
21.840        37
21.860        57
21.880        53
21.900        43
21.920        37
21.940        37
21.960        27
21.980        30
22.000        20
22.020        37
22.040        60
22.060        33
22.080        20
22.100        20
22.120        50
22.140        33
22.160        30
22.180        30
22.200        37
22.220        20
22.240        23
22.260        37
22.280        27
22.300        73
22.320        33
22.340        43
22.360        47
22.380        43
22.400        27
22.420        47
22.440        20
22.460        27
22.480        17
22.500        13
22.520        33
22.540        20
22.560        43
22.580        27
22.600        27
22.620        47
22.640        43
22.660        23
22.680        43
22.700        17
22.720        50
22.740        60
22.760        37
22.780        30
22.800        30
22.820        47
22.840        33
22.860        37
22.880        50
22.900        53
22.920        23
22.940        57
22.960        43
22.980        37
23.000        30
23.020        33
23.040        20
23.060        40
23.080        57
23.100        37
23.120        33
23.140        30
23.160        33
23.180        37
23.200        47
23.220        37
23.240        33
23.260        43
23.280        47
23.300        27
23.320        30
23.340        37
23.360        40
23.380        37
23.400        23
23.420        27
23.440        33
23.460        23
23.480        40
23.500        17
23.520        30
23.540        20
23.560        27
23.580        43
23.600        33
23.620        23
23.640        30
23.660        30
23.680        27
23.700        37
23.720        30
23.740        50
23.760        17
23.780        50
23.800        40
23.820        33
23.840        23
23.860        40
23.880        60
23.900        27
23.920        13
23.940        30
23.960        33
23.980        33
24.000        40
24.020        37
24.040        40
24.060        40
24.080        23
24.100        23
24.120        27
24.140        17
24.160        13
24.180        10
24.200        37
24.220        23
24.240        30
24.260        37
24.280        20
24.300        23
24.320        30
24.340        27
24.360        23
24.380        27
24.400        50
24.420        37
24.440        37
24.460        23
24.480        20
24.500        47
24.520        30
24.540        27
24.560        27
24.580        17
24.600        37
24.620        30
24.640        30
24.660        17
24.680        20
24.700        37
24.720        47
24.740        23
24.760        20
24.780        57
24.800        60
24.820        53
24.840        47
24.860        73
24.880        67
24.900        50
24.920        70
24.940        60
24.960        93
24.980        63
25.000        57
25.020        37
25.040        63
25.060        47
25.080        20
25.100        37
25.120        27
25.140        30
25.160        40
25.180        37
25.200        13
25.220        27
25.240        23
25.260        27
25.280        37
25.300        37
25.320        40
25.340        27
25.360        53
25.380        20
25.400        33
25.420        23
25.440        37
25.460        33
25.480        23
25.500        37
25.520        17
25.540        33
25.560        40
25.580        27
25.600        53
25.620        17
25.640        17
25.660        47
25.680        23
25.700        33
25.720        23
25.740        33
25.760        33
25.780        27
25.800        27
25.820        17
25.840        30
25.860        33
25.880         3
25.900        17
25.920        17
25.940        23
25.960        43
25.980        33
26.000        27
26.020        23
26.040        23
26.060        27
26.080        23
26.100        23
26.120        20
26.140        40
26.160        33
26.180        43
26.200        17
26.220        30
26.240        27
26.260        37
26.280        27
26.300        27
26.320        17
26.340        40
26.360        20
26.380        20
26.400        20
26.420        20
26.440        37
26.460        10
26.480        20
26.500        33
26.520        23
26.540        20
26.560        30
26.580        17
26.600        20
26.620        43
26.640        17
26.660        27
26.680        43
26.700        67
26.720        20
26.740        37
26.760        20
26.780        20
26.800        37
26.820        17
26.840        17
26.860        33
26.880         7
26.900        27
26.920        37
26.940        27
26.960        27
26.980         3
27.000        37
27.020        40
27.040        47
27.060        20
27.080        17
27.100        27
27.120        20
27.140        23
27.160        23
27.180        13
27.200        33
27.220        27
27.240        27
27.260        20
27.280        20
27.300        27
27.320        30
27.340        43
27.360        20
27.380        23
27.400        20
27.420        53
27.440        30
27.460        33
27.480        27
27.500        23
27.520        30
27.540        30
27.560        27
27.580        23
27.600        47
27.620        37
27.640        30
27.660        27
27.680        23
27.700        10
27.720        13
27.740        20
27.760        33
27.780        20
27.800        20
27.820        30
27.840        23
27.860        27
27.880        20
27.900        37
27.920        27
27.940        37
27.960        27
27.980        27
28.000        37
28.020        23
28.040        27
28.060        27
28.080        23
28.100        27
28.120        20
28.140        13
28.160        20
28.180        20
28.200        20
28.220        13
28.240        23
28.260        27
28.280        20
28.300        17
28.320        20
28.340        37
28.360        23
28.380        27
28.400        23
28.420        30
28.440        23
28.460        20
28.480        10
28.500        30
28.520        17
28.540        30
28.560        33
28.580        13
28.600        23
28.620        23
28.640        27
28.660        40
28.680        10
28.700        40
28.720        37
28.740         3
28.760        20
28.780        53
28.800        17
28.820        33
28.840        43
28.860        43
28.880        40
28.900        37
28.920        37
28.940        47
28.960        27
28.980        50
29.000        27
29.020        40
29.040        30
29.060        40
29.080        30
29.100        50
29.120        43
29.140        60
29.160        37
29.180        43
29.200        43
29.220        63
29.240        43
29.260        60
29.280        37
29.300        47
29.320        77
29.340        67
29.360        70
29.380        87
29.400        97
29.420       140
29.440       107
29.460       123
29.480        53
29.500       110
29.520        60
29.540        63
29.560        47
29.580        33
29.600        37
29.620        27
29.640        10
29.660        10
29.680        30
29.700        33
29.720        33
29.740        10
29.760         3
29.780        27
29.800        37
29.820        27
29.840        27
29.860        20
29.880        10
29.900        30
29.920        20
29.940        10
29.960        27
29.980        20
30.000        17
30.020        13
30.040        13
30.060        33
30.080        13
30.100        20
30.120        30
30.140        13
30.160        20
30.180        33
30.200        20
30.220        17
30.240        10
30.260        23
30.280         7
30.300        17
30.320        33
30.340        20
30.360        23
30.380        20
30.400        33
30.420        20
30.440        20
30.460        20
30.480        30
30.500        17
30.520        13
30.540        10
30.560        23
30.580        10
30.600        13
30.620        33
30.640        27
30.660        13
30.680        30
30.700        17
30.720        13
30.740        27
30.760        17
30.780        27
30.800         7
30.820        17
30.840         7
30.860        10
30.880        17
30.900        13
30.920        17
30.940        20
30.960        33
30.980        13
31.000        10
31.020        17
31.040        37
31.060        20
31.080        10
31.100        23
31.120        17
31.140        17
31.160        27
31.180        37
31.200        20
31.220        20
31.240        20
31.260        30
31.280        20
31.300        27
31.320        23
31.340        33
31.360        17
31.380        20
31.400        27
31.420        33
31.440        17
31.460        10
31.480        17
31.500        27
31.520        10
31.540        17
31.560        10
31.580        37
31.600        13
31.620        33
31.640        17
31.660        37
31.680        10
31.700        23
31.720        20
31.740        17
31.760        33
31.780        10
31.800        13
31.820        20
31.840        13
31.860        23
31.880        13
31.900        20
31.920        10
31.940        10
31.960        23
31.980        10
32.000        13
32.020        10
32.040        20
32.060        17
32.080         7
32.100        30
32.120        23
32.140        20
32.160        23
32.180         7
32.200         7
32.220        30
32.240        17
32.260        40
32.280        27
32.300        20
32.320        30
32.340        30
32.360        13
32.380        23
32.400        13
32.420         7
32.440        20
32.460        20
32.480        33
32.500        10
32.520         7
32.540        17
32.560         7
32.580        20
32.600        13
32.620        13
32.640         7
32.660        17
32.680        17
32.700        17
32.720        17
32.740        10
32.760        17
32.780         3
32.800        13
32.820        23
32.840        20
32.860         3
32.880        33
32.900        13
32.920        17
32.940         0
32.960        20
32.980        17
33.000        17
33.020        20
33.040        13
33.060        17
33.080        20
33.100        17
33.120        13
33.140        20
33.160        13
33.180        33
33.200        23
33.220        13
33.240         7
33.260        37
33.280        20
33.300        20
33.320        13
33.340        20
33.360        17
33.380        23
33.400        17
33.420        20
33.440        20
33.460        17
33.480        33
33.500         7
33.520        13
33.540        17
33.560        27
33.580        27
33.600        13
33.620        33
33.640        23
33.660        17
33.680        23
33.700        30
33.720        30
33.740        17
33.760        17
33.780        30
33.800         3
33.820        17
33.840        27
33.860         7
33.880        17
33.900        17
33.920        10
33.940        20
33.960        17
33.980         7
34.000        17
34.020         7
34.040        17
34.060        17
34.080        23
34.100         0
34.120         7
34.140        27
34.160        20
34.180        27
34.200        20
34.220        13
34.240        43
34.260        17
34.280        27
34.300         7
34.320        13
34.340        10
34.360        20
34.380        17
34.400        17
34.420        17
34.440        17
34.460        17
34.480        13
34.500        27
34.520        17
34.540        13
34.560         7
34.580         7
34.600        20
34.620        20
34.640         7
34.660        13
34.680        20
34.700        17
34.720        17
34.740        30
34.760        10
34.780         0
34.800        17
34.820        10
34.840         7
34.860        10
34.880        23
34.900         3
34.920        33
34.940        33
34.960        10
34.980        10
35.000        27
35.020        13
35.040         7
35.060        23
35.080        23
35.100         7
35.120        13
35.140        17
35.160        17
35.180         7
35.200        23
35.220        13
35.240        20
35.260        17
35.280        23
35.300        10
35.320        20
35.340        17
35.360        17
35.380        27
35.400         3
35.420        47
35.440        33
35.460        10
35.480         7
35.500        17
35.520         7
35.540        10
35.560        17
35.580        13
35.600        17
35.620        23
35.640         7
35.660        17
35.680        10
35.700        17
35.720        13
35.740        27
35.760        17
35.780        20
35.800        17
35.820        17
35.840        17
35.860        20
35.880        27
35.900        23
35.920        43
35.940         7
35.960        23
35.980        47
36.000        27
36.020        33
36.040        20
36.060        20
36.080        30
36.100        17
36.120        13
36.140        20
36.160         7
36.180        13
36.200         7
36.220        20
36.240        20
36.260        20
36.280        20
36.300        17
36.320        13
36.340        13
36.360        10
36.380         7
36.400        17
36.420        23
36.440        20
36.460        13
36.480        13
36.500        27
36.520        13
36.540        20
36.560        13
36.580        37
36.600        20
36.620        23
36.640        23
36.660        20
36.680        23
36.700        20
36.720        10
36.740        13
36.760        17
36.780        13
36.800        17
36.820        17
36.840        20
36.860        27
36.880        23
36.900        13
36.920        10
36.940        23
36.960        20
36.980         3
37.000        13
37.020        13
37.040        13
37.060         7
37.080        13
37.100         7
37.120        20
37.140        17
37.160        20
37.180        20
37.200        17
37.220        17
37.240        10
37.260        13
37.280        17
37.300        17
37.320        23
37.340         3
37.360         3
37.380        20
37.400        17
37.420        13
37.440        13
37.460        20
37.480        13
37.500        10
37.520        17
37.540        17
37.560        13
37.580        23
37.600        20
37.620        30
37.640        17
37.660        27
37.680        20
37.700        20
37.720        27
37.740        23
37.760        23
37.780        20
37.800        20
37.820        17
37.840        30
37.860        17
37.880        20
37.900        23
37.920        13
37.940        10
37.960        20
37.980        23
38.000        17
38.020        23
38.040        20
38.060        23
38.080        17
38.100        17
38.120        17
38.140        20
38.160        20
38.180        17
38.200        30
38.220        10
38.240        17
38.260        17
38.280        20
38.300        20
38.320        10
38.340        17
38.360        20
38.380        37
38.400        23
38.420        13
38.440        20
38.460        20
38.480        13
38.500         7
38.520        13
38.540        30
38.560        17
38.580        30
38.600         3
38.620        20
38.640        30
38.660        10
38.680        27
38.700         7
38.720        23
38.740        23
38.760        27
38.780        17
38.800        30
38.820        17
38.840        27
38.860        17
38.880        10
38.900        33
38.920        20
38.940         0
38.960         3
38.980         7
39.000        17
39.020        10
39.040        20
39.060        13
39.080        13
39.100        37
39.120        13
39.140        20
39.160        17
39.180        33
39.200        23
39.220        17
39.240        33
39.260        27
39.280        10
39.300        30
39.320        13
39.340        43
39.360        17
39.380        30
39.400        53
39.420        33
39.440        47
39.460        27
39.480        27
39.500        50
39.520        40
39.540        20
39.560        17
39.580        23
39.600        23
39.620        17
39.640        13
39.660        13
39.680         7
39.700        23
39.720        13
39.740        17
39.760        23
39.780        13
39.800        17
39.820        13
39.840        23
39.860        13
39.880        17
39.900         3
39.920        13
39.940        30
39.960        17
39.980        13
40.000        10
40.020        17
40.040        10
40.060        13
40.080        10
40.100        10
40.120         7
40.140        10
40.160        17
40.180        23
40.200        13
40.220        23
40.240        10
40.260        10
40.280         7
40.300        13
40.320        23
40.340        13
40.360         3
40.380        20
40.400        27
40.420        10
40.440        17
40.460        17
40.480        20
40.500        27
40.520        17
40.540        10
40.560        27
40.580        13
40.600        10
40.620         7
40.640        17
40.660        10
40.680        17
40.700        17
40.720        10
40.740        10
40.760        13
40.780        17
40.800         7
40.820        10
40.840        17
40.860        13
40.880        13
40.900        27
40.920        27
40.940        17
40.960        17
40.980        23
41.000        10
41.020        13
41.040        10
41.060        27
41.080        13
41.100        10
41.120        13
41.140        27
41.160         3
41.180        30
41.200        37
41.220        30
41.240        13
41.260        10
41.280        20
41.300         7
41.320        17
41.340         7
41.360        20
41.380        10
41.400        30
41.420         7
41.440        20
41.460         7
41.480        20
41.500        37
41.520        17
41.540         7
41.560        10
41.580        13
41.600        23
41.620        30
41.640        23
41.660         3
41.680        30
41.700        20
41.720        27
41.740        10
41.760        10
41.780        10
41.800         7
41.820        10
41.840        23
41.860        13
41.880        20
41.900        13
41.920        40
41.940         7
41.960        13
41.980        17
42.000         7
42.020        17
42.040        13
42.060        10
42.080        30
42.100        13
42.120        10
42.140         7
42.160        13
42.180        27
42.200        13
42.220        13
42.240        23
42.260        10
42.280         7
42.300        13
42.320        10
42.340        10
42.360        17
42.380        20
42.400        23
42.420        23
42.440        17
42.460        17
42.480        10
42.500        17
42.520        20
42.540        27
42.560        10
42.580        33
42.600        13
42.620        17
42.640        13
42.660        27
42.680        20
42.700        20
42.720        23
42.740        17
42.760        10
42.780        13
42.800        13
42.820        27
42.840        10
42.860        27
42.880        27
42.900        13
42.920        20
42.940         3
42.960        10
42.980        20
43.000        27
43.020        13
43.040        13
43.060        17
43.080        20
43.100        23
43.120        23
43.140        37
43.160        17
43.180        33
43.200        37
43.220        43
43.240        37
43.260        23
43.280        20
43.300         7
43.320        17
43.340        37
43.360        20
43.380        13
43.400        30
43.420        33
43.440        17
43.460        20
43.480        13
43.500        23
43.520        13
43.540        20
43.560        13
43.580        10
43.600        10
43.620        20
43.640        20
43.660        43
43.680        20
43.700        10
43.720        30
43.740        20
43.760        13
43.780        10
43.800        13
43.820        27
43.840        13
43.860        17
43.880        27
43.900        10
43.920         7
43.940        20
43.960        17
43.980        13
44.000        17
44.020         0
44.040        17
44.060        10
44.080        23
44.100        13
44.120        13
44.140        23
44.160         7
44.180        13
44.200        30
44.220        13
44.240        10
44.260        10
44.280        13
44.300        20
44.320        17
44.340        23
44.360        17
44.380         3
44.400         7
44.420         7
44.440        10
44.460        20
44.480        23
44.500        30
44.520        17
44.540        17
44.560        17
44.580        20
44.600        17
44.620        20
44.640        13
44.660         7
44.680        20
44.700        13
44.720        20
44.740        20
44.760        13
44.780        20
44.800         7
44.820        20
44.840        20
44.860        10
44.880        10
44.900        27
44.920        13
44.940         7
44.960        17
44.980        13
45.000        10
45.020        13
45.040        13
45.060        33
45.080        20
45.100         7
45.120        23
45.140        20
45.160         3
45.180         0
45.200        37
45.220         7
45.240        23
45.260        20
45.280        13
45.300        17
45.320         7
45.340        40
45.360        23
45.380        37
45.400        13
45.420        20
45.440        10
45.460         7
45.480        13
45.500        23
45.520        13
45.540        13
45.560        20
45.580        10
45.600        20
45.620        10
45.640        17
45.660         7
45.680        20
45.700        23
45.720        23
45.740        17
45.760        10
45.780        20
45.800         3
45.820        23
45.840        17
45.860        27
45.880         7
45.900        13
45.920        17
45.940        13
45.960        10
45.980        17
46.000        23
46.020        13
46.040        20
46.060         7
46.080        10
46.100        17
46.120        17
46.140        13
46.160         7
46.180        27
46.200        13
46.220        23
46.240        17
46.260        23
46.280        20
46.300        10
46.320        13
46.340        30
46.360        10
46.380        27
46.400        30
46.420        33
46.440        23
46.460        13
46.480        20
46.500         3
46.520        10
46.540        23
46.560        13
46.580        23
46.600        10
46.620        17
46.640         3
46.660        17
46.680        17
46.700        13
46.720         7
46.740        20
46.760        13
46.780        17
46.800        20
46.820         7
46.840        20
46.860        20
46.880        13
46.900         7
46.920        20
46.940        20
46.960        10
46.980        17
47.000        13
47.020        27
47.040        13
47.060        20
47.080        17
47.100        20
47.120        20
47.140        30
47.160        27
47.180        23
47.200        20
47.220        40
47.240        30
47.260        20
47.280        27
47.300        20
47.320        30
47.340        37
47.360        27
47.380        33
47.400        30
47.420        20
47.440        13
47.460        30
47.480        40
47.500        30
47.520        60
47.540        53
47.560        43
47.580        40
47.600        30
47.620        43
47.640        43
47.660        30
47.680        30
47.700        23
47.720        30
47.740         3
47.760        23
47.780        17
47.800        20
47.820        20
47.840        13
47.860        23
47.880        10
47.900        10
47.920        30
47.940        13
47.960        17
47.980        20
48.000        13
48.020        13
48.040        13
48.060        13
48.080        23
48.100        17
48.120        23
48.140        27
48.160        17
48.180        10
48.200         7
48.220        17
48.240        10
48.260        20
48.280        17
48.300        20
48.320        17
48.340        13
48.360        27
48.380         7
48.400        50
48.420        13
48.440        40
48.460        23
48.480        53
48.500        27
48.520        23
48.540        33
48.560        43
48.580        37
48.600        37
48.620        47
48.640        30
48.660        43
48.680        23
48.700         7
48.720        20
48.740        27
48.760        20
48.780        23
48.800        17
48.820        20
48.840        13
48.860        17
48.880        27
48.900        10
48.920        13
48.940        20
48.960         7
48.980        20
49.000         7
49.020        10
49.040        20
49.060         7
49.080        23
49.100        13
49.120        17
49.140        17
49.160        27
49.180        30
49.200        13
49.220        23
49.240        10
49.260        13
49.280        13
49.300        13
49.320        20
49.340        23
49.360        20
49.380        13
49.400        23
49.420         3
49.440         0
49.460        23
49.480         7
49.500        23
49.520        13
49.540        10
49.560        13
49.580        17
49.600        13
49.620        20
49.640         3
49.660        17
49.680        17
49.700        17
49.720        13
49.740        17
49.760        20
49.780        20
49.800        20
49.820        13
49.840         3
49.860         3
49.880        23
49.900        20
49.920        17
49.940        17
49.960        20
49.980        20
50.000        13
50.020        17
50.040        10
50.060         7
50.080        13
50.100        20
50.120        17
50.140        23
50.160        10
50.180        17
50.200        13
50.220        13
50.240        17
50.260        17
50.280        17
50.300         7
50.320        27
50.340        17
50.360        13
50.380        13
50.400         7
50.420        10
50.440        17
50.460         7
50.480        20
50.500        20
50.520         7
50.540        17
50.560         7
50.580        20
50.600        20
50.620        13
50.640         7
50.660        27
50.680        13
50.700        17
50.720        23
50.740        30
50.760         7
50.780         3
50.800        10
50.820        23
50.840        10
50.860        20
50.880        13
50.900         7
50.920        13
50.940        17
50.960        10
50.980        13
51.000        20
51.020        17
51.040        10
51.060        20
51.080        20
51.100         7
51.120        13
51.140        13
51.160         3
51.180        13
51.200        23
51.220        17
51.240         7
51.260        30
51.280        13
51.300        30
51.320        20
51.340        10
51.360        10
51.380         7
51.400        20
51.420        33
51.440         7
51.460        17
51.480         0
51.500        13
51.520        20
51.540        10
51.560        10
51.580        13
51.600         7
51.620         7
51.640        10
51.660        13
51.680        13
51.700        23
51.720         0
51.740        20
51.760        10
51.780        10
51.800        10
51.820        20
51.840        20
51.860        10
51.880         7
51.900        17
51.920        13
51.940        20
51.960        17
51.980         7
52.000        20
52.020         7
52.040        23
52.060         7
52.080         7
52.100        33
52.120        10
52.140        27
52.160        13
52.180        17
52.200         3
52.220         7
52.240        10
52.260         7
52.280        20
52.300        10
52.320        20
52.340        13
52.360        10
52.380        13
52.400         7
52.420         7
52.440        13
52.460        20
52.480         7
52.500        13
52.520        10
52.540        27
52.560         7
52.580        17
52.600        20
52.620        13
52.640        10
52.660         7
52.680        17
52.700         3
52.720        10
52.740        20
52.760         7
52.780         7
52.800        10
52.820        23
52.840        10
52.860         7
52.880        10
52.900        10
52.920        17
52.940         3
52.960        13
52.980        13
53.000        10
53.020        17
53.040        17
53.060        23
53.080        10
53.100        13
53.120        17
53.140        20
53.160        20
53.180        23
53.200         7
53.220         3
53.240         3
53.260         7
53.280        17
53.300        13
53.320        10
53.340        17
53.360        17
53.380        20
53.400        13
53.420        23
53.440        37
53.460        17
53.480        17
53.500        20
53.520        17
53.540        20
53.560        27
53.580        10
53.600        10
53.620         7
53.640         3
53.660        17
53.680        13
53.700        10
53.720         7
53.740        20
53.760        27
53.780        10
53.800        20
53.820        10
53.840        13
53.860         7
53.880        10
53.900        10
53.920         7
53.940        37
53.960        10
53.980        10
54.000        13
54.020         7
54.040        13
54.060        13
54.080        23
54.100        20
54.120        10
54.140         7
54.160        10
54.180        13
54.200        10
54.220         7
54.240        17
54.260        10
54.280         7
54.300        13
54.320        43
54.340        13
54.360        13
54.380        17
54.400        17
54.420        23
54.440         7
54.460         3
54.480        23
54.500        20
54.520        13
54.540        13
54.560        30
54.580         7
54.600        13
54.620        17
54.640        13
54.660         0
54.680        23
54.700        17
54.720        23
54.740        13
54.760        23
54.780        20
54.800        13
54.820        13
54.840        13
54.860        20
54.880         3
54.900        20
54.920        20
54.940        10
54.960        20
54.980        17
55.000        33
55.020        30
55.040        10
55.060        13
55.080        30
55.100         0
55.120         7
55.140         7
55.160        20
55.180        13
55.200        17
55.220        17
55.240        10
55.260        10
55.280        13
55.300         3
55.320        10
55.340        17
55.360        17
55.380        27
55.400        17
55.420        13
55.440        20
55.460        17
55.480        10
55.500        30
55.520        10
55.540        13
55.560        13
55.580        10
55.600        17
55.620        13
55.640        17
55.660        20
55.680        30
55.700         7
55.720         3
55.740        20
55.760        20
55.780         3
55.800        17
55.820        10
55.840        17
55.860         7
55.880         7
55.900        13
55.920        13
55.940         7
55.960        13
55.980         0
56.000        13
56.020        13
56.040        20
56.060        17
56.080        20
56.100        17
56.120        20
56.140         3
56.160         7
56.180         7
56.200        17
56.220        17
56.240        13
56.260        10
56.280        23
56.300        10
56.320        20
56.340        27
56.360        10
56.380        17
56.400         7
56.420        10
56.440        33
56.460        13
56.480        30
56.500        13
56.520        17
56.540        20
56.560        17
56.580         7
56.600        23
56.620        27
56.640        10
56.660        10
56.680         7
56.700        23
56.720        20
56.740        13
56.760         3
56.780        23
56.800        17
56.820        10
56.840        17
56.860        10
56.880        23
56.900        13
56.920        13
56.940         7
56.960         0
56.980        17
57.000        10
57.020        27
57.040        20
57.060        17
57.080        20
57.100         3
57.120        10
57.140        33
57.160         3
57.180        13
57.200         7
57.220        17
57.240        13
57.260        23
57.280        13
57.300        10
57.320        13
57.340        20
57.360        27
57.380        20
57.400        23
57.420        13
57.440        23
57.460        10
57.480        27
57.500         7
57.520        13
57.540        20
57.560        17
57.580        13
57.600        17
57.620        17
57.640        13
57.660        10
57.680        13
57.700        17
57.720        33
57.740        17
57.760        20
57.780        13
57.800        13
57.820        17
57.840         3
57.860        10
57.880         7
57.900        13
57.920         3
57.940        13
57.960        27
57.980        13
58.000        17
58.020        13
58.040        23
58.060        13
58.080        13
58.100         7
58.120        20
58.140        20
58.160         7
58.180        10
58.200        10
58.220        23
58.240        13
58.260        13
58.280        23
58.300        10
58.320        20
58.340        20
58.360        17
58.380        10
58.400        13
58.420        13
58.440        17
58.460        23
58.480         7
58.500         7
58.520         7
58.540         3
58.560        17
58.580        10
58.600         7
58.620        13
58.640        23
58.660        10
58.680         7
58.700         7
58.720        10
58.740         0
58.760        27
58.780         7
58.800        20
58.820         7
58.840        17
58.860         7
58.880        13
58.900         0
58.920         3
58.940        20
58.960        10
58.980         3
59.000        13
59.020        20
59.040        20
59.060         3
59.080        10
59.100        17
59.120        10
59.140         7
59.160         7
59.180        10
59.200        23
59.220        13
59.240        17
59.260         3
59.280         3
59.300        17
59.320        17
59.340        27
59.360        20
59.380        13
59.400        33
59.420        20
59.440         0
59.460        17
59.480        17
59.500        10
59.520         7
59.540         3
59.560        10
59.580        17
59.600         7
59.620        20
59.640        23
59.660        23
59.680         7
59.700        23
59.720        20
59.740        10
59.760        13
59.780        20
59.800         7
59.820        23
59.840        10
59.860        10
59.880        13
59.900        10
59.920        13
59.940        20
59.960        13
59.980        13
60.000         7
