20.000        37
20.020        33
20.040        40
20.060        33
20.080        47
20.100        60
20.120        50
20.140        43
20.160        60
20.180        70
20.200        67
20.220        33
20.240        57
20.260        70
20.280        47
20.300        43
20.320        50
20.340        27
20.360        57
20.380        33
20.400        50
20.420        63
20.440        40
20.460        27
20.480        67
20.500        37
20.520        60
20.540        43
20.560        63
20.580        63
20.600        23
20.620        40
20.640        53
20.660        50
20.680        40
20.700        47
20.720        30
20.740        47
20.760        53
20.780        40
20.800        37
20.820        57
20.840        30
20.860        33
20.880        40
20.900        37
20.920        40
20.940        30
20.960        67
20.980        50
21.000        43
21.020        60
21.040        37
21.060        37
21.080        47
21.100        27
21.120        57
21.140        40
21.160        33
21.180        43
21.200        53
21.220        47
21.240        50
21.260        33
21.280        57
21.300        53
21.320        70
21.340        70
21.360        37
21.380        27
21.400        23
21.420        47
21.440        70
21.460        80
21.480        20
21.500        57
21.520        60
21.540        43
21.560        47
21.580        27
21.600        40
21.620        40
21.640        43
21.660        37
21.680        30
21.700        53
21.720        30
21.740        40
21.760        40
21.780        57
21.800        37
21.820        37
21.840        40
21.860        57
21.880        40
21.900        23
21.920        57
21.940        40
21.960        27
21.980        33
22.000        30
22.020        63
22.040        30
22.060        40
22.080        30
22.100        23
22.120        53
22.140        63
22.160        70
22.180        63
22.200        47
22.220        57
22.240        37
22.260        43
22.280        50
22.300        53
22.320        50
22.340        37
22.360        40
22.380        90
22.400        27
22.420        53
22.440        63
22.460        70
22.480        70
22.500        60
22.520        50
22.540        57
22.560        73
22.580        83
22.600        73
22.620        53
22.640        40
22.660        40
22.680        37
22.700        37
22.720        30
22.740        47
22.760        33
22.780        37
22.800        47
22.820        37
22.840        47
22.860        40
22.880        30
22.900        20
22.920        27
22.940        27
22.960        33
22.980        73
23.000        43
23.020        53
23.040        50
23.060        37
23.080        50
23.100        40
23.120        33
23.140        80
23.160        33
23.180        37
23.200        27
23.220        37
23.240        33
23.260        20
23.280        30
23.300        47
23.320        50
23.340        50
23.360        47
23.380        47
23.400        47
23.420        53
23.440        30
23.460        43
23.480        43
23.500        30
23.520        33
23.540        47
23.560        47
23.580        47
23.600        40
23.620        47
23.640        40
23.660        30
23.680        43
23.700        40
23.720        37
23.740        67
23.760        37
23.780        47
23.800        20
23.820        40
23.840        37
23.860        30
23.880        53
23.900        27
23.920        30
23.940        30
23.960        40
23.980        40
24.000        40
24.020        37
24.040        80
24.060        47
24.080        37
24.100        17
24.120        57
24.140        50
24.160        37
24.180        50
24.200        37
24.220        43
24.240        40
24.260        30
24.280        50
24.300        37
24.320        33
24.340        40
24.360        37
24.380        43
24.400        37
24.420        40
24.440        40
24.460        30
24.480        37
24.500        23
24.520        30
24.540        50
24.560        30
24.580        50
24.600        37
24.620        37
24.640        43
24.660        33
24.680        30
24.700        57
24.720        77
24.740        47
24.760        43
24.780        60
24.800        77
24.820        83
24.840       127
24.860        57
24.880        80
24.900        70
24.920        77
24.940        87
24.960        73
24.980        33
25.000        37
25.020        53
25.040        63
25.060        27
25.080        57
25.100        30
25.120        13
25.140        37
25.160        43
25.180        20
25.200        33
25.220        53
25.240        30
25.260        40
25.280        37
25.300        53
25.320        33
25.340        37
25.360        70
25.380        50
25.400        50
25.420        67
25.440        53
25.460        33
25.480        53
25.500        57
25.520        53
25.540        93
25.560       110
25.580       107
25.600       127
25.620       203
25.640       167
25.660        90
25.680        80
25.700        93
25.720        57
25.740        40
25.760        40
25.780        40
25.800        43
25.820        40
25.840        40
25.860        37
25.880        47
25.900        30
25.920        33
25.940        27
25.960        43
25.980        20
26.000        37
26.020        33
26.040        37
26.060        27
26.080        30
26.100        40
26.120        33
26.140        33
26.160        30
26.180        23
26.200        30
26.220        37
26.240        53
26.260        37
26.280        30
26.300        40
26.320        50
26.340        27
26.360        27
26.380        20
26.400        33
26.420        43
26.440        50
26.460        53
26.480        10
26.500        40
26.520        30
26.540        43
26.560        40
26.580        53
26.600        37
26.620        43
26.640        47
26.660        30
26.680        23
26.700        40
26.720        37
26.740        27
26.760        47
26.780        20
26.800        60
26.820        10
26.840        53
26.860        47
26.880        40
26.900        43
26.920        23
26.940        33
26.960        23
26.980        43
27.000        27
27.020        47
27.040        30
27.060        23
27.080        43
27.100        57
27.120        57
27.140        30
27.160        30
27.180        37
27.200        43
27.220        33
27.240        33
27.260        33
27.280        23
27.300        30
27.320        50
27.340        43
27.360        27
27.380        33
27.400        20
27.420        53
27.440        27
27.460        33
27.480        17
27.500        33
27.520        20
27.540        47
27.560        37
27.580        43
27.600        10
27.620        50
27.640        37
27.660        43
27.680        43
27.700        33
27.720        43
27.740        33
27.760        30
27.780        20
27.800        23
27.820        23
27.840        20
27.860        20
27.880        20
27.900        37
27.920        47
27.940        20
27.960        40
27.980        27
28.000        47
28.020        33
28.040        23
28.060        53
28.080        20
28.100        13
28.120        30
28.140        43
28.160        30
28.180        40
28.200        43
28.220        33
28.240        23
28.260        50
28.280        20
28.300        20
28.320        40
28.340        17
28.360        57
28.380        37
28.400        33
28.420        37
28.440        23
28.460        33
28.480        30
28.500        47
28.520        57
28.540        33
28.560        50
28.580        27
28.600        30
28.620        37
28.640        30
28.660        37
28.680        27
28.700        27
28.720        43
28.740        30
28.760        23
28.780        20
28.800        37
28.820        40
28.840        60
28.860        53
28.880        43
28.900        50
28.920        23
28.940        30
28.960        53
28.980        27
29.000        37
29.020        33
29.040        33
29.060        53
29.080        47
29.100        53
29.120        27
29.140        30
29.160        60
29.180        27
29.200        43
29.220        50
29.240        63
29.260        83
29.280        60
29.300        83
29.320       107
29.340       117
29.360       163
29.380       177
29.400       150
29.420       183
29.440       113
29.460        87
29.480        93
29.500       103
29.520        67
29.540        43
29.560        40
29.580        43
29.600        43
29.620        33
29.640        23
29.660        47
29.680        37
29.700        70
29.720        30
29.740        33
29.760        33
29.780        50
29.800        33
29.820        30
29.840        27
29.860        33
29.880        40
29.900        20
29.920        23
29.940        47
29.960        27
29.980        23
30.000        23
30.020        27
30.040        53
30.060        47
30.080        23
30.100        40
30.120        33
30.140        27
30.160        33
30.180        30
30.200        37
30.220        40
30.240        37
30.260        37
30.280        17
30.300        37
30.320        20
30.340        27
30.360        27
30.380         7
30.400        43
30.420        17
30.440        37
30.460        27
30.480        27
30.500        40
30.520        20
30.540        37
30.560        13
30.580        40
30.600        20
30.620        30
30.640        20
30.660        30
30.680        33
30.700        53
30.720        27
30.740        40
30.760        33
30.780        37
30.800        43
30.820        60
30.840        20
30.860        17
30.880        27
30.900        33
30.920        17
30.940        33
30.960        17
30.980        33
31.000        30
31.020        20
31.040        17
31.060        50
31.080        27
31.100        40
31.120        30
31.140        23
31.160        33
31.180        33
31.200        27
31.220        27
31.240        13
31.260        27
31.280        20
31.300        37
31.320        47
31.340        50
31.360        37
31.380        33
31.400        23
31.420        37
31.440        20
31.460        40
31.480        33
31.500        13
31.520        17
31.540        40
31.560        33
31.580        40
31.600        53
31.620        27
31.640        47
31.660        23
31.680        30
31.700        30
31.720        47
31.740        33
31.760        27
31.780        40
31.800        40
31.820        47
31.840        43
31.860        80
31.880        37
31.900        80
31.920        67
31.940        53
31.960        70
31.980       110
32.000       123
32.020        73
32.040       137
32.060       117
32.080       120
32.100       143
32.120       117
32.140       130
32.160       167
32.180       143
32.200       153
32.220        97
32.240        97
32.260       130
32.280        77
32.300        73
32.320        53
32.340        63
32.360        47
32.380        33
32.400        73
32.420        40
32.440        50
32.460        30
32.480        57
32.500        47
32.520        40
32.540        47
32.560        23
32.580        33
32.600        27
32.620        33
32.640        23
32.660        20
32.680        13
32.700        10
32.720        27
32.740        20
32.760        47
32.780        20
32.800        17
32.820        37
32.840        30
32.860        40
32.880        70
32.900        10
32.920        33
32.940        40
32.960        37
32.980        30
33.000        43
33.020        43
33.040        27
33.060        23
33.080        10
33.100        17
33.120        20
33.140        27
33.160        33
33.180        23
33.200        33
33.220        10
33.240        23
33.260        23
33.280        27
33.300        27
33.320        33
33.340        27
33.360        17
33.380        37
33.400        17
33.420        43
33.440        37
33.460        17
33.480        40
33.500        23
33.520        33
33.540        33
33.560        20
33.580        60
33.600        30
33.620        20
33.640        33
33.660        27
33.680        33
33.700        27
33.720        40
33.740        27
33.760        43
33.780        20
33.800        30
33.820        27
33.840        30
33.860        30
33.880        37
33.900        33
33.920        33
33.940        33
33.960        57
33.980        13
34.000        37
34.020        40
34.040        40
34.060        27
34.080        20
34.100        27
34.120        13
34.140        43
34.160        27
34.180        57
34.200        27
34.220        30
34.240        17
34.260        33
34.280        30
34.300        10
34.320        40
34.340        70
34.360        30
34.380        13
34.400        23
34.420        23
34.440        33
34.460        30
34.480        30
34.500        43
34.520        33
34.540        27
34.560        30
34.580        23
34.600        23
34.620        17
34.640        33
34.660        27
34.680        33
34.700        40
34.720        10
34.740        17
34.760        40
34.780        23
34.800        23
34.820        20
34.840        13
34.860        43
34.880        37
34.900        60
34.920        67
34.940        70
34.960        73
34.980        73
35.000        87
35.020        73
35.040        97
35.060       130
35.080        83
35.100       137
35.120       167
35.140       233
35.160       327
35.180       347
35.200       233
35.220       183
35.240       183
35.260       160
35.280       157
35.300        93
35.320        80
35.340        40
35.360        40
35.380        47
35.400        27
35.420        33
35.440        23
35.460        23
35.480        23
35.500        43
35.520        13
35.540        37
35.560        10
35.580        37
35.600        43
35.620        27
35.640        27
35.660        60
35.680        43
35.700        27
35.720        23
35.740        30
35.760        43
35.780        27
35.800        43
35.820        27
35.840        47
35.860        47
35.880        40
35.900        33
35.920        33
35.940        37
35.960        47
35.980        37
36.000        33
36.020        33
36.040        40
36.060        43
36.080        40
36.100        23
36.120        57
36.140        23
36.160        33
36.180        33
36.200        40
36.220        20
36.240        17
36.260        20
36.280        20
36.300        40
36.320        23
36.340        43
36.360        47
36.380        27
36.400        40
36.420        17
36.440        30
36.460        43
36.480        23
36.500        27
36.520        33
36.540        40
36.560        40
36.580        13
36.600        20
36.620        33
36.640        27
36.660        33
36.680        13
36.700        30
36.720        27
36.740        40
36.760        37
36.780        37
36.800        40
36.820        33
36.840        23
36.860        17
36.880        37
36.900        30
36.920        50
36.940        27
36.960        43
36.980        13
37.000        27
37.020        37
37.040        23
37.060        33
37.080        33
37.100        20
37.120        30
37.140        20
37.160        43
37.180        33
37.200        27
37.220        33
37.240        30
37.260        13
37.280        43
37.300        30
37.320        30
37.340        33
37.360        13
37.380        23
37.400        27
37.420        20
37.440        33
37.460        30
37.480        43
37.500        27
37.520        27
37.540        30
37.560        23
37.580        40
37.600        33
37.620        57
37.640        37
37.660        40
37.680        53
37.700        43
37.720       107
37.740       270
37.760       310
37.780       337
37.800       290
37.820       183
37.840       153
37.860       240
37.880       187
37.900       160
37.920        87
37.940        33
37.960        93
37.980        37
38.000        30
38.020        37
38.040        37
38.060        30
38.080        33
38.100        27
38.120        20
38.140        43
38.160        27
38.180        33
38.200        50
38.220        20
38.240        33
38.260        40
38.280        47
38.300        43
38.320        37
38.340        23
38.360        37
38.380        27
38.400        17
38.420        23
38.440        17
38.460        43
38.480        40
38.500        40
38.520        17
38.540        13
38.560        27
38.580        37
38.600        30
38.620        23
38.640        53
38.660        33
38.680        40
38.700        30
38.720        23
38.740        27
38.760        13
38.780        50
38.800        40
38.820        27
38.840        50
38.860        20
38.880        13
38.900        17
38.920        27
38.940        27
38.960        23
38.980        27
39.000        47
39.020        23
39.040        20
39.060        10
39.080        37
39.100        13
39.120        33
39.140        40
39.160        37
39.180         3
39.200        23
39.220        37
39.240        27
39.260        30
39.280        60
39.300        50
39.320        40
39.340        53
39.360        47
39.380        47
39.400        40
39.420        27
39.440        40
39.460        57
39.480        43
39.500        43
39.520        50
39.540        27
39.560        53
39.580        20
39.600        43
39.620        40
39.640        57
39.660        40
39.680        73
39.700        70
39.720        67
39.740        50
39.760        50
39.780        63
39.800        33
39.820        70
39.840        27
39.860        50
39.880        23
39.900        20
39.920        27
39.940        33
39.960        27
39.980        20
40.000        23
40.020        17
40.040        23
40.060        23
40.080        33
40.100        20
40.120        30
40.140        23
40.160        37
40.180        17
40.200        30
40.220        27
40.240        33
40.260        20
40.280        23
40.300        20
40.320        43
40.340        10
40.360        27
40.380        30
40.400        23
40.420        13
40.440        23
40.460        13
40.480        20
40.500        20
40.520        13
40.540        43
40.560        37
40.580        17
40.600        17
40.620        17
40.640        37
40.660        30
40.680        33
40.700        23
40.720        30
40.740        20
40.760        43
40.780        40
40.800        23
40.820        27
40.840        37
40.860        37
40.880        23
40.900        30
40.920        27
40.940        27
40.960        23
40.980        23
41.000        30
41.020        30
41.040        40
41.060        37
41.080        20
41.100        30
41.120        23
41.140        13
41.160        37
41.180        27
41.200        23
41.220        33
41.240        40
41.260        20
41.280        23
41.300        10
41.320        20
41.340        37
41.360        23
41.380        20
41.400        27
41.420        37
41.440        23
41.460        17
41.480        67
41.500        23
41.520        30
41.540        27
41.560        47
41.580        37
41.600        33
41.620        67
41.640        97
41.660       103
41.680       103
41.700       117
41.720       110
41.740        97
41.760        63
41.780        87
41.800        47
41.820        67
41.840        37
41.860        60
41.880        33
41.900        33
41.920        40
41.940        37
41.960        27
41.980        23
42.000        23
42.020        20
42.040        30
42.060        43
42.080        23
42.100        37
42.120        13
42.140        20
42.160        20
42.180        23
42.200        30
42.220        30
42.240        17
42.260        33
42.280        17
42.300        33
42.320        27
42.340        30
42.360        33
42.380        30
42.400        33
42.420        20
42.440        43
42.460        33
42.480        17
42.500        23
42.520         3
42.540        30
42.560        40
42.580        30
42.600        43
42.620        23
42.640        23
42.660        33
42.680        23
42.700        50
42.720        20
42.740        47
42.760        30
42.780        27
42.800        23
42.820        17
42.840        33
42.860        23
42.880         7
42.900        20
42.920        37
42.940        27
42.960        40
42.980        20
43.000        47
43.020        40
43.040        50
43.060        33
43.080        33
43.100        60
43.120        40
43.140        63
43.160        43
43.180        87
43.200        77
43.220        97
43.240        87
43.260        97
43.280        77
43.300       117
43.320       137
43.340       163
43.360       213
43.380       157
43.400       133
43.420        90
43.440       120
43.460       103
43.480       120
43.500        80
43.520        60
43.540        63
43.560        43
43.580        33
43.600        27
43.620        27
43.640        30
43.660        23
43.680        17
43.700        37
43.720        17
43.740        30
43.760        10
43.780        30
43.800        17
43.820        30
43.840        27
43.860        23
43.880        17
43.900        17
43.920        27
43.940        30
43.960        30
43.980        23
44.000        33
44.020        23
44.040        20
44.060        17
44.080        17
44.100        20
44.120        27
44.140        47
44.160        23
44.180        40
44.200        10
44.220        33
44.240        20
44.260        23
44.280        20
44.300        23
44.320        20
44.340        13
44.360        40
44.380        33
44.400        37
44.420        20
44.440        20
44.460        33
44.480        23
44.500        30
44.520        27
44.540        30
44.560        20
44.580        13
44.600        37
44.620        33
44.640        30
44.660        33
44.680        27
44.700        33
44.720        27
44.740        30
44.760        30
44.780        20
44.800        27
44.820         7
44.840        20
44.860        40
44.880        27
44.900        20
44.920        43
44.940        53
44.960        23
44.980        20
45.000        47
45.020        37
45.040        37
45.060        23
45.080        30
45.100        47
45.120        40
45.140        23
45.160        27
45.180        30
45.200        30
45.220        27
45.240        27
45.260        30
45.280        30
45.300        23
45.320        20
45.340        37
45.360        13
45.380        30
45.400        37
45.420        40
45.440        17
45.460        47
45.480        20
45.500        17
45.520        40
45.540        30
45.560        50
45.580        47
45.600        70
45.620        37
45.640        23
45.660        37
45.680        33
45.700        60
45.720        73
45.740        70
45.760        37
45.780        90
45.800        63
45.820        77
45.840        93
45.860       117
45.880       150
45.900       117
45.920        90
45.940       110
45.960       103
45.980       173
46.000       160
46.020       127
46.040       107
46.060        77
46.080       117
46.100        70
46.120        83
46.140        80
46.160        67
46.180        40
46.200        83
46.220        60
46.240        50
46.260        43
46.280        37
46.300        30
46.320        37
46.340        33
46.360        60
46.380        23
46.400        23
46.420        30
46.440        43
46.460        33
46.480        43
46.500        27
46.520        13
46.540        27
46.560        17
46.580        10
46.600        33
46.620        37
46.640        30
46.660        40
46.680        40
46.700        13
46.720        37
46.740        40
46.760        33
46.780        17
46.800        40
46.820        23
46.840        20
46.860        40
46.880        20
46.900        33
46.920        13
46.940        20
46.960        23
46.980        20
47.000        23
47.020        37
47.040        27
47.060        30
47.080        23
47.100        43
47.120        43
47.140        30
47.160        30
47.180        23
47.200        33
47.220        40
47.240        50
47.260        43
47.280        40
47.300        27
47.320        57
47.340        17
47.360        30
47.380        33
47.400        30
47.420        53
47.440        40
47.460        70
47.480        30
47.500        50
47.520        30
47.540        33
47.560        43
47.580        57
47.600        30
47.620        27
47.640        30
47.660        37
47.680        43
47.700        27
47.720        47
47.740        40
47.760        20
47.780        13
47.800        13
47.820        23
47.840         7
47.860        17
47.880        23
47.900        10
47.920        23
47.940        13
47.960        30
47.980        17
48.000        30
48.020        17
48.040        30
48.060        30
48.080        17
48.100        17
48.120        37
48.140        17
48.160        23
48.180        27
48.200        27
48.220        13
48.240        33
48.260        20
48.280        17
48.300        17
48.320        23
48.340        40
48.360        23
48.380        37
48.400        30
48.420        37
48.440        43
48.460        57
48.480        17
48.500        47
48.520        43
48.540        57
48.560        23
48.580        40
48.600        53
48.620        47
48.640        33
48.660        33
48.680        17
48.700        43
48.720        23
48.740        13
48.760        20
48.780         7
48.800        23
48.820        20
48.840        10
48.860        20
48.880        20
48.900        17
48.920        30
48.940        27
48.960        10
48.980        37
49.000        10
49.020        40
49.040        37
49.060        23
49.080        30
49.100        17
49.120        20
49.140        37
49.160        13
49.180         3
49.200        13
49.220        30
49.240        37
49.260        23
49.280        27
49.300        17
49.320        27
49.340         3
49.360        23
49.380        20
49.400        23
49.420        23
49.440        27
49.460        27
49.480        30
49.500        13
49.520        13
49.540        23
49.560        17
49.580        33
49.600        17
49.620        23
49.640        17
49.660         7
49.680        20
49.700        13
49.720        20
49.740        40
49.760        13
49.780        13
49.800        13
49.820        13
49.840        37
49.860        23
49.880        27
49.900        27
49.920         7
49.940        33
49.960        40
49.980        17
50.000        20
50.020        20
50.040        23
50.060        23
50.080        13
50.100        17
50.120        30
50.140        17
50.160        27
50.180        13
50.200        20
50.220        20
50.240        23
50.260        23
50.280        23
50.300        27
50.320        27
50.340        37
50.360        17
50.380        27
50.400        23
50.420        13
50.440        27
50.460        20
50.480        33
50.500        37
50.520        20
50.540        17
50.560        30
50.580        17
50.600        20
50.620        13
50.640        40
50.660        33
50.680        27
50.700        27
50.720        23
50.740        17
50.760        27
50.780        43
50.800        27
50.820         7
50.840        17
50.860        20
50.880        30
50.900        17
50.920        20
50.940        17
50.960        13
50.980        40
51.000        10
51.020        23
51.040        13
51.060        40
51.080        20
51.100        23
51.120        17
51.140        33
51.160        27
51.180        33
51.200        27
51.220        33
51.240        23
51.260        30
51.280        20
51.300        20
51.320        30
51.340        17
51.360        13
51.380        40
51.400        17
51.420        17
51.440        27
51.460        30
51.480        10
51.500        20
51.520        37
51.540        37
51.560         7
51.580        23
51.600        17
51.620        27
51.640        43
51.660        23
51.680         7
51.700        23
51.720        27
51.740        10
51.760        13
51.780        27
51.800        27
51.820        33
51.840        13
51.860        23
51.880        17
51.900        17
51.920         7
51.940        13
51.960        13
51.980        20
52.000        27
52.020        10
52.040        27
52.060        20
52.080        20
52.100        37
52.120        13
52.140        10
52.160        13
52.180        10
52.200        20
52.220        40
52.240        20
52.260        20
52.280        27
52.300        30
52.320        47
52.340        40
52.360        27
52.380        27
52.400        20
52.420        37
52.440        30
52.460        30
52.480        40
52.500        50
52.520        87
52.540       153
52.560       240
52.580       310
52.600       426
52.620       353
52.640       190
52.660       177
52.680       107
52.700       153
52.720       147
52.740       223
52.760       183
52.780       113
52.800        50
52.820        37
52.840        40
52.860        17
52.880        23
52.900        27
52.920        13
52.940        27
52.960        27
52.980        20
53.000        23
53.020        20
53.040        20
53.060        17
53.080        23
53.100        10
53.120        37
53.140        20
53.160        17
53.180        20
53.200        20
53.220        13
53.240        17
53.260        20
53.280        20
53.300        20
53.320        13
53.340        20
53.360        10
53.380        17
53.400        17
53.420        20
53.440        23
53.460        20
53.480        10
53.500         7
53.520         7
53.540        13
53.560        17
53.580        23
53.600        23
53.620        13
53.640        13
53.660        10
53.680        13
53.700        13
53.720        27
53.740        27
53.760         7
53.780        13
53.800         3
53.820         7
53.840        13
53.860        30
53.880         7
53.900        13
53.920        23
53.940        20
53.960        20
53.980        23
54.000         7
54.020         7
54.040        13
54.060        13
54.080        10
54.100        20
54.120        13
54.140        20
54.160        13
54.180        20
54.200        13
54.220        23
54.240        13
54.260        40
54.280        20
54.300        23
54.320        13
54.340        30
54.360        23
54.380        17
54.400        17
54.420        17
54.440        13
54.460        13
54.480        10
54.500        20
54.520        40
54.540        17
54.560        17
54.580        23
54.600        17
54.620        10
54.640        17
54.660        10
54.680        27
54.700        27
54.720        20
54.740         7
54.760        13
54.780        23
54.800        13
54.820        17
54.840        40
54.860        27
54.880        20
54.900        20
54.920        43
54.940        20
54.960        23
54.980         7
55.000        17
55.020        13
55.040        20
55.060        33
55.080        30
55.100        13
55.120        10
55.140        10
55.160        17
55.180        27
55.200        27
55.220        20
55.240        17
55.260        20
55.280        13
55.300        17
55.320        27
55.340         7
55.360        10
55.380        20
55.400        10
55.420        27
55.440        20
55.460        20
55.480        13
55.500        23
55.520        13
55.540        13
55.560        17
55.580        13
55.600        13
55.620        13
55.640        17
55.660        37
55.680        17
55.700        23
55.720        10
55.740        23
55.760        13
55.780        20
55.800        20
55.820        33
55.840        23
55.860        30
55.880        10
55.900        20
55.920        13
55.940        13
55.960        13
55.980        20
56.000        33
56.020         3
56.040        17
56.060        13
56.080        20
56.100        27
56.120         3
56.140        23
56.160        13
56.180        27
56.200        27
56.220        20
56.240        33
56.260        20
56.280        13
56.300        20
56.320         7
56.340        17
56.360        20
56.380        20
56.400        17
56.420        27
56.440         7
56.460        13
56.480        27
56.500         7
56.520         7
56.540        30
56.560         7
56.580        23
56.600        13
56.620        23
56.640        30
56.660        30
56.680        27
56.700        20
56.720        20
56.740        33
56.760        27
56.780        13
56.800        20
56.820        30
56.840        13
56.860        27
56.880        23
56.900        10
56.920        17
56.940        13
56.960        37
56.980        23
57.000         7
57.020        13
57.040        20
57.060        23
57.080        20
57.100        23
57.120        17
57.140        20
57.160        40
57.180        30
57.200        43
57.220        20
57.240        17
57.260        30
57.280        43
57.300        60
57.320        50
57.340        70
57.360        53
57.380        70
57.400        77
57.420       110
57.440        93
57.460       147
57.480       210
57.500       350
57.520       413
57.540       440
57.560       387
57.580       260
57.600       163
57.620       170
57.640       143
57.660       153
57.680       310
57.700       183
57.720       193
57.740       143
57.760        70
57.780        80
57.800        47
57.820        17
57.840        43
57.860        10
57.880        13
57.900        13
57.920        20
57.940        33
57.960        13
57.980        17
58.000        13
58.020        40
58.040        17
58.060        13
58.080        37
58.100        27
58.120        17
58.140         7
58.160        27
58.180        33
58.200        23
58.220        10
58.240        27
58.260         7
58.280        30
58.300         7
58.320        23
58.340        17
58.360        13
58.380        17
58.400         0
58.420        10
58.440        30
58.460         3
58.480        27
58.500        30
58.520        40
58.540        17
58.560        17
58.580        10
58.600        37
58.620         3
58.640        13
58.660        37
58.680        17
58.700         7
58.720        20
58.740         7
58.760        23
58.780        27
58.800        27
58.820        10
58.840         7
58.860        10
58.880        17
58.900        27
58.920        13
58.940        17
58.960         7
58.980        17
59.000        23
59.020        10
59.040        23
59.060        20
59.080        27
59.100         7
59.120        17
59.140        10
59.160        27
59.180         3
59.200         7
59.220        17
59.240        17
59.260        10
59.280         7
59.300        10
59.320        17
59.340        20
59.360        27
59.380        10
59.400        13
59.420        17
59.440        23
59.460        30
59.480        20
59.500        27
59.520         7
59.540        47
59.560        13
59.580        20
59.600        17
59.620        30
59.640        20
59.660        17
59.680        13
59.700        23
59.720        23
59.740         0
59.760         0
59.780         0
59.800         0
59.820         0
59.840         0
59.860         0
59.880         0
59.900         0
59.920         0
59.940         0
59.960         0
59.980         0
60.000         0
