20.000        53
20.010        53
20.020        93
20.030        40
20.040        93
20.050        40
20.060        53
20.070        40
20.080        27
20.090        40
20.100        40
20.110        27
20.120        40
20.130        67
20.140        53
20.150        53
20.160        40
20.170        40
20.180        27
20.190        40
20.200        40
20.210        27
20.220        80
20.230        40
20.240        27
20.250        40
20.260        13
20.270        67
20.280        53
20.290        80
20.300        27
20.310        80
20.320        27
20.330        67
20.340        40
20.350        53
20.360        80
20.370         0
20.380         0
20.390        40
20.400         0
20.410         0
20.420        13
20.430        53
20.440        67
20.450        27
20.460        27
20.470        40
20.480        40
20.490        27
20.500        27
20.510        67
20.520        13
20.530         0
20.540        27
20.550        67
20.560        53
20.570        93
20.580        80
20.590        53
20.600        40
20.610        27
20.620        67
20.630        27
20.640        13
20.650        40
20.660        13
20.670        27
20.680        13
20.690        13
20.700        80
20.710        27
20.720        40
20.730        40
20.740        53
20.750         0
20.760        27
20.770         0
20.780        27
20.790        40
20.800        67
20.810        27
20.820        27
20.830        93
20.840        27
20.850        53
20.860        40
20.870        27
20.880        53
20.890        27
20.900        27
20.910        53
20.920        27
20.930        67
20.940        40
20.950        67
20.960         0
20.970        40
20.980       120
20.990        27
21.000        27
21.010        13
21.020        93
21.030       120
21.040        53
21.050        40
21.060        13
21.070        13
21.080        40
21.090        27
21.100        27
21.110        13
21.120        67
21.130        40
21.140        53
21.150        67
21.160        40
21.170        27
21.180        27
21.190        67
21.200        13
21.210        13
21.220        53
21.230        53
21.240        27
21.250         0
21.260        27
21.270        53
21.280        53
21.290        53
21.300        67
21.310        40
21.320        40
21.330        40
21.340        27
21.350        93
21.360        27
21.370        13
21.380        80
21.390        27
21.400        53
21.410        27
21.420        67
21.430        27
21.440        53
21.450        53
21.460        67
21.470        27
21.480        27
21.490        40
21.500         0
21.510        27
21.520        53
21.530        27
21.540        80
21.550        53
21.560        40
21.570        27
21.580        27
21.590        27
21.600        67
21.610        13
21.620        13
21.630        40
21.640        53
21.650        40
21.660        53
21.670        27
21.680        40
21.690        80
21.700        53
21.710        27
21.720        67
21.730        13
21.740        80
21.750        40
21.760        27
21.770        53
21.780        13
21.790        40
21.800        53
21.810       107
21.820        40
21.830        80
21.840        27
21.850        67
21.860        40
21.870        13
21.880        53
21.890        40
21.900        40
21.910        27
21.920        40
21.930        40
21.940        27
21.950        40
21.960        80
21.970        53
21.980        53
21.990        67
22.000        53
22.010        27
22.020        53
22.030        80
22.040        80
22.050        67
22.060        53
22.070        67
22.080        80
22.090        27
22.100        67
22.110        67
22.120       133
22.130        27
22.140        13
22.150        67
22.160        80
22.170        27
22.180        80
22.190        13
22.200        93
22.210        67
22.220        93
22.230        40
22.240        80
22.250        80
22.260        27
22.270        80
22.280        53
22.290        27
22.300        67
22.310        27
22.320        67
22.330        80
22.340        13
22.350        80
22.360        40
22.370        27
22.380        67
22.390        40
22.400        53
22.410        53
22.420        67
22.430        53
22.440        13
22.450        40
22.460       107
22.470        27
22.480        53
22.490        67
22.500        40
22.510        27
22.520        13
22.530        27
22.540        53
22.550        67
22.560        53
22.570        67
22.580        67
22.590        40
22.600        80
22.610        40
22.620         0
22.630       107
22.640        80
22.650        53
22.660        53
22.670        80
22.680        40
22.690        27
22.700        40
22.710         0
22.720        40
22.730        67
22.740         0
22.750        27
22.760        13
22.770        53
22.780        13
22.790        40
22.800        27
22.810        53
22.820        67
22.830        13
22.840        40
22.850        13
22.860        13
22.870        40
22.880        27
22.890        27
22.900        80
22.910        27
22.920        53
22.930        67
22.940        67
22.950        40
22.960        40
22.970        27
22.980        27
22.990        53
23.000        13
23.010        13
23.020        67
23.030        53
23.040        13
23.050        53
23.060        53
23.070        67
23.080        80
23.090        53
23.100        40
23.110        40
23.120        67
23.130        53
23.140        93
23.150        13
23.160        13
23.170        13
23.180        13
23.190        40
23.200        40
23.210        13
23.220        13
23.230        53
23.240        93
23.250        53
23.260         0
23.270        80
23.280        80
23.290        13
23.300        13
23.310        13
23.320        13
23.330        67
23.340        53
23.350        53
23.360        13
23.370        27
23.380        27
23.390        53
23.400        67
23.410        13
23.420        40
23.430        53
23.440        27
23.450        53
23.460        27
23.470         0
23.480        27
23.490        27
23.500        13
23.510        40
23.520         0
23.530        27
23.540        53
23.550        40
23.560        13
23.570        80
23.580        40
23.590        40
23.600        53
23.610        40
23.620        13
23.630        53
23.640        27
23.650        27
23.660        13
23.670        27
23.680        13
23.690        13
23.700        13
23.710        40
23.720        67
23.730        13
23.740        93
23.750        40
23.760        27
23.770        40
23.780        13
23.790        53
23.800         0
23.810        27
23.820        13
23.830        27
23.840        13
23.850        27
23.860        27
23.870        27
23.880        27
23.890        53
23.900        53
23.910         0
23.920        13
23.930        40
23.940        27
23.950         0
23.960        80
23.970        13
23.980        40
23.990        13
24.000        53
24.010        53
24.020        53
24.030        13
24.040        13
24.050        40
24.060        40
24.070        27
24.080        53
24.090        13
24.100        13
24.110        27
24.120        53
24.130        13
24.140        13
24.150        13
24.160        40
24.170         0
24.180        53
24.190        27
24.200        27
24.210        80
24.220        13
24.230        27
24.240        27
24.250        27
24.260        40
24.270        27
24.280        13
24.290        13
24.300        13
24.310        27
24.320        27
24.330        40
24.340        40
24.350        27
24.360        27
24.370        67
24.380        27
24.390        40
24.400        27
24.410        40
24.420        27
24.430        27
24.440        27
24.450        80
24.460         0
24.470        53
24.480        13
24.490        80
24.500        40
24.510        27
24.520        40
24.530        27
24.540        13
24.550        13
24.560        13
24.570        13
24.580        13
24.590        13
24.600        27
24.610         0
24.620        40
24.630        67
24.640         0
24.650        80
24.660        40
24.670        27
24.680        53
24.690        27
24.700        40
24.710         0
24.720        27
24.730        27
24.740        27
24.750        53
24.760         0
24.770        13
24.780        27
24.790        53
24.800        40
24.810        27
24.820        53
24.830         0
24.840        40
24.850        53
24.860        67
24.870        13
24.880        80
24.890        13
24.900        40
24.910        80
24.920        40
24.930        27
24.940        13
24.950        53
24.960        27
24.970        27
24.980        27
24.990        80
25.000        27
25.010        27
25.020        13
25.030        13
25.040         0
25.050        40
25.060        13
25.070        13
25.080        40
25.090        13
25.100       107
25.110        13
25.120        40
25.130        53
25.140        27
25.150        13
25.160        13
25.170        40
25.180         0
25.190        13
25.200        53
25.210        13
25.220        27
25.230        27
25.240        53
25.250        40
25.260        27
25.270         0
25.280        67
25.290         0
25.300        27
25.310        40
25.320        13
25.330        27
25.340        67
25.350        53
25.360        27
25.370         0
25.380        40
25.390        80
25.400        40
25.410        40
25.420         0
25.430        27
25.440        53
25.450        13
25.460        80
25.470        53
25.480       107
25.490        67
25.500        53
25.510        67
25.520        53
25.530        67
25.540        53
25.550        67
25.560        80
25.570        53
25.580       107
25.590        27
25.600       120
25.610        27
25.620        27
25.630        40
25.640        53
25.650        40
25.660        67
25.670        13
25.680        53
25.690        13
25.700        27
25.710        53
25.720        40
25.730        27
25.740        13
25.750        40
25.760        27
25.770        27
25.780        67
25.790        40
25.800        40
25.810        40
25.820        53
25.830        40
25.840        27
25.850        53
25.860        67
25.870        13
25.880        53
25.890        40
25.900        27
25.910        67
25.920        13
25.930        67
25.940         0
25.950        27
25.960        27
25.970        40
25.980        27
25.990        40
26.000        53
26.010        27
26.020        67
26.030        13
26.040         0
26.050        13
26.060        13
26.070        93
26.080        13
26.090         0
26.100        40
26.110        53
26.120        13
26.130        40
26.140        13
26.150        13
26.160        27
26.170        80
26.180        13
26.190        27
26.200        53
26.210         0
26.220        40
26.230        13
26.240         0
26.250        13
26.260        27
26.270        13
26.280         0
26.290        13
26.300        27
26.310        40
26.320        40
26.330        53
26.340        27
26.350        27
26.360        27
26.370        13
26.380         0
26.390        13
26.400         0
26.410        27
26.420        13
26.430        27
26.440        13
26.450        27
26.460        13
26.470        67
26.480        40
26.490        27
26.500        13
26.510        13
26.520        27
26.530        40
26.540        13
26.550        27
26.560        53
26.570        13
26.580        40
26.590        13
26.600        27
26.610        53
26.620         0
26.630        40
26.640        13
26.650        27
26.660        67
26.670         0
26.680         0
26.690        53
26.700        67
26.710        53
26.720        27
26.730        67
26.740        13
26.750        13
26.760        13
26.770        27
26.780        13
26.790        13
26.800        13
26.810        27
26.820        13
26.830        53
26.840        27
26.850        13
26.860        27
26.870        40
26.880        53
26.890        27
26.900        40
26.910        40
26.920        27
26.930        53
26.940        53
26.950        27
26.960        13
26.970        13
26.980        27
26.990        13
27.000        67
27.010        40
27.020        13
27.030         0
27.040        40
27.050        13
27.060        13
27.070        13
27.080        13
27.090        27
27.100        13
27.110        13
27.120        53
27.130         0
27.140        27
27.150        27
27.160        40
27.170        27
27.180        53
27.190        40
27.200        13
27.210        53
27.220        13
27.230        40
27.240        13
27.250         0
27.260        13
27.270        13
27.280        27
27.290        13
27.300         0
27.310        53
27.320        27
27.330        13
27.340        93
27.350         0
27.360         0
27.370        40
27.380        40
27.390        53
27.400        27
27.410        13
27.420        53
27.430        40
27.440        27
27.450        53
27.460        13
27.470        27
27.480         0
27.490         0
27.500        13
27.510        27
27.520        27
27.530        40
27.540        40
27.550        40
27.560        53
27.570        13
27.580        13
27.590        27
27.600        13
27.610        67
27.620        13
27.630         0
27.640        13
27.650        13
27.660        40
27.670        13
27.680        27
27.690        27
27.700        27
27.710        27
27.720        67
27.730        13
27.740        13
27.750        27
27.760        53
27.770        13
27.780        80
27.790        27
27.800        13
27.810        40
27.820        27
27.830        67
27.840        13
27.850         0
27.860        40
27.870        13
27.880        27
27.890        53
27.900         0
27.910        13
27.920        40
27.930         0
27.940        53
27.950        27
27.960        40
27.970        53
27.980        13
27.990        27
28.000         0
28.010        40
28.020        13
28.030        13
28.040        27
28.050        13
28.060        40
28.070         0
28.080        40
28.090        27
28.100        13
28.110        27
28.120        40
28.130        13
28.140         0
28.150        27
28.160         0
28.170        13
28.180        27
28.190         0
28.200        13
28.210        27
28.220        27
28.230        27
28.240        27
28.250        27
28.260        40
28.270        27
28.280        53
28.290        40
28.300        13
28.310        13
28.320        80
28.330        27
28.340        13
28.350        13
28.360         0
28.370        27
28.380        40
28.390        53
28.400         0
28.410        27
28.420        40
28.430        27
28.440         0
28.450        67
28.460        13
28.470        40
28.480        27
28.490        53
28.500        27
28.510        27
28.520        53
28.530        13
28.540         0
28.550        40
28.560        13
28.570        13
28.580        53
28.590         0
28.600        53
28.610        67
28.620         0
28.630        13
28.640        53
28.650        27
28.660        40
28.670        27
28.680        27
28.690        93
28.700         0
28.710        13
28.720        40
28.730        13
28.740        53
28.750        40
28.760        13
28.770        27
28.780        27
28.790        13
28.800         0
28.810        13
28.820        40
28.830        80
28.840         0
28.850        13
28.860        27
28.870        40
28.880        27
28.890        13
28.900        13
28.910        40
28.920        27
28.930        40
28.940        27
28.950         0
28.960        13
28.970        53
28.980        27
28.990         0
29.000        13
29.010        13
29.020        13
29.030        27
29.040         0
29.050         0
29.060        13
29.070        40
29.080        13
29.090        27
29.100        27
29.110        27
29.120        67
29.130        40
29.140        13
29.150        67
29.160        53
29.170        27
29.180        13
29.190         0
29.200        53
29.210         0
29.220         0
29.230        13
29.240         0
29.250        27
29.260        13
29.270        13
29.280        53
29.290        40
29.300        53
29.310         0
29.320        13
29.330         0
29.340         0
29.350        53
29.360        27
29.370        27
29.380        67
29.390        53
29.400        27
29.410         0
29.420        53
29.430        27
29.440        27
29.450        13
29.460        40
29.470        13
29.480        27
29.490        40
29.500         0
29.510        27
29.520        13
29.530         0
29.540        27
29.550        53
29.560        13
29.570        13
29.580        27
29.590        13
29.600        13
29.610        27
29.620        13
29.630        13
29.640        13
29.650        67
29.660        13
29.670        40
29.680        53
29.690        40
29.700         0
29.710        53
29.720         0
29.730        13
29.740        40
29.750        13
29.760        27
29.770        13
29.780         0
29.790        13
29.800        27
29.810        40
29.820        27
29.830        13
29.840         0
29.850        40
29.860         0
29.870        13
29.880        53
29.890        13
29.900        13
29.910        40
29.920        53
29.930        13
29.940        27
29.950        40
29.960        13
29.970        67
29.980        27
29.990        13
30.000        27
30.010        40
30.020        13
30.030         0
30.040        13
30.050        40
30.060        13
30.070        13
30.080        13
30.090        27
30.100        13
30.110        13
30.120         0
30.130        40
30.140         0
30.150        27
30.160        53
30.170        27
30.180        27
30.190        40
30.200        27
30.210        13
30.220        27
30.230        13
30.240        67
30.250        13
30.260        40
30.270         0
30.280        13
30.290        13
30.300        40
30.310        13
30.320        40
30.330         0
30.340        27
30.350        53
30.360         0
30.370         0
30.380         0
30.390         0
30.400        13
30.410        27
30.420         0
30.430        80
30.440        13
30.450        13
30.460        13
30.470        13
30.480        13
30.490        27
30.500        27
30.510        40
30.520        13
30.530        27
30.540        13
30.550        27
30.560        53
30.570        27
30.580        27
30.590        13
30.600        67
30.610        27
30.620        13
30.630        40
30.640        13
30.650        40
30.660        13
30.670        13
30.680        67
30.690        40
30.700         0
30.710        53
30.720        67
30.730         0
30.740        53
30.750        27
30.760        40
30.770        13
30.780        40
30.790        13
30.800        53
30.810        53
30.820        40
30.830        27
30.840        80
30.850        53
30.860        27
30.870        53
30.880        40
30.890        13
30.900        40
30.910        40
30.920        53
30.930        13
30.940        40
30.950        27
30.960        53
30.970        80
30.980        67
30.990        67
31.000        27
31.010        27
31.020        27
31.030        40
31.040        53
31.050        27
31.060        40
31.070        53
31.080        93
31.090        27
31.100        13
31.110        53
31.120        80
31.130        53
31.140        53
31.150        53
31.160        27
31.170        53
31.180        40
31.190        13
31.200        53
31.210        40
31.220        27
31.230        40
31.240        93
31.250        40
31.260        93
31.270        40
31.280        53
31.290       107
31.300        27
31.310        53
31.320        67
31.330        40
31.340        53
31.350        53
31.360        53
31.370       120
31.380        27
31.390        80
31.400        80
31.410        53
31.420       120
31.430        53
31.440        80
31.450        67
31.460        67
31.470        53
31.480        40
31.490        93
31.500       133
31.510       107
31.520        93
31.530        80
31.540       107
31.550       107
31.560       147
31.570       200
31.580       120
31.590        93
31.600        93
31.610       120
31.620        40
31.630        67
31.640       107
31.650       133
31.660        67
31.670        27
31.680        53
31.690        53
31.700       107
31.710        67
31.720        27
31.730        80
31.740        80
31.750        80
31.760        80
31.770        80
31.780        67
31.790        93
31.800        53
31.810       107
31.820        27
31.830        93
31.840        40
31.850        53
31.860        27
31.870        27
31.880        40
31.890        53
31.900        53
31.910        67
31.920        53
31.930        27
31.940        53
31.950        40
31.960        53
31.970        27
31.980        53
31.990        13
32.000        13
32.010        40
32.020        27
32.030        53
32.040        53
32.050        53
32.060        53
32.070        53
32.080        53
32.090        27
32.100        13
32.110        40
32.120        27
32.130        53
32.140        53
32.150        40
32.160        40
32.170        53
32.180        13
32.190        27
32.200        27
32.210        40
32.220        27
32.230        13
32.240        13
32.250        13
32.260        27
32.270        40
32.280        13
32.290        27
32.300        40
32.310        93
32.320        67
32.330        13
32.340        13
32.350        27
32.360        53
32.370        40
32.380        13
32.390        27
32.400        53
32.410        40
32.420        40
32.430        13
32.440        27
32.450        27
32.460        40
32.470        13
32.480        13
32.490        27
32.500        27
32.510        27
32.520        80
32.530        13
32.540        67
32.550        27
32.560        27
32.570         0
32.580        27
32.590        40
32.600        13
32.610         0
32.620        40
32.630        40
32.640        27
32.650        13
32.660         0
32.670        13
32.680        27
32.690        27
32.700        53
32.710         0
32.720        13
32.730        13
32.740        27
32.750         0
32.760         0
32.770        67
32.780        27
32.790         0
32.800        27
32.810        13
32.820        27
32.830        53
32.840         0
32.850        40
32.860        40
32.870        67
32.880        27
32.890        53
32.900        27
32.910        27
32.920         0
32.930         0
32.940        27
32.950        13
32.960        13
32.970        13
32.980        13
32.990        27
33.000        13
33.010        53
33.020        27
33.030         0
33.040        13
33.050         0
33.060        27
33.070        13
33.080         0
33.090        13
33.100        13
33.110        27
33.120        27
33.130        27
33.140        53
33.150        40
33.160        80
33.170        40
33.180        13
33.190        40
33.200         0
33.210        67
33.220        27
33.230        53
33.240        13
33.250        27
33.260        40
33.270        27
33.280        13
33.290        27
33.300        53
33.310        40
33.320        13
33.330        67
33.340        40
33.350        27
33.360         0
33.370        27
33.380        27
33.390        80
33.400        27
33.410        27
33.420        27
33.430        13
33.440         0
33.450        27
33.460        27
33.470        13
33.480        27
33.490         0
33.500         0
33.510        40
33.520        27
33.530        27
33.540        27
33.550        13
33.560        13
33.570        13
33.580        27
33.590         0
33.600        27
33.610         0
33.620        13
33.630        40
33.640        53
33.650        27
33.660         0
33.670        13
33.680        13
33.690        13
33.700         0
33.710        40
33.720        53
33.730        53
33.740         0
33.750        13
33.760        40
33.770        27
33.780        27
33.790        27
33.800        40
33.810        13
33.820        13
33.830        40
33.840         0
33.850         0
33.860        27
33.870        27
33.880        27
33.890        13
33.900        67
33.910        13
33.920        27
33.930        13
33.940         0
33.950        13
33.960        27
33.970        27
33.980        40
33.990        40
34.000        27
34.010        27
34.020        27
34.030        40
34.040        13
34.050        13
34.060        27
34.070        27
34.080        40
34.090         0
34.100        67
34.110         0
34.120         0
34.130        13
34.140        13
34.150         0
34.160        27
34.170         0
34.180        13
34.190        27
34.200         0
34.210        13
34.220        13
34.230         0
34.240        53
34.250        13
34.260        53
34.270        13
34.280        40
34.290         0
34.300        40
34.310         0
34.320        13
34.330        27
34.340        13
34.350        27
34.360        27
34.370        27
34.380         0
34.390        13
34.400        13
34.410        27
34.420        13
34.430        40
34.440        13
34.450        53
34.460        27
34.470        27
34.480        40
34.490        27
34.500        53
34.510        13
34.520        13
34.530        53
34.540        67
34.550         0
34.560        13
34.570        13
34.580        27
34.590        27
34.600        27
34.610        13
34.620        13
34.630        13
34.640        27
34.650        13
34.660         0
34.670        13
34.680        13
34.690        27
34.700        53
34.710        40
34.720         0
34.730        13
34.740        27
34.750         0
34.760         0
34.770        27
34.780        13
34.790        13
34.800        40
34.810        27
34.820        40
34.830         0
34.840        27
34.850        40
34.860        13
34.870        40
34.880        13
34.890        13
34.900        27
34.910        13
34.920        27
34.930        27
34.940        13
34.950         0
34.960        13
34.970         0
34.980        27
34.990        53
35.000        13
35.010        13
35.020        27
35.030        13
35.040        67
35.050        53
35.060        67
35.070        13
35.080        13
35.090        40
35.100        40
35.110        53
35.120       120
35.130        53
35.140        80
35.150       253
35.160       413
35.170       253
35.180       320
35.190       387
35.200       373
35.210       227
35.220       227
35.230       240
35.240       160
35.250       213
35.260       133
35.270       160
35.280       147
35.290       160
35.300       107
35.310       120
35.320        67
35.330       133
35.340        67
35.350        27
35.360        40
35.370        27
35.380         0
35.390        13
35.400         0
35.410        27
35.420        40
35.430         0
35.440        67
35.450        13
35.460        13
35.470        13
35.480         0
35.490        40
35.500        27
35.510        13
35.520         0
35.530         0
35.540        13
35.550         0
35.560        13
35.570        13
35.580        13
35.590        27
35.600        13
35.610        27
35.620        13
35.630        13
35.640        40
35.650        13
35.660        13
35.670        27
35.680        13
35.690        13
35.700        27
35.710        27
35.720        13
35.730        27
35.740        27
35.750         0
35.760        40
35.770        27
35.780        27
35.790        13
35.800        40
35.810        40
35.820        53
35.830        13
35.840        53
35.850        13
35.860        27
35.870        27
35.880        40
35.890        40
35.900        53
35.910        27
35.920        40
35.930         0
35.940         0
35.950        40
35.960        27
35.970         0
35.980        27
35.990        27
36.000         0
36.010        27
36.020        13
36.030        27
36.040        27
36.050        27
36.060        40
36.070        27
36.080        13
36.090        80
36.100        13
36.110         0
36.120        13
36.130        27
36.140        27
36.150        13
36.160        53
36.170        27
36.180         0
36.190        13
36.200        40
36.210        40
36.220         0
36.230         0
36.240        27
36.250         0
36.260         0
36.270        27
36.280        40
36.290        40
36.300         0
36.310        13
36.320        27
36.330        67
36.340        13
36.350        40
36.360        27
36.370        13
36.380        13
36.390        13
36.400        27
36.410        27
36.420        40
36.430        40
36.440         0
36.450        27
36.460         0
36.470        53
36.480        13
36.490        27
36.500         0
36.510        40
36.520        13
36.530         0
36.540        13
36.550        13
36.560        13
36.570         0
36.580        27
36.590        53
36.600        27
36.610        27
36.620        67
36.630         0
36.640         0
36.650        27
36.660        13
36.670        53
36.680        40
36.690         0
36.700        13
36.710        53
36.720         0
36.730        53
36.740        13
36.750        80
36.760        27
36.770         0
36.780        13
36.790        53
36.800        27
36.810        27
36.820        53
36.830        27
36.840        40
36.850        40
36.860        27
36.870        13
36.880        27
36.890        27
36.900        40
36.910        27
36.920        27
36.930        40
36.940        27
36.950        13
36.960         0
36.970        40
36.980        13
36.990        13
37.000        27
37.010        27
37.020        13
37.030        40
37.040        27
37.050        13
37.060        13
37.070        27
37.080         0
37.090        53
37.100        27
37.110        13
37.120        27
37.130        27
37.140        53
37.150        13
37.160         0
37.170        53
37.180        13
37.190        40
37.200        40
37.210        27
37.220        27
37.230       107
37.240        13
37.250        53
37.260        13
37.270         0
37.280        40
37.290        40
37.300        13
37.310        27
37.320        13
37.330        40
37.340         0
37.350        27
37.360         0
37.370        27
37.380        13
37.390         0
37.400         0
37.410        13
37.420         0
37.430         0
37.440        27
37.450        13
37.460        67
37.470         0
37.480        53
37.490        13
37.500        13
37.510         0
37.520        53
37.530         0
37.540        67
37.550        13
37.560        27
37.570        13
37.580        27
37.590        13
37.600        27
37.610        53
37.620        27
37.630        27
37.640        27
37.650        27
37.660        27
37.670        13
37.680         0
37.690        67
37.700        27
37.710        27
37.720        53
37.730        27
37.740        27
37.750        53
37.760        13
37.770        53
37.780        53
37.790        53
37.800        40
37.810        40
37.820       133
37.830        53
37.840        27
37.850        67
37.860        40
37.870        13
37.880        13
37.890        53
37.900        13
37.910        13
37.920        67
37.930        27
37.940        13
37.950        53
37.960         0
37.970        27
37.980        40
37.990        40
38.000        27
38.010        40
38.020        13
38.030         0
38.040         0
38.050        13
38.060        27
38.070        40
38.080        53
38.090         0
38.100         0
38.110         0
38.120        13
38.130        13
38.140        67
38.150         0
38.160        53
38.170        40
38.180        40
38.190         0
38.200        27
38.210        27
38.220        27
38.230         0
38.240        13
38.250        67
38.260        13
38.270        40
38.280        40
38.290        27
38.300        13
38.310        13
38.320         0
38.330         0
38.340        27
38.350        13
38.360         0
38.370        13
38.380         0
38.390        13
38.400         0
38.410        53
38.420         0
38.430        13
38.440        13
38.450        27
38.460        13
38.470        40
38.480        13
38.490        13
38.500         0
38.510        53
38.520        27
38.530        53
38.540         0
38.550        27
38.560        13
38.570        27
38.580        27
38.590        13
38.600        27
38.610         0
38.620        53
38.630        27
38.640        27
38.650        53
38.660        53
38.670        27
38.680        53
38.690        67
38.700        13
38.710        27
38.720        13
38.730        67
38.740        27
38.750        53
38.760        13
38.770        40
38.780        13
38.790        53
38.800        93
38.810        40
38.820       107
38.830        80
38.840        80
38.850        40
38.860        53
38.870        40
38.880        67
38.890       120
38.900        53
38.910       107
38.920        80
38.930        80
38.940        67
38.950        80
38.960        53
38.970        80
38.980        80
38.990       107
39.000       147
39.010       107
39.020       173
39.030       133
39.040       107
39.050        80
39.060       133
39.070       320
39.080       173
39.090       200
39.100       107
39.110       133
39.120        80
39.130        93
39.140       133
39.150        80
39.160       133
39.170        93
39.180       107
39.190       133
39.200        67
39.210        67
39.220       107
39.230        67
39.240       120
39.250        67
39.260        40
39.270        40
39.280        27
39.290        27
39.300        93
39.310        80
39.320        27
39.330        67
39.340        80
39.350        53
39.360        53
39.370        40
39.380        27
39.390        27
39.400         0
39.410        40
39.420        40
39.430        13
39.440        80
39.450        27
39.460        13
39.470        13
39.480         0
39.490        40
39.500        53
39.510        13
39.520        13
39.530        27
39.540        27
39.550        40
39.560        27
39.570        53
39.580        40
39.590        27
39.600        53
39.610        13
39.620        27
39.630        40
39.640        27
39.650        27
39.660        13
39.670        67
39.680        40
39.690         0
39.700        13
39.710        53
39.720        27
39.730        27
39.740        13
39.750         0
39.760        13
39.770        13
39.780        80
39.790        13
39.800         0
39.810        40
39.820        40
39.830         0
39.840        40
39.850        13
39.860         0
39.870        27
39.880        67
39.890        40
39.900         0
39.910        13
39.920        53
39.930         0
39.940        13
39.950        67
39.960        13
39.970        13
39.980        13
39.990        27
40.000         0
40.010         0
40.020        13
40.030        13
40.040        53
40.050         0
40.060        13
40.070        40
40.080        53
40.090        40
40.100        13
40.110        13
40.120        13
40.130        13
40.140        27
40.150        13
40.160        40
40.170        13
40.180        13
40.190        13
40.200        13
40.210        13
40.220         0
40.230        13
40.240        13
40.250        13
40.260        13
40.270        40
40.280        27
40.290        40
40.300        13
40.310        40
40.320        40
40.330        13
40.340        27
40.350        40
40.360         0
40.370         0
40.380        27
40.390        13
40.400         0
40.410        27
40.420        13
40.430        13
40.440        67
40.450        27
40.460         0
40.470         0
40.480        13
40.490        27
40.500        40
40.510        27
40.520        27
40.530        13
40.540        27
40.550         0
40.560         0
40.570        13
40.580        27
40.590         0
40.600        13
40.610        40
40.620         0
40.630        27
40.640        27
40.650        13
40.660        27
40.670        40
40.680        27
40.690        27
40.700        27
40.710         0
40.720         0
40.730        27
40.740         0
40.750         0
40.760        13
40.770        27
40.780        13
40.790        27
40.800        13
40.810        27
40.820        13
40.830        13
40.840        27
40.850        40
40.860        13
40.870        40
40.880        27
40.890        13
40.900         0
40.910        13
40.920        40
40.930        13
40.940        27
40.950        13
40.960        53
40.970        27
40.980        40
40.990        27
41.000        40
41.010        40
41.020        40
41.030        13
41.040        40
41.050        27
41.060        13
41.070        13
41.080        13
41.090        53
41.100        27
41.110        27
41.120        13
41.130        53
41.140        13
41.150         0
41.160        27
41.170         0
41.180        27
41.190        27
41.200        53
41.210        27
41.220        40
41.230        13
41.240        27
41.250        40
41.260        13
41.270         0
41.280        13
41.290        13
41.300         0
41.310        27
41.320        27
41.330        13
41.340        13
41.350         0
41.360        67
41.370        53
41.380        13
41.390        27
41.400        13
41.410        53
41.420        27
41.430         0
41.440        53
41.450        13
41.460        53
41.470        13
41.480        40
41.490        53
41.500         0
41.510        13
41.520        27
41.530        13
41.540        40
41.550        27
41.560       107
41.570         0
41.580       133
41.590        13
41.600        40
41.610        67
41.620        27
41.630        40
41.640        53
41.650        80
41.660       200
41.670       173
41.680       213
41.690       160
41.700       267
41.710       307
41.720       320
41.730       253
41.740       187
41.750        80
41.760       173
41.770       107
41.780       107
41.790       147
41.800       133
41.810       133
41.820       107
41.830       160
41.840       133
41.850       120
41.860        67
41.870        27
41.880        53
41.890        93
41.900        27
41.910        80
41.920         0
41.930        27
41.940        13
41.950        13
41.960        13
41.970        27
41.980        13
41.990        40
42.000        53
42.010        53
42.020        27
42.030        13
42.040        13
42.050        40
42.060        13
42.070        27
42.080        13
42.090        27
42.100         0
42.110        13
42.120        27
42.130        13
42.140        13
42.150        27
42.160        13
42.170        53
42.180        27
42.190        13
42.200        27
42.210        27
42.220        40
42.230        13
42.240        53
42.250        13
42.260        13
42.270        13
42.280        80
42.290        27
42.300         0
42.310        80
42.320        27
42.330        27
42.340        27
42.350        27
42.360        27
42.370        27
42.380         0
42.390        27
42.400        13
42.410         0
42.420        27
42.430        13
42.440        27
42.450        27
42.460         0
42.470        27
42.480        13
42.490        27
42.500         0
42.510        40
42.520        13
42.530         0
42.540         0
42.550         0
42.560         0
42.570         0
42.580        13
42.590         0
42.600        53
42.610        13
42.620        40
42.630        13
42.640        13
42.650        13
42.660        13
42.670        40
42.680        27
42.690        40
42.700        13
42.710        80
42.720        27
42.730        13
42.740        27
42.750        53
42.760        13
42.770        67
42.780        27
42.790         0
42.800         0
42.810        13
42.820        13
42.830        13
42.840        27
42.850        53
42.860        27
42.870        53
42.880        27
42.890        13
42.900        13
42.910         0
42.920         0
42.930         0
42.940         0
42.950        40
42.960        40
42.970        40
42.980         0
42.990        27
43.000        27
43.010        27
43.020        27
43.030        67
43.040        13
43.050        40
43.060        93
43.070        27
43.080        13
43.090        67
43.100        40
43.110        13
43.120         0
43.130        13
43.140        27
43.150        53
43.160        13
43.170        27
43.180        13
43.190        27
43.200        13
43.210        40
43.220        53
43.230        93
43.240        53
43.250        40
43.260        27
43.270        80
43.280        53
43.290        67
43.300        40
43.310        67
43.320        67
43.330        93
43.340        13
43.350       160
43.360       160
43.370       227
43.380       200
43.390       280
43.400       333
43.410       413
43.420       240
43.430       173
43.440       120
43.450       120
43.460       107
43.470       147
43.480       187
43.490        93
43.500       147
43.510       160
43.520        93
43.530        53
43.540       147
43.550       107
43.560        80
43.570        27
43.580        27
43.590        27
43.600        13
43.610        27
43.620        27
43.630        13
43.640        13
43.650        27
43.660        13
43.670        53
43.680        13
43.690         0
43.700        13
43.710        13
43.720        53
43.730        27
43.740        27
43.750        40
43.760        13
43.770        27
43.780        27
43.790         0
43.800        40
43.810        13
43.820         0
43.830        13
43.840        40
43.850        53
43.860         0
43.870        27
43.880        40
43.890        27
43.900        40
43.910        13
43.920         0
43.930         0
43.940         0
43.950        13
43.960        67
43.970        27
43.980        53
43.990        27
44.000        13
44.010        13
44.020        13
44.030        67
44.040        27
44.050        27
44.060        13
44.070        13
44.080        53
44.090        40
44.100        80
44.110        40
44.120        27
44.130        40
44.140        53
44.150        40
44.160        53
44.170        53
44.180        67
44.190        27
44.200         0
44.210        13
44.220        40
44.230        53
44.240        40
44.250        40
44.260        53
44.270         0
44.280        27
44.290        40
44.300        27
44.310        40
44.320        13
44.330        27
44.340        27
44.350        13
44.360        27
44.370        53
44.380        67
44.390        40
44.400        67
44.410        53
44.420        80
44.430        53
44.440        53
44.450        67
44.460        13
44.470        80
44.480        40
44.490        27
44.500        40
44.510        53
44.520        53
44.530        53
44.540        40
44.550        53
44.560       107
44.570        27
44.580        40
44.590        53
44.600        27
44.610        53
44.620        53
44.630        40
44.640        53
44.650        53
44.660        13
44.670        80
44.680        67
44.690        40
44.700        13
44.710        40
44.720        27
44.730        40
44.740        53
44.750        13
44.760       120
44.770        27
44.780        80
44.790        53
44.800        27
44.810       107
44.820        53
44.830        67
44.840        40
44.850        67
44.860        67
44.870        53
44.880        53
44.890        53
44.900       120
44.910        53
44.920        93
44.930       133
44.940        93
44.950        40
44.960        93
44.970       173
44.980       160
44.990        67
45.000        80
45.010       107
45.020        80
45.030        80
45.040        80
45.050        93
45.060       107
45.070        53
45.080       107
45.090        67
45.100        53
45.110       107
45.120       147
45.130        27
45.140       133
45.150        67
45.160        67
45.170        13
45.180       107
45.190       107
45.200       107
45.210        80
45.220       133
45.230       120
45.240        80
45.250        67
45.260        53
45.270        80
45.280        53
45.290       147
45.300        27
45.310        53
45.320        40
45.330       107
45.340        67
45.350        93
45.360        80
45.370        80
45.380        27
45.390        80
45.400        53
45.410        93
45.420        53
45.430        53
45.440        80
45.450        93
45.460       107
45.470        27
45.480        93
45.490        67
45.500        80
45.510        13
45.520        13
45.530        67
45.540        80
45.550        67
45.560        80
45.570        67
45.580        67
45.590        40
45.600        13
45.610        53
45.620        40
45.630        53
45.640       107
45.650        27
45.660        27
45.670        80
45.680        80
45.690        53
45.700       107
45.710        53
45.720        27
45.730        27
45.740        13
45.750        27
45.760        53
45.770        27
45.780        13
45.790        27
45.800        27
45.810        67
45.820        80
45.830        53
45.840        40
45.850        27
45.860        67
45.870        27
45.880        27
45.890        40
45.900        40
45.910        27
45.920        53
45.930        13
45.940         0
45.950        13
45.960        40
45.970        67
45.980        53
45.990        40
46.000        67
46.010        27
46.020        13
46.030        13
46.040        40
46.050        53
46.060        80
46.070        27
46.080        27
46.090        40
46.100        13
46.110        13
46.120        13
46.130        13
46.140        13
46.150        40
46.160        40
46.170        53
46.180        27
46.190        80
46.200        27
46.210        53
46.220        27
46.230        40
46.240        67
46.250        53
46.260        13
46.270        27
46.280       120
46.290         0
46.300        40
46.310         0
46.320        27
46.330        80
46.340        13
46.350        27
46.360        27
46.370        27
46.380        53
46.390        53
46.400         0
46.410         0
46.420        53
46.430        27
46.440        13
46.450         0
46.460        13
46.470        13
46.480        13
46.490        13
46.500        40
46.510        27
46.520        53
46.530        27
46.540         0
46.550        40
46.560        40
46.570         0
46.580        13
46.590        67
46.600        27
46.610        40
46.620        53
46.630        13
46.640        27
46.650        27
46.660         0
46.670         0
46.680        40
46.690        27
46.700        13
46.710        27
46.720        13
46.730        40
46.740         0
46.750        13
46.760        40
46.770        13
46.780        40
46.790         0
46.800        27
46.810        67
46.820         0
46.830        13
46.840        27
46.850        53
46.860        27
46.870        13
46.880         0
46.890         0
46.900        53
46.910        13
46.920        27
46.930        27
46.940        13
46.950        40
46.960        27
46.970        27
46.980        27
46.990         0
47.000        13
47.010        40
47.020        53
47.030        40
47.040        27
47.050        13
47.060        27
47.070        27
47.080        27
47.090        40
47.100        40
47.110        40
47.120        27
47.130        13
47.140         0
47.150        53
47.160         0
47.170        13
47.180        13
47.190        13
47.200        40
47.210        27
47.220        40
47.230         0
47.240        27
47.250         0
47.260        13
47.270        13
47.280         0
47.290        27
47.300        13
47.310        13
47.320        27
47.330        40
47.340         0
47.350        27
47.360        40
47.370        13
47.380        40
47.390        13
47.400        13
47.410        13
47.420        53
47.430        13
47.440        27
47.450        27
47.460        27
47.470        13
47.480         0
47.490         0
47.500        13
47.510        53
47.520         0
47.530        40
47.540        40
47.550        40
47.560        53
47.570        27
47.580        27
47.590        13
47.600         0
47.610        27
47.620         0
47.630         0
47.640        13
47.650        27
47.660        13
47.670        13
47.680        27
47.690        13
47.700        13
47.710         0
47.720        13
47.730        40
47.740        40
47.750        13
47.760         0
47.770         0
47.780        13
47.790        27
47.800        40
47.810        27
47.820         0
47.830        13
47.840        27
47.850        27
47.860         0
47.870        40
47.880        27
47.890         0
47.900        13
47.910        13
47.920        27
47.930        27
47.940         0
47.950        13
47.960         0
47.970         0
47.980         0
47.990        13
48.000        27
48.010        13
48.020        27
48.030        27
48.040        27
48.050        13
48.060        27
48.070        13
48.080        80
48.090        13
48.100        13
48.110        53
48.120         0
48.130        27
48.140        13
48.150         0
48.160        13
48.170        13
48.180        13
48.190         0
48.200         0
48.210         0
48.220         0
48.230        13
48.240        13
48.250        27
48.260        13
48.270         0
48.280        53
48.290        13
48.300        13
48.310        40
48.320        40
48.330        27
48.340         0
48.350         0
48.360        13
48.370        27
48.380        27
48.390        27
48.400        53
48.410        13
48.420         0
48.430        13
48.440         0
48.450        27
48.460        27
48.470         0
48.480        27
48.490        27
48.500        27
48.510        27
48.520        40
48.530        40
48.540         0
48.550        13
48.560        13
48.570         0
48.580        53
48.590         0
48.600        40
48.610         0
48.620        13
48.630        53
48.640         0
48.650        27
48.660        13
48.670        27
48.680        27
48.690        13
48.700        13
48.710         0
48.720         0
48.730        13
48.740         0
48.750         0
48.760         0
48.770        13
48.780        27
48.790        13
48.800        13
48.810        40
48.820        13
48.830         0
48.840        27
48.850        27
48.860        13
48.870         0
48.880        27
48.890         0
48.900        27
48.910        27
48.920        13
48.930         0
48.940        13
48.950        27
48.960        27
48.970        13
48.980        27
48.990        27
49.000         0
49.010        13
49.020        13
49.030         0
49.040        27
49.050         0
49.060        27
49.070        27
49.080        40
49.090        27
49.100        27
49.110         0
49.120         0
49.130         0
49.140         0
49.150        13
49.160        27
49.170        40
49.180        27
49.190         0
49.200        67
49.210         0
49.220        13
49.230        27
49.240        13
49.250        13
49.260         0
49.270        13
49.280        27
49.290         0
49.300        27
49.310        40
49.320        27
49.330        27
49.340        13
49.350        13
49.360        53
49.370        13
49.380        13
49.390        13
49.400        13
49.410        13
49.420        13
49.430        27
49.440        27
49.450        27
49.460        27
49.470        13
49.480        13
49.490        27
49.500        40
49.510        40
49.520         0
49.530         0
49.540         0
49.550        13
49.560        13
49.570        67
49.580         0
49.590        27
49.600         0
49.610        13
49.620        67
49.630        13
49.640        40
49.650        27
49.660        67
49.670         0
49.680        13
49.690         0
49.700         0
49.710        13
49.720        13
49.730        13
49.740        13
49.750        40
49.760        27
49.770        27
49.780        13
49.790        27
49.800        13
49.810        27
49.820         0
49.830        27
49.840         0
49.850        27
49.860        27
49.870        13
49.880        40
49.890         0
49.900        13
49.910        27
49.920         0
49.930        27
49.940         0
49.950        40
49.960        13
49.970        27
49.980         0
49.990        27
50.000        27
50.010        53
50.020        27
50.030         0
50.040         0
50.050        13
50.060        27
50.070        13
50.080        13
50.090        27
50.100         0
50.110        27
50.120        13
50.130         0
50.140        13
50.150         0
50.160        13
50.170         0
50.180         0
50.190        40
50.200        27
50.210        27
50.220        13
50.230        40
50.240         0
50.250         0
50.260        67
50.270        13
50.280        13
50.290        13
50.300        27
50.310        27
50.320        40
50.330         0
50.340        40
50.350        13
50.360        40
50.370        40
50.380         0
50.390        27
50.400         0
50.410        13
50.420        13
50.430        27
50.440        27
50.450        67
50.460        13
50.470        13
50.480        27
50.490         0
50.500        13
50.510         0
50.520        27
50.530         0
50.540        13
50.550        40
50.560        40
50.570         0
50.580        13
50.590        13
50.600        13
50.610        13
50.620        40
50.630        27
50.640        27
50.650        27
50.660        27
50.670        40
50.680        13
50.690         0
50.700        27
50.710        13
50.720        27
50.730        53
50.740         0
50.750         0
50.760        40
50.770        53
50.780        13
50.790        13
50.800        13
50.810         0
50.820        13
50.830        13
50.840        13
50.850         0
50.860        13
50.870         0
50.880        27
50.890         0
50.900         0
50.910        53
50.920         0
50.930        40
50.940        53
50.950        40
50.960        13
50.970         0
50.980        40
50.990        53
51.000        13
51.010        13
51.020        27
51.030         0
51.040         0
51.050         0
51.060        40
51.070        27
51.080        40
51.090         0
51.100        27
51.110        13
51.120        27
51.130        27
51.140        13
51.150        13
51.160         0
51.170        27
51.180        40
51.190        53
51.200        40
51.210        27
51.220        13
51.230        27
51.240        13
51.250        13
51.260        27
51.270        27
51.280        13
51.290         0
51.300        40
51.310         0
51.320        13
51.330         0
51.340        27
51.350        27
51.360        13
51.370        27
51.380        40
51.390        13
51.400         0
51.410        53
51.420        13
51.430        53
51.440         0
51.450        27
51.460        13
51.470        27
51.480         0
51.490         0
51.500        27
51.510        27
51.520        27
51.530         0
51.540         0
51.550        13
51.560        13
51.570        13
51.580         0
51.590         0
51.600         0
51.610        53
51.620        13
51.630        27
51.640        13
51.650        27
51.660         0
51.670        13
51.680        13
51.690         0
51.700        13
51.710        13
51.720        13
51.730        27
51.740        13
51.750        13
51.760        27
51.770        53
51.780        13
51.790        53
51.800         0
51.810        27
51.820         0
51.830        13
51.840        27
51.850        27
51.860        27
51.870         0
51.880        13
51.890        53
51.900        13
51.910         0
51.920        40
51.930        13
51.940        13
51.950        27
51.960        27
51.970        13
51.980        13
51.990         0
52.000        13
52.010         0
52.020         0
52.030        13
52.040        40
52.050        13
52.060        13
52.070        40
52.080        40
52.090        27
52.100        13
52.110        53
52.120        13
52.130        13
52.140        13
52.150        27
52.160        13
52.170         0
52.180        13
52.190        27
52.200        13
52.210         0
52.220        13
52.230         0
52.240         0
52.250         0
52.260        13
52.270         0
52.280        40
52.290        53
52.300        13
52.310        67
52.320        40
52.330        13
52.340         0
52.350         0
52.360        67
52.370        40
52.380        27
52.390        53
52.400        27
52.410        13
52.420        40
52.430        67
52.440        27
52.450        27
52.460        27
52.470        93
52.480        40
52.490        80
52.500       107
52.510       147
52.520       160
52.530       200
52.540       253
52.550       187
52.560       280
52.570       293
52.580       213
52.590       293
52.600       360
52.610       307
52.620       293
52.630       227
52.640       187
52.650       160
52.660        80
52.670       147
52.680       120
52.690       147
52.700       120
52.710        93
52.720       187
52.730       147
52.740       147
52.750       227
52.760       120
52.770       147
52.780       107
52.790        67
52.800        53
52.810        53
52.820        27
52.830        27
52.840        40
52.850        53
52.860        13
52.870        13
52.880         0
52.890         0
52.900         0
52.910        27
52.920        13
52.930        53
52.940         0
52.950         0
52.960        27
52.970        13
52.980        27
52.990        13
53.000        67
53.010        13
53.020         0
53.030        53
53.040         0
53.050         0
53.060        27
53.070         0
53.080        13
53.090         0
53.100        27
53.110        13
53.120        13
53.130        40
53.140        27
53.150        13
53.160        27
53.170         0
53.180        13
53.190         0
53.200        13
53.210        27
53.220        13
53.230         0
53.240        13
53.250         0
53.260         0
53.270        13
53.280        13
53.290        53
53.300        27
53.310        13
53.320        13
53.330        13
53.340         0
53.350        27
53.360        13
53.370        13
53.380        53
53.390        53
53.400         0
53.410        27
53.420        53
53.430        27
53.440        27
53.450         0
53.460         0
53.470         0
53.480        40
53.490         0
53.500        27
53.510         0
53.520        27
53.530        27
53.540        13
53.550         0
53.560        27
53.570        13
53.580        40
53.590         0
53.600         0
53.610        13
53.620        27
53.630        13
53.640        13
53.650         0
53.660        27
53.670        40
53.680        13
53.690        13
53.700         0
53.710         0
53.720        27
53.730        13
53.740         0
53.750        53
53.760        27
53.770        53
53.780         0
53.790         0
53.800        13
53.810         0
53.820        13
53.830         0
53.840        13
53.850         0
53.860         0
53.870        13
53.880         0
53.890         0
53.900         0
53.910        13
53.920        13
53.930        13
53.940         0
53.950        13
53.960        40
53.970        27
53.980        13
53.990        27
54.000         0
54.010         0
54.020        13
54.030        27
54.040        67
54.050         0
54.060        13
54.070         0
54.080        13
54.090         0
54.100        53
54.110         0
54.120        13
54.130        53
54.140         0
54.150        27
54.160        13
54.170        27
54.180        27
54.190         0
54.200         0
54.210        27
54.220         0
54.230        40
54.240        13
54.250         0
54.260         0
54.270        27
54.280         0
54.290         0
54.300         0
54.310        13
54.320         0
54.330         0
54.340         0
54.350         0
54.360        27
54.370        13
54.380        13
54.390        13
54.400        13
54.410        40
54.420        13
54.430         0
54.440        13
54.450         0
54.460         0
54.470        13
54.480        13
54.490         0
54.500         0
54.510         0
54.520         0
54.530         0
54.540        13
54.550        27
54.560        27
54.570        27
54.580        13
54.590        27
54.600         0
54.610        13
54.620        13
54.630        27
54.640         0
54.650        13
54.660         0
54.670        13
54.680        27
54.690         0
54.700        40
54.710         0
54.720        13
54.730        40
54.740        53
54.750         0
54.760        13
54.770        13
54.780        40
54.790        27
54.800        27
54.810        40
54.820        13
54.830         0
54.840        27
54.850         0
54.860        27
54.870        27
54.880         0
54.890        67
54.900        27
54.910         0
54.920        53
54.930        13
54.940        27
54.950         0
54.960        13
54.970         0
54.980         0
54.990        27
55.000        27
55.010        13
55.020         0
55.030        13
55.040        13
55.050         0
55.060         0
55.070        13
55.080        40
55.090        40
55.100        13
55.110        13
55.120        27
55.130         0
55.140        13
55.150         0
55.160         0
55.170        13
55.180        27
55.190        13
55.200        13
55.210        27
55.220        27
55.230        13
55.240        13
55.250        27
55.260        27
55.270         0
55.280        40
55.290         0
55.300        13
55.310         0
55.320         0
55.330        27
55.340        13
55.350        27
55.360        13
55.370        53
55.380        13
55.390         0
55.400        13
55.410        13
55.420         0
55.430        13
55.440        27
55.450        27
55.460        27
55.470         0
55.480        27
55.490        13
55.500        13
55.510        13
55.520         0
55.530         0
55.540        13
55.550         0
55.560        67
55.570        27
55.580        13
55.590        40
55.600         0
55.610         0
55.620        27
55.630         0
55.640         0
55.650        40
55.660         0
55.670        53
55.680        27
55.690        13
55.700         0
55.710        40
55.720        27
55.730        80
55.740        13
55.750        27
55.760        13
55.770        27
55.780         0
55.790        27
55.800        13
55.810        13
55.820         0
55.830        27
55.840         0
55.850         0
55.860        40
55.870        13
55.880        13
55.890        27
55.900        40
55.910        67
55.920        13
55.930        13
55.940        27
55.950        13
55.960        13
55.970        27
55.980        13
55.990        53
56.000         0
56.010        40
56.020        13
56.030        53
56.040        40
56.050        40
56.060         0
56.070        13
56.080         0
56.090        27
56.100        13
56.110        27
56.120        13
56.130        13
56.140        40
56.150         0
56.160         0
56.170        27
56.180        27
56.190        53
56.200        27
56.210        13
56.220        80
56.230        67
56.240        80
56.250        40
56.260        13
56.270        27
56.280         0
56.290        67
56.300        53
56.310        67
56.320        80
56.330        53
56.340        40
56.350        67
56.360        13
56.370        67
56.380        67
56.390        80
56.400        40
56.410        27
56.420        67
56.430        40
56.440        67
56.450        80
56.460        67
56.470        40
56.480        13
56.490        40
56.500        40
56.510        27
56.520       107
56.530        93
56.540        40
56.550        40
56.560        27
56.570        13
56.580        13
56.590        53
56.600        53
56.610        27
56.620        27
56.630        40
56.640        13
56.650        27
56.660        40
56.670        27
56.680        13
56.690        13
56.700         0
56.710        27
56.720        27
56.730         0
56.740        13
56.750        53
56.760        40
56.770        40
56.780        40
56.790        53
56.800        27
56.810        53
56.820        27
56.830        13
56.840        40
56.850         0
56.860        27
56.870        13
56.880         0
56.890         0
56.900        53
56.910        27
56.920        13
56.930        27
56.940        13
56.950        13
56.960        27
56.970        40
56.980        13
56.990        13
57.000        13
57.010        80
57.020        27
57.030        13
57.040         0
57.050        13
57.060         0
57.070        80
57.080        13
57.090        40
57.100        27
57.110        13
57.120        13
57.130        40
57.140        27
57.150        40
57.160        40
57.170        40
57.180        13
57.190        13
57.200         0
57.210        13
57.220        13
57.230        13
57.240        53
57.250        13
57.260        53
57.270        53
57.280        80
57.290        13
57.300        13
57.310        40
57.320         0
57.330        13
57.340        80
57.350        40
57.360         0
57.370        67
57.380        13
57.390         0
57.400        40
57.410        93
57.420        27
57.430        93
57.440        53
57.450        13
57.460       107
57.470        93
57.480       147
57.490       120
57.500       107
57.510        80
57.520       173
57.530        93
57.540       173
57.550        80
57.560       173
57.570        80
57.580       133
57.590        67
57.600        53
57.610        93
57.620        93
57.630       107
57.640        67
57.650        53
57.660        93
57.670        27
57.680        67
57.690       120
57.700       187
57.710        80
57.720        40
57.730        67
57.740        93
57.750        53
57.760        13
57.770        13
57.780        27
57.790        27
57.800        27
57.810        13
57.820        27
57.830        13
57.840        13
57.850        27
57.860        27
57.870        13
57.880        27
57.890        13
57.900        13
57.910         0
57.920         0
57.930        13
57.940        13
57.950        27
57.960        27
57.970        27
57.980        13
57.990         0
58.000        27
58.010        40
58.020         0
58.030        13
58.040         0
58.050        13
58.060        13
58.070         0
58.080        13
58.090         0
58.100        27
58.110         0
58.120        13
58.130         0
58.140        27
58.150        13
58.160        13
58.170        27
58.180         0
58.190        27
58.200        13
58.210         0
58.220         0
58.230        27
58.240        13
58.250         0
58.260        40
58.270        40
58.280        13
58.290         0
58.300        13
58.310        13
58.320        27
58.330        27
58.340         0
58.350        13
58.360        27
58.370        13
58.380         0
58.390        40
58.400         0
58.410         0
58.420        13
58.430        13
58.440         0
58.450        67
58.460         0
58.470        40
58.480         0
58.490        13
58.500        13
58.510        13
58.520        13
58.530         0
58.540         0
58.550        13
58.560         0
58.570         0
58.580        13
58.590        13
58.600        27
58.610        27
58.620        13
58.630        27
58.640        13
58.650        13
58.660         0
58.670        27
58.680        40
58.690        13
58.700         0
58.710        13
58.720        13
58.730         0
58.740        53
58.750        40
58.760         0
58.770        13
58.780         0
58.790        27
58.800        13
58.810         0
58.820        13
58.830        40
58.840        13
58.850        40
58.860        13
58.870        13
58.880        27
58.890        40
58.900         0
58.910        13
58.920        27
58.930        27
58.940        27
58.950        13
58.960         0
58.970        13
58.980        27
58.990        27
59.000         0
59.010         0
59.020        40
59.030        13
59.040        13
59.050        40
59.060         0
59.070        13
59.080        27
59.090        27
59.100        13
59.110        53
59.120        13
59.130         0
59.140        27
59.150        13
59.160        13
59.170        27
59.180        27
59.190         0
59.200         0
59.210        13
59.220        27
59.230         0
59.240        13
59.250        27
59.260         0
59.270        27
59.280        40
59.290         0
59.300        13
59.310        13
59.320        53
59.330        13
59.340        40
59.350         0
59.360        40
59.370         0
59.380        27
59.390        27
59.400        27
59.410        13
59.420        40
59.430        27
59.440        40
59.450        13
59.460         0
59.470         0
59.480        27
59.490         0
59.500        27
59.510         0
59.520        13
59.530         0
59.540         0
59.550        13
59.560        27
59.570        13
59.580        13
59.590        13
59.600        13
59.610        67
59.620        13
59.630        13
59.640         0
59.650         0
59.660        40
59.670        13
59.680        27
59.690         0
59.700        40
59.710        40
59.720        40
59.730        13
59.740        40
59.750        27
59.760        13
59.770        40
59.780         0
59.790        13
59.800        40
59.810        40
59.820        13
59.830        27
59.840        53
59.850        40
59.860         0
59.870        13
59.880        40
59.890         0
59.900        27
59.910         0
59.920        27
59.930        13
59.940        13
59.950         0
59.960         0
59.970        13
59.980        27
59.990         0
60.000        27
