20.000       606
20.020       606
20.040       673
20.060       596
20.080       723
20.100       773
20.120       673
20.140       690
20.160       676
20.180       700
20.200       586
20.220       783
20.240       586
20.260       623
20.280       753
20.300       606
20.320       620
20.340       760
20.360       710
20.380       616
20.400       666
20.420       596
20.440       580
20.460       673
20.480       656
20.500       653
20.520       656
20.540       630
20.560       586
20.580       666
20.600       776
20.620       710
20.640       636
20.660       583
20.680       633
20.700       713
20.720       703
20.740       593
20.760       670
20.780       613
20.800       640
20.820       663
20.840       683
20.860       670
20.880       650
20.900       646
20.920       776
20.940       740
20.960       603
20.980       596
21.000       700
21.020       623
21.040       746
21.060       656
21.080       696
21.100       583
21.120       673
21.140       626
21.160       573
21.180       646
21.200       663
21.220       596
21.240       610
21.260       650
21.280       646
21.300       623
21.320       653
21.340       603
21.360       586
21.380       656
21.400       686
21.420       643
21.440       716
21.460       596
21.480       690
21.500       700
21.520       706
21.540       743
21.560       723
21.580       676
21.600       713
21.620       776
21.640       760
21.660       803
21.680       833
21.700       850
21.720       980
21.740      1003
21.760       990
21.780      1106
21.800      1253
21.820      1173
21.840      1066
21.860      1213
21.880      1123
21.900      1010
21.920       986
21.940      1013
21.960       876
21.980       900
22.000       926
22.020       790
22.040       683
22.060       626
22.080       683
22.100       700
22.120       616
22.140       646
22.160       660
22.180       543
22.200       570
22.220       593
22.240       536
22.260       516
22.280       546
22.300       576
22.320       613
22.340       633
22.360       523
22.380       580
22.400       526
22.420       576
22.440       600
22.460       590
22.480       630
22.500       580
22.520       576
22.540       596
22.560       526
22.580       556
22.600       596
22.620       523
22.640       593
22.660       553
22.680       553
22.700       570
22.720       616
22.740       503
22.760       510
22.780       573
22.800       486
22.820       500
22.840       616
22.860       573
22.880       526
22.900       556
22.920       570
22.940       543
22.960       550
22.980       586
23.000       433
23.020       533
23.040       586
23.060       573
23.080       496
23.100       530
23.120       506
23.140       550
23.160       563
23.180       530
23.200       546
23.220       543
23.240       620
23.260       450
23.280       556
23.300       550
23.320       523
23.340       566
23.360       456
23.380       590
23.400       523
23.420       483
23.440       553
23.460       533
23.480       500
23.500       513
23.520       523
23.540       466
23.560       580
23.580       520
23.600       546
23.620       540
23.640       540
23.660       516
23.680       566
23.700       480
23.720       506
23.740       526
23.760       533
23.780       560
23.800       623
23.820       513
23.840       390
23.860       553
23.880       496
23.900       523
23.920       500
23.940       530
23.960       483
23.980       530
24.000       453
24.020       556
24.040       580
24.060       486
24.080       466
24.100       456
24.120       533
24.140       473
24.160       436
24.180       526
24.200       450
24.220       533
24.240       466
24.260       503
24.280       443
24.300       407
24.320       466
24.340       450
24.360       463
24.380       493
24.400       480
24.420       476
24.440       486
24.460       526
24.480       453
24.500       536
24.520       476
24.540       473
24.560       473
24.580       546
24.600       473
24.620       423
24.640       526
24.660       333
24.680       493
24.700       453
24.720       436
24.740       483
24.760       440
24.780       466
24.800       443
24.820       480
24.840       503
24.860       473
24.880       560
24.900       440
24.920       470
24.940       476
24.960       490
24.980       496
25.000       483
25.020       490
25.040       433
25.060       466
25.080       500
25.100       433
25.120       436
25.140       483
25.160       490
25.180       436
25.200       456
25.220       453
25.240       397
25.260       506
25.280       417
25.300       470
25.320       476
25.340       460
25.360       460
25.380       550
25.400       473
25.420       453
25.440       473
25.460       466
25.480       433
25.500       526
25.520       417
25.540       380
25.560       513
25.580       433
25.600       466
25.620       456
25.640       520
25.660       456
25.680       407
25.700       483
25.720       430
25.740       433
25.760       506
25.780       490
25.800       553
25.820       553
25.840       476
25.860       476
25.880       463
25.900       436
25.920       426
25.940       493
25.960       433
25.980       426
26.000       417
26.020       426
26.040       490
26.060       476
26.080       473
26.100       490
26.120       520
26.140       423
26.160       483
26.180       417
26.200       463
26.220       400
26.240       420
26.260       423
26.280       520
26.300       510
26.320       456
26.340       410
26.360       423
26.380       503
26.400       393
26.420       446
26.440       400
26.460       426
26.480       493
26.500       400
26.520       443
26.540       410
26.560       433
26.580       377
26.600       463
26.620       493
26.640       400
26.660       443
26.680       357
26.700       503
26.720       440
26.740       436
26.760       340
26.780       340
26.800       400
26.820       383
26.840       407
26.860       430
26.880       417
26.900       453
26.920       417
26.940       407
26.960       413
26.980       430
27.000       440
27.020       426
27.040       443
27.060       413
27.080       390
27.100       390
27.120       417
27.140       443
27.160       453
27.180       443
27.200       357
27.220       377
27.240       353
27.260       363
27.280       343
27.300       433
27.320       453
27.340       436
27.360       397
27.380       486
27.400       423
27.420       426
27.440       353
27.460       407
27.480       410
27.500       393
27.520       410
27.540       370
27.560       430
27.580       460
27.600       453
27.620       383
27.640       423
27.660       453
27.680       440
27.700       400
27.720       430
27.740       443
27.760       423
27.780       410
27.800       426
27.820       480
27.840       400
27.860       403
27.880       417
27.900       380
27.920       503
27.940       417
27.960       456
27.980       456
28.000       410
28.020       363
28.040       403
28.060       510
28.080       490
28.100       466
28.120       430
28.140       440
28.160       403
28.180       446
28.200       423
28.220       410
28.240       433
28.260       433
28.280       417
28.300       430
28.320       390
28.340       397
28.360       420
28.380       450
28.400       387
28.420       387
28.440       453
28.460       480
28.480       370
28.500       367
28.520       423
28.540       417
28.560       373
28.580       387
28.600       350
28.620       353
28.640       380
28.660       387
28.680       446
28.700       367
28.720       380
28.740       390
28.760       373
28.780       377
28.800       330
28.820       370
28.840       373
28.860       473
28.880       446
28.900       363
28.920       387
28.940       347
28.960       436
28.980       446
29.000       367
29.020       380
29.040       423
29.060       403
29.080       417
29.100       387
29.120       293
29.140       347
29.160       413
29.180       373
29.200       420
29.220       383
29.240       420
29.260       397
29.280       443
29.300       343
29.320       463
29.340       493
29.360       360
29.380       443
29.400       367
29.420       486
29.440       377
29.460       327
29.480       343
29.500       380
29.520       377
29.540       383
29.560       407
29.580       460
29.600       330
29.620       403
29.640       417
29.660       367
29.680       453
29.700       400
29.720       340
29.740       350
29.760       407
29.780       433
29.800       353
29.820       387
29.840       347
29.860       373
29.880       383
29.900       363
29.920       350
29.940       360
29.960       463
29.980       436
30.000       403
30.020       423
30.040       473
30.060       410
30.080       430
30.100       397
30.120       480
30.140       393
30.160       383
30.180       436
30.200       380
30.220       453
30.240       400
30.260       387
30.280       367
30.300       443
30.320       443
30.340       450
30.360       470
30.380       443
30.400       503
30.420       500
30.440       456
30.460       450
30.480       436
30.500       490
30.520       383
30.540       460
30.560       493
30.580       456
30.600       483
30.620       436
30.640       446
30.660       470
30.680       533
30.700       583
30.720       506
30.740       596
30.760       636
30.780       626
30.800       730
30.820       766
30.840       846
30.860       973
30.880      1170
30.900      1283
30.920      1466
30.940      1666
30.960      2043
30.980      2606
31.000      3139
31.020      3589
31.040      4062
31.060      4975
31.080      5598
31.100      6344
31.120      7064
31.140      7554
31.160      7470
31.180      7647
31.200      7427
31.220      6994
31.240      6304
31.260      6254
31.280      5468
31.300      4725
31.320      3695
31.340      2836
31.360      2432
31.380      1879
31.400      1529
31.420      1196
31.440       900
31.460       816
31.480       803
31.500       626
31.520       653
31.540       600
31.560       550
31.580       540
31.600       500
31.620       520
31.640       433
31.660       463
31.680       466
31.700       420
31.720       403
31.740       413
31.760       446
31.780       400
31.800       373
31.820       417
31.840       430
31.860       413
31.880       393
31.900       430
31.920       333
31.940       357
31.960       450
31.980       430
32.000       410
32.020       393
32.040       387
32.060       347
32.080       397
32.100       520
32.120       410
32.140       340
32.160       463
32.180       420
32.200       463
32.220       387
32.240       340
32.260       413
32.280       333
32.300       363
32.320       363
32.340       337
32.360       393
32.380       393
32.400       363
32.420       426
32.440       307
32.460       390
32.480       400
32.500       337
32.520       407
32.540       373
32.560       403
32.580       367
32.600       417
32.620       350
32.640       383
32.660       373
32.680       400
32.700       410
32.720       413
32.740       446
32.760       377
32.780       337
32.800       347
32.820       410
32.840       353
32.860       363
32.880       377
32.900       333
32.920       327
32.940       426
32.960       357
32.980       350
33.000       393
33.020       387
33.040       397
33.060       397
33.080       347
33.100       337
33.120       317
33.140       403
33.160       367
33.180       327
33.200       380
33.220       340
33.240       387
33.260       333
33.280       360
33.300       397
33.320       343
33.340       333
33.360       343
33.380       323
33.400       363
33.420       337
33.440       300
33.460       313
33.480       313
33.500       380
33.520       343
33.540       340
33.560       370
33.580       330
33.600       290
33.620       290
33.640       310
33.660       337
33.680       383
33.700       310
33.720       347
33.740       343
33.760       293
33.780       340
33.800       347
33.820       307
33.840       423
33.860       307
33.880       267
33.900       327
33.920       333
33.940       357
33.960       317
33.980       297
34.000       353
34.020       310
34.040       297
34.060       330
34.080       390
34.100       403
34.120       320
34.140       370
34.160       300
34.180       436
34.200       393
34.220       327
34.240       340
34.260       337
34.280       347
34.300       320
34.320       350
34.340       293
34.360       313
34.380       333
34.400       357
34.420       330
34.440       327
34.460       357
34.480       273
34.500       270
34.520       380
34.540       320
34.560       377
34.580       373
34.600       310
34.620       350
34.640       343
34.660       357
34.680       350
34.700       333
34.720       313
34.740       323
34.760       263
34.780       360
34.800       390
34.820       323
34.840       377
34.860       370
34.880       383
34.900       307
34.920       360
34.940       340
34.960       393
34.980       290
35.000       327
35.020       293
35.040       307
35.060       320
35.080       310
35.100       290
35.120       277
35.140       353
35.160       363
35.180       350
35.200       273
35.220       307
35.240       320
35.260       293
35.280       303
35.300       350
35.320       273
35.340       300
35.360       303
35.380       297
35.400       277
35.420       347
35.440       313
35.460       313
35.480       310
35.500       343
35.520       300
35.540       320
35.560       277
35.580       347
35.600       377
35.620       340
35.640       313
35.660       330
35.680       313
35.700       297
35.720       323
35.740       307
35.760       363
35.780       307
35.800       317
35.820       360
35.840       287
35.860       340
35.880       307
35.900       290
35.920       383
35.940       360
35.960       307
35.980       323
36.000       300
36.020       273
36.040       347
36.060       323
36.080       350
36.100       313
36.120       287
36.140       353
36.160       273
36.180       370
36.200       337
36.220       333
36.240       323
36.260       343
36.280       317
36.300       297
36.320       367
36.340       277
36.360       290
36.380       303
36.400       240
36.420       350
36.440       323
36.460       310
36.480       253
36.500       287
36.520       320
36.540       370
36.560       320
36.580       257
36.600       320
36.620       263
36.640       287
36.660       307
36.680       347
36.700       273
36.720       307
36.740       277
36.760       263
36.780       393
36.800       320
36.820       290
36.840       333
36.860       297
36.880       290
36.900       340
36.920       267
36.940       327
36.960       303
36.980       330
37.000       293
37.020       297
37.040       243
37.060       290
37.080       290
37.100       323
37.120       350
37.140       357
37.160       333
37.180       317
37.200       407
37.220       397
37.240       310
37.260       327
37.280       267
37.300       337
37.320       347
37.340       330
37.360       270
37.380       313
37.400       293
37.420       357
37.440       270
37.460       303
37.480       250
37.500       297
37.520       367
37.540       337
37.560       273
37.580       337
37.600       357
37.620       277
37.640       280
37.660       357
37.680       230
37.700       297
37.720       257
37.740       260
37.760       323
37.780       340
37.800       350
37.820       333
37.840       323
37.860       380
37.880       367
37.900       393
37.920       350
37.940       320
37.960       353
37.980       310
38.000       310
38.020       337
38.040       340
38.060       380
38.080       363
38.100       280
38.120       360
38.140       330
38.160       393
38.180       367
38.200       390
38.220       403
38.240       446
38.260       500
38.280       536
38.300       550
38.320       653
38.340       716
38.360       773
38.380      1040
38.400      1026
38.420      1230
38.440      1273
38.460      1433
38.480      1586
38.500      1536
38.520      1569
38.540      1879
38.560      1669
38.580      1713
38.600      1649
38.620      1459
38.640      1240
38.660      1080
38.680       966
38.700       786
38.720       713
38.740       633
38.760       526
38.780       453
38.800       430
38.820       380
38.840       327
38.860       350
38.880       330
38.900       436
38.920       290
38.940       300
38.960       300
38.980       373
39.000       343
39.020       340
39.040       277
39.060       343
39.080       303
39.100       267
39.120       293
39.140       383
39.160       310
39.180       313
39.200       317
39.220       313
39.240       253
39.260       310
39.280       240
39.300       327
39.320       303
39.340       337
39.360       243
39.380       307
39.400       297
39.420       267
39.440       340
39.460       340
39.480       300
39.500       323
39.520       287
39.540       257
39.560       263
39.580       317
39.600       283
39.620       287
39.640       293
39.660       300
39.680       333
39.700       277
39.720       330
39.740       337
39.760       300
39.780       300
39.800       260
39.820       320
39.840       300
39.860       260
39.880       333
39.900       250
39.920       240
39.940       323
39.960       323
39.980       320
40.000       353
40.020       377
40.040       280
40.060       240
40.080       270
40.100       313
40.120       327
40.140       253
40.160       277
40.180       280
40.200       283
40.220       300
40.240       280
40.260       257
40.280       270
40.300       337
40.320       257
40.340       253
40.360       280
40.380       247
40.400       330
40.420       307
40.440       350
40.460       330
40.480       233
40.500       333
40.520       280
40.540       283
40.560       273
40.580       280
40.600       300
40.620       293
40.640       307
40.660       337
40.680       287
40.700       303
40.720       343
40.740       350
40.760       280
40.780       277
40.800       297
40.820       313
40.840       350
40.860       357
40.880       273
40.900       350
40.920       350
40.940       247
40.960       307
40.980       287
41.000       313
41.020       297
41.040       267
41.060       317
41.080       313
41.100       290
41.120       300
41.140       340
41.160       353
41.180       317
41.200       340
41.220       297
41.240       257
41.260       293
41.280       303
41.300       277
41.320       323
41.340       323
41.360       270
41.380       343
41.400       327
41.420       270
41.440       290
41.460       327
41.480       303
41.500       257
41.520       267
41.540       247
41.560       357
41.580       263
41.600       257
41.620       300
41.640       307
41.660       253
41.680       277
41.700       250
41.720       277
41.740       263
41.760       293
41.780       290
41.800       370
41.820       307
41.840       293
41.860       310
41.880       277
41.900       287
41.920       277
41.940       297
41.960       323
41.980       310
42.000       310
42.020       327
42.040       327
42.060       320
42.080       313
42.100       300
42.120       233
42.140       247
42.160       273
42.180       250
42.200       267
42.220       263
42.240       233
42.260       263
42.280       307
42.300       263
42.320       323
42.340       207
42.360       273
42.380       327
42.400       287
42.420       233
42.440       277
42.460       303
42.480       277
42.500       297
42.520       277
42.540       290
42.560       307
42.580       293
42.600       253
42.620       290
42.640       260
42.660       260
42.680       350
42.700       273
42.720       293
42.740       360
42.760       233
42.780       297
42.800       300
42.820       280
42.840       320
42.860       303
42.880       217
42.900       260
42.920       277
42.940       300
42.960       263
42.980       310
43.000       257
43.020       260
43.040       277
43.060       327
43.080       333
43.100       307
43.120       323
43.140       313
43.160       273
43.180       293
43.200       237
43.220       303
43.240       293
43.260       283
43.280       283
43.300       280
43.320       280
43.340       287
43.360       300
43.380       260
43.400       297
43.420       247
43.440       290
43.460       300
43.480       273
43.500       280
43.520       263
43.540       233
43.560       280
43.580       263
43.600       313
43.620       323
43.640       253
43.660       310
43.680       253
43.700       247
43.720       293
43.740       293
43.760       260
43.780       343
43.800       250
43.820       313
43.840       290
43.860       303
43.880       283
43.900       297
43.920       310
43.940       287
43.960       340
43.980       350
44.000       337
44.020       280
44.040       343
44.060       297
44.080       327
44.100       283
44.120       317
44.140       340
44.160       390
44.180       377
44.200       466
44.220       443
44.240       423
44.260       486
44.280       460
44.300       490
44.320       526
44.340       616
44.360       636
44.380       666
44.400       720
44.420       660
44.440       803
44.460       746
44.480       800
44.500       700
44.520       646
44.540       783
44.560       843
44.580       730
44.600       703
44.620       740
44.640       686
44.660       680
44.680       663
44.700       656
44.720       600
44.740       620
44.760       606
44.780       616
44.800       590
44.820       543
44.840       476
44.860       430
44.880       403
44.900       463
44.920       400
44.940       393
44.960       350
44.980       327
45.000       383
45.020       397
45.040       287
45.060       397
45.080       347
45.100       340
45.120       323
45.140       297
45.160       290
45.180       307
45.200       290
45.220       347
45.240       273
45.260       287
45.280       313
45.300       323
45.320       337
45.340       283
45.360       333
45.380       267
45.400       320
45.420       277
45.440       277
45.460       333
45.480       273
45.500       340
45.520       273
45.540       333
45.560       330
45.580       297
45.600       303
45.620       340
45.640       357
45.660       333
45.680       233
45.700       300
45.720       280
45.740       283
45.760       367
45.780       310
45.800       230
45.820       257
45.840       333
45.860       303
45.880       333
45.900       237
45.920       330
45.940       290
45.960       250
45.980       263
46.000       287
46.020       293
46.040       313
46.060       280
46.080       267
46.100       237
46.120       323
46.140       223
46.160       233
46.180       287
46.200       307
46.220       293
46.240       267
46.260       290
46.280       327
46.300       260
46.320       313
46.340       277
46.360       297
46.380       237
46.400       290
46.420       293
46.440       353
46.460       287
46.480       280
46.500       293
46.520       217
46.540       267
46.560       290
46.580       217
46.600       290
46.620       333
46.640       237
46.660       263
46.680       243
46.700       260
46.720       297
46.740       300
46.760       290
46.780       260
46.800       270
46.820       257
46.840       283
46.860       250
46.880       243
46.900       260
46.920       243
46.940       323
46.960       303
46.980       283
47.000       230
47.020       260
47.040       277
47.060       270
47.080       250
47.100       280
47.120       320
47.140       277
47.160       243
47.180       247
47.200       260
47.220       290
47.240       263
47.260       327
47.280       287
47.300       290
47.320       317
47.340       247
47.360       330
47.380       283
47.400       253
47.420       280
47.440       307
47.460       263
47.480       243
47.500       303
47.520       267
47.540       247
47.560       307
47.580       273
47.600       250
47.620       273
47.640       273
47.660       260
47.680       287
47.700       277
47.720       277
47.740       230
47.760       250
47.780       310
47.800       280
47.820       263
47.840       253
47.860       293
47.880       307
47.900       270
47.920       263
47.940       253
47.960       297
47.980       297
48.000       303
48.020       280
48.040       247
48.060       263
48.080       280
48.100       283
48.120       273
48.140       263
48.160       280
48.180       220
48.200       237
48.220       283
48.240       230
48.260       250
48.280       213
48.300       283
48.320       287
48.340       223
48.360       237
48.380       240
48.400       233
48.420       273
48.440       290
48.460       307
48.480       290
48.500       300
48.520       287
48.540       287
48.560       317
48.580       280
48.600       273
48.620       230
48.640       273
48.660       233
48.680       237
48.700       293
48.720       257
48.740       253
48.760       267
48.780       277
48.800       340
48.820       280
48.840       340
48.860       290
48.880       270
48.900       307
48.920       293
48.940       260
48.960       280
48.980       303
49.000       327
49.020       280
49.040       220
49.060       267
49.080       263
49.100       290
49.120       250
49.140       327
49.160       300
49.180       290
49.200       287
49.220       257
49.240       263
49.260       323
49.280       323
49.300       253
49.320       217
49.340       267
49.360       260
49.380       297
49.400       280
49.420       267
49.440       233
49.460       260
49.480       233
49.500       267
49.520       317
49.540       253
49.560       287
49.580       260
49.600       303
49.620       253
49.640       277
49.660       250
49.680       300
49.700       250
49.720       237
49.740       343
49.760       273
49.780       377
49.800       297
49.820       283
49.840       313
49.860       290
49.880       280
49.900       327
49.920       307
49.940       377
49.960       340
49.980       327
50.000       333
50.020       320
50.040       357
50.060       333
50.080       323
50.100       267
50.120       313
50.140       380
50.160       377
50.180       470
50.200       440
50.220       423
50.240       460
50.260       496
50.280       533
50.300       460
50.320       506
50.340       500
50.360       480
50.380       483
50.400       533
50.420       490
50.440       463
50.460       523
50.480       473
50.500       460
50.520       420
50.540       420
50.560       397
50.580       403
50.600       446
50.620       397
50.640       347
50.660       373
50.680       317
50.700       433
50.720       300
50.740       327
50.760       307
50.780       287
50.800       303
50.820       340
50.840       330
50.860       333
50.880       310
50.900       307
50.920       257
50.940       303
50.960       327
50.980       357
51.000       327
51.020       313
51.040       320
51.060       357
51.080       300
51.100       290
51.120       340
51.140       363
51.160       280
51.180       357
51.200       303
51.220       287
51.240       303
51.260       300
51.280       360
51.300       333
51.320       297
51.340       367
51.360       273
51.380       340
51.400       270
51.420       320
51.440       340
51.460       347
51.480       350
51.500       380
51.520       387
51.540       283
51.560       350
51.580       327
51.600       357
51.620       357
51.640       310
51.660       363
51.680       343
51.700       367
51.720       357
51.740       337
51.760       377
51.780       380
51.800       373
51.820       317
51.840       317
51.860       350
51.880       357
51.900       290
51.920       360
51.940       347
51.960       307
51.980       353
52.000       373
52.020       310
52.040       353
52.060       353
52.080       320
52.100       270
52.120       297
52.140       297
52.160       280
52.180       383
52.200       373
52.220       280
52.240       387
52.260       283
52.280       297
52.300       387
52.320       397
52.340       293
52.360       407
52.380       330
52.400       390
52.420       363
52.440       423
52.460       337
52.480       373
52.500       367
52.520       360
52.540       410
52.560       397
52.580       327
52.600       360
52.620       343
52.640       430
52.660       327
52.680       343
52.700       393
52.720       310
52.740       330
52.760       347
52.780       297
52.800       357
52.820       377
52.840       313
52.860       367
52.880       377
52.900       303
52.920       327
52.940       333
52.960       340
52.980       297
53.000       320
53.020       380
53.040       297
53.060       363
53.080       317
53.100       287
53.120       320
53.140       323
53.160       320
53.180       430
53.200       293
53.220       320
53.240       347
53.260       330
53.280       350
53.300       367
53.320       273
53.340       373
53.360       353
53.380       307
53.400       300
53.420       320
53.440       313
53.460       287
53.480       267
53.500       330
53.520       317
53.540       300
53.560       313
53.580       330
53.600       320
53.620       320
53.640       333
53.660       340
53.680       337
53.700       320
53.720       270
53.740       343
53.760       303
53.780       330
53.800       327
53.820       293
53.840       287
53.860       377
53.880       300
53.900       330
53.920       287
53.940       263
53.960       310
53.980       343
54.000       287
54.020       307
54.040       293
54.060       280
54.080       307
54.100       357
54.120       317
54.140       247
54.160       307
54.180       357
54.200       333
54.220       317
54.240       310
54.260       237
54.280       260
54.300       293
54.320       273
54.340       250
54.360       300
54.380       283
54.400       290
54.420       300
54.440       273
54.460       293
54.480       287
54.500       297
54.520       243
54.540       263
54.560       290
54.580       267
54.600       300
54.620       310
54.640       313
54.660       323
54.680       323
54.700       313
54.720       313
54.740       263
54.760       223
54.780       247
54.800       273
54.820       270
54.840       263
54.860       270
54.880       263
54.900       283
54.920       343
54.940       280
54.960       317
54.980       317
55.000       323
55.020       317
55.040       297
55.060       307
55.080       260
55.100       323
55.120       350
55.140       347
55.160       320
55.180       363
55.200       353
55.220       373
55.240       337
55.260       420
55.280       466
55.300       380
55.320       500
55.340       593
55.360       593
55.380       513
55.400       793
55.420       726
55.440       850
55.460      1033
55.480       966
55.500      1166
55.520      1253
55.540      1313
55.560      1476
55.580      1466
55.600      1543
55.620      1533
55.640      1606
55.660      1609
55.680      1539
55.700      1616
55.720      1579
55.740      1286
55.760      1256
55.780      1236
55.800      1220
55.820      1096
55.840       940
55.860       823
55.880       893
55.900       836
55.920       613
55.940       643
55.960       496
55.980       526
56.000       486
56.020       417
56.040       426
56.060       360
56.080       333
56.100       363
56.120       320
56.140       307
56.160       363
56.180       263
56.200       303
56.220       357
56.240       307
56.260       263
56.280       320
56.300       270
56.320       243
56.340       220
56.360       330
56.380       293
56.400       243
56.420       267
56.440       307
56.460       310
56.480       337
56.500       210
56.520       290
56.540       240
56.560       247
56.580       287
56.600       260
56.620       297
56.640       290
56.660       230
56.680       250
56.700       290
56.720       273
56.740       287
56.760       220
56.780       233
56.800       220
56.820       240
56.840       290
56.860       267
56.880       260
56.900       247
56.920       260
56.940       263
56.960       220
56.980       260
57.000       267
57.020       233
57.040       247
57.060       207
57.080       270
57.100       230
57.120       220
57.140       240
57.160       227
57.180       267
57.200       270
57.220       270
57.240       253
57.260       253
57.280       260
57.300       260
57.320       223
57.340       277
57.360       237
57.380       203
57.400       207
57.420       223
57.440       233
57.460       243
57.480       257
57.500       237
57.520       203
57.540       290
57.560       317
57.580       223
57.600       260
57.620       253
57.640       180
57.660       267
57.680       257
57.700       230
57.720       263
57.740       263
57.760       243
57.780       240
57.800       280
57.820       257
57.840       317
57.860       220
57.880       243
57.900       253
57.920       277
57.940       240
57.960       187
57.980       240
58.000       177
58.020       243
58.040       197
58.060       250
58.080       303
58.100       270
58.120       213
58.140       260
58.160       233
58.180       283
58.200       233
58.220       253
58.240       297
58.260       260
58.280       233
58.300       253
58.320       247
58.340       240
58.360       177
58.380       270
58.400       217
58.420       260
58.440       240
58.460       223
58.480       240
58.500       243
58.520       250
58.540       260
58.560       250
58.580       237
58.600       167
58.620       243
58.640       197
58.660       233
58.680       237
58.700       253
58.720       273
58.740       267
58.760       203
58.780       267
58.800       240
58.820       237
58.840       247
58.860       217
58.880       207
58.900       217
58.920       263
58.940       210
58.960       220
58.980       247
59.000       263
59.020       237
59.040       197
59.060       253
59.080       220
59.100       237
59.120       240
59.140       203
59.160       160
59.180       203
59.200       220
59.220       233
59.240       243
59.260       260
59.280       213
59.300       170
59.320       263
59.340       240
59.360       283
59.380       227
59.400       210
59.420       243
59.440       223
59.460       220
59.480       243
59.500       247
59.520       213
59.540       227
59.560       183
59.580       220
59.600       313
59.620       220
59.640       167
59.660       233
59.680       203
59.700       217
59.720       250
59.740       250
59.760       293
59.780       247
59.800       207
59.820       230
59.840        10
59.860         0
59.880         0
59.900         0
59.920         0
59.940         0
59.960         0
59.980         0
60.000         0
