20.000        93
20.010        20
20.020        53
20.030        47
20.040        40
20.050        13
20.060       153
20.070        20
20.080        40
20.090        67
20.100        33
20.110        40
20.120        47
20.130        33
20.140        53
20.150        60
20.160        40
20.170        40
20.180        27
20.190        27
20.200        53
20.210        40
20.220        20
20.230        27
20.240        33
20.250        27
20.260        40
20.270        20
20.280        47
20.290        93
20.300        33
20.310        33
20.320        47
20.330        40
20.340        33
20.350        40
20.360        33
20.370        40
20.380        40
20.390        33
20.400        27
20.410        47
20.420        40
20.430        53
20.440        33
20.450        47
20.460        47
20.470        47
20.480        27
20.490        60
20.500        33
20.510        33
20.520        47
20.530        27
20.540        33
20.550        20
20.560        20
20.570        47
20.580        47
20.590        20
20.600        20
20.610        67
20.620        60
20.630        13
20.640        27
20.650        33
20.660        27
20.670        67
20.680        60
20.690        47
20.700        20
20.710        47
20.720        53
20.730        20
20.740        27
20.750        33
20.760        60
20.770        47
20.780        27
20.790        47
20.800        20
20.810        27
20.820        40
20.830        20
20.840        27
20.850        27
20.860        47
20.870        40
20.880        20
20.890        20
20.900        40
20.910        27
20.920        53
20.930        27
20.940        53
20.950        40
20.960        53
20.970        13
20.980        53
20.990        33
21.000        60
21.010        20
21.020        20
21.030        40
21.040        53
21.050        73
21.060        27
21.070        20
21.080        40
21.090        40
21.100        47
21.110        40
21.120        40
21.130        33
21.140        60
21.150        33
21.160        47
21.170        67
21.180        27
21.190        67
21.200        27
21.210        20
21.220        40
21.230        20
21.240        20
21.250        27
21.260        20
21.270        40
21.280        13
21.290        47
21.300        40
21.310        27
21.320        20
21.330        27
21.340        40
21.350        47
21.360        53
21.370        60
21.380        20
21.390        27
21.400        53
21.410        60
21.420        53
21.430        60
21.440        40
21.450        47
21.460        40
21.470        53
21.480        53
21.490        13
21.500        27
21.510         7
21.520        33
21.530        47
21.540        40
21.550        40
21.560        33
21.570        40
21.580        73
21.590        40
21.600        40
21.610        60
21.620        60
21.630        27
21.640        27
21.650        53
21.660        33
21.670        47
21.680        27
21.690        27
21.700        33
21.710        47
21.720        27
21.730        27
21.740        33
21.750        27
21.760        47
21.770         7
21.780        47
21.790        13
21.800        33
21.810        20
21.820        40
21.830        53
21.840         0
21.850        13
21.860        40
21.870        27
21.880        40
21.890        27
21.900        40
21.910        33
21.920        33
21.930        47
21.940        47
21.950        13
21.960        20
21.970        33
21.980        27
21.990        33
22.000        47
22.010        33
22.020        40
22.030        47
22.040        33
22.050        47
22.060         7
22.070        13
22.080        33
22.090        60
22.100        20
22.110        40
22.120        53
22.130        40
22.140        47
22.150        40
22.160        40
22.170        40
22.180        47
22.190        20
22.200        53
22.210        47
22.220         0
22.230        53
22.240        13
22.250        33
22.260        73
22.270        60
22.280        20
22.290        40
22.300        40
22.310        33
22.320        60
22.330        60
22.340        13
22.350        40
22.360        67
22.370        27
22.380        67
22.390        33
22.400        13
22.410        27
22.420        60
22.430        53
22.440        13
22.450        73
22.460        40
22.470        60
22.480        53
22.490        47
22.500        40
22.510        53
22.520        20
22.530        47
22.540        33
22.550        20
22.560        40
22.570        27
22.580        67
22.590        40
22.600        20
22.610        33
22.620        53
22.630        47
22.640        33
22.650        47
22.660        13
22.670        33
22.680        40
22.690        33
22.700        33
22.710        20
22.720        53
22.730        27
22.740        40
22.750        27
22.760        27
22.770        47
22.780        47
22.790        33
22.800        47
22.810        47
22.820        33
22.830        47
22.840        27
22.850        47
22.860        47
22.870       107
22.880        87
22.890        47
22.900        47
22.910        80
22.920        47
22.930        53
22.940        27
22.950        33
22.960        60
22.970        33
22.980        40
22.990        47
23.000        40
23.010        33
23.020        53
23.030        73
23.040        73
23.050        20
23.060        67
23.070        60
23.080        33
23.090        27
23.100        27
23.110        67
23.120        40
23.130        40
23.140        73
23.150        40
23.160        47
23.170        67
23.180        53
23.190        27
23.200        13
23.210        40
23.220        27
23.230        27
23.240        33
23.250        60
23.260        27
23.270        40
23.280        53
23.290        20
23.300        33
23.310        20
23.320        67
23.330        60
23.340        60
23.350        60
23.360        47
23.370        47
23.380        40
23.390        40
23.400        27
23.410        40
23.420        40
23.430        53
23.440        53
23.450        53
23.460        67
23.470        40
23.480        40
23.490        13
23.500        67
23.510        27
23.520        60
23.530        40
23.540        80
23.550        53
23.560        47
23.570        53
23.580        60
23.590        47
23.600        93
23.610        47
23.620        33
23.630        53
23.640        40
23.650        73
23.660        60
23.670        40
23.680        47
23.690        60
23.700        33
23.710        60
23.720        53
23.730        60
23.740        60
23.750        27
23.760        33
23.770        33
23.780        93
23.790        40
23.800        53
23.810        20
23.820        27
23.830        20
23.840        27
23.850        47
23.860        40
23.870        27
23.880        20
23.890        33
23.900        47
23.910        27
23.920        47
23.930         7
23.940        33
23.950        60
23.960        27
23.970        40
23.980        60
23.990         7
24.000         7
24.010        33
24.020        53
24.030        60
24.040        53
24.050        33
24.060        53
24.070        20
24.080        40
24.090        20
24.100        27
24.110        47
24.120        40
24.130        40
24.140        27
24.150        33
24.160        47
24.170        53
24.180        53
24.190        73
24.200        20
24.210        33
24.220        73
24.230        40
24.240        47
24.250        60
24.260        33
24.270        27
24.280        53
24.290        60
24.300        33
24.310        47
24.320        13
24.330        40
24.340        47
24.350        53
24.360        33
24.370        53
24.380        40
24.390        40
24.400        33
24.410        47
24.420        40
24.430        73
24.440        27
24.450        27
24.460        73
24.470        33
24.480        47
24.490        53
24.500        47
24.510        40
24.520        27
24.530        67
24.540        47
24.550        67
24.560        47
24.570        20
24.580       100
24.590        33
24.600        53
24.610        93
24.620        67
24.630        80
24.640        87
24.650        40
24.660        80
24.670        67
24.680        73
24.690        80
24.700        67
24.710        93
24.720        60
24.730        53
24.740        93
24.750        87
24.760       120
24.770        73
24.780        40
24.790        67
24.800       100
24.810        47
24.820        27
24.830        67
24.840        53
24.850        53
24.860        73
24.870       100
24.880        80
24.890        80
24.900        60
24.910       107
24.920        27
24.930        87
24.940        40
24.950        60
24.960        87
24.970        67
24.980        80
24.990        73
25.000        60
25.010        87
25.020        67
25.030        53
25.040        60
25.050        93
25.060        80
25.070        73
25.080        47
25.090        93
25.100        87
25.110        87
25.120       107
25.130        87
25.140        80
25.150        93
25.160        93
25.170       140
25.180        87
25.190        67
25.200        73
25.210        80
25.220       133
25.230       113
25.240       133
25.250       127
25.260       147
25.270       273
25.280       253
25.290       313
25.300       500
25.310       700
25.320       726
25.330      1066
25.340      1326
25.350      1593
25.360      2159
25.370      2546
25.380      3319
25.390      3699
25.400      4265
25.410      4658
25.420      4871
25.430      5491
25.440      5784
25.450      5911
25.460      6118
25.470      5991
25.480      5631
25.490      5018
25.500      5058
25.510      4325
25.520      3625
25.530      3199
25.540      2586
25.550      2319
25.560      1839
25.570      1426
25.580      1173
25.590       886
25.600       726
25.610       666
25.620       573
25.630       426
25.640       553
25.650       520
25.660       327
25.670       260
25.680       327
25.690       287
25.700       300
25.710       340
25.720       273
25.730       153
25.740       127
25.750       160
25.760        80
25.770       133
25.780       160
25.790        87
25.800       140
25.810       127
25.820        93
25.830        67
25.840       120
25.850       113
25.860       133
25.870        67
25.880        73
25.890        73
25.900        93
25.910        60
25.920       120
25.930       100
25.940        60
25.950        60
25.960        67
25.970       100
25.980        67
25.990        93
26.000        73
26.010        93
26.020        53
26.030        73
26.040        93
26.050        87
26.060        87
26.070       100
26.080        80
26.090        93
26.100        67
26.110        80
26.120        40
26.130        60
26.140        47
26.150        47
26.160        40
26.170        47
26.180        67
26.190        87
26.200        53
26.210        80
26.220       127
26.230        73
26.240       113
26.250        73
26.260        40
26.270        87
26.280        60
26.290       120
26.300        87
26.310        80
26.320        67
26.330        93
26.340       107
26.350        33
26.360        47
26.370        60
26.380        67
26.390        60
26.400        47
26.410        87
26.420        73
26.430        60
26.440        40
26.450        67
26.460        60
26.470        80
26.480        60
26.490        60
26.500        80
26.510       100
26.520        87
26.530        80
26.540        60
26.550        93
26.560        87
26.570       107
26.580        40
26.590        80
26.600       100
26.610       100
26.620        73
26.630       133
26.640        87
26.650        80
26.660        87
26.670        87
26.680        67
26.690        47
26.700        80
26.710        60
26.720        67
26.730        73
26.740        60
26.750        53
26.760        40
26.770       140
26.780        73
26.790       107
26.800        80
26.810        73
26.820        80
26.830       113
26.840        53
26.850        80
26.860        53
26.870        73
26.880        80
26.890        40
26.900        60
26.910        80
26.920        40
26.930        53
26.940        33
26.950        60
26.960        60
26.970        87
26.980        80
26.990        60
27.000       113
27.010        73
27.020        80
27.030        67
27.040        53
27.050        60
27.060        80
27.070        67
27.080        33
27.090        53
27.100        93
27.110        87
27.120        33
27.130        53
27.140        87
27.150        47
27.160        60
27.170        73
27.180        20
27.190        40
27.200        60
27.210       100
27.220       113
27.230        53
27.240       100
27.250       100
27.260        60
27.270        60
27.280        73
27.290        60
27.300        73
27.310        47
27.320        53
27.330        47
27.340        53
27.350        67
27.360        60
27.370        60
27.380        60
27.390        27
27.400        93
27.410        60
27.420        47
27.430        27
27.440        47
27.450        80
27.460        67
27.470        47
27.480        47
27.490        80
27.500        87
27.510        67
27.520        20
27.530       113
27.540        73
27.550        73
27.560        33
27.570        67
27.580        67
27.590        73
27.600        67
27.610        73
27.620        47
27.630        87
27.640        67
27.650        73
27.660        67
27.670        33
27.680        67
27.690        27
27.700        67
27.710        93
27.720        60
27.730       100
27.740        60
27.750        47
27.760        87
27.770        40
27.780        40
27.790       120
27.800        60
27.810        67
27.820        67
27.830        67
27.840        47
27.850        73
27.860        73
27.870        87
27.880        87
27.890        53
27.900        60
27.910        53
27.920        53
27.930        60
27.940        80
27.950       113
27.960        53
27.970        53
27.980        73
27.990        80
28.000        73
28.010        40
28.020        73
28.030        80
28.040        60
28.050        40
28.060        60
28.070        67
28.080        47
28.090        53
28.100        87
28.110        87
28.120        33
28.130        60
28.140        87
28.150        40
28.160        93
28.170        67
28.180        60
28.190        47
28.200       100
28.210        87
28.220        53
28.230        67
28.240        73
28.250       100
28.260        73
28.270        73
28.280        53
28.290        53
28.300        27
28.310        53
28.320        93
28.330        40
28.340        67
28.350       113
28.360        53
28.370        67
28.380       100
28.390        33
28.400        80
28.410        40
28.420        53
28.430        60
28.440        33
28.450        67
28.460        47
28.470        67
28.480        27
28.490        60
28.500        47
28.510        67
28.520        60
28.530        40
28.540        60
28.550        40
28.560        73
28.570        20
28.580        87
28.590        47
28.600        40
28.610       100
28.620        73
28.630        80
28.640        80
28.650        67
28.660        27
28.670        80
28.680        53
28.690        80
28.700        53
28.710        53
28.720        40
28.730        80
28.740        60
28.750        67
28.760        47
28.770        67
28.780        47
28.790       107
28.800        47
28.810        67
28.820        47
28.830        33
28.840        67
28.850        73
28.860        53
28.870        33
28.880        73
28.890        40
28.900       113
28.910        60
28.920        27
28.930        80
28.940        67
28.950        87
28.960        67
28.970        93
28.980        40
28.990        33
29.000       100
29.010        67
29.020        60
29.030       107
29.040        93
29.050        60
29.060        47
29.070        67
29.080        87
29.090        60
29.100        13
29.110        67
29.120        80
29.130        73
29.140        47
29.150        60
29.160        67
29.170        67
29.180        27
29.190        53
29.200        40
29.210        67
29.220        33
29.230        27
29.240        53
29.250        93
29.260        80
29.270        67
29.280        53
29.290        80
29.300        27
29.310        93
29.320        33
29.330        47
29.340        60
29.350        53
29.360        73
29.370        53
29.380        53
29.390        40
29.400        73
29.410        60
29.420        67
29.430        67
29.440        47
29.450        80
29.460        60
29.470        60
29.480        87
29.490        73
29.500        33
29.510        53
29.520        80
29.530        67
29.540        93
29.550        80
29.560        73
29.570        53
29.580        73
29.590        67
29.600        53
29.610        73
29.620       107
29.630        60
29.640        27
29.650        87
29.660        53
29.670        67
29.680       100
29.690        67
29.700        47
29.710        87
29.720        67
29.730        53
29.740        47
29.750        87
29.760        33
29.770       100
29.780        53
29.790        73
29.800        60
29.810        73
29.820        87
29.830        40
29.840        67
29.850       107
29.860        60
29.870        60
29.880       100
29.890        60
29.900        80
29.910        67
29.920        40
29.930        67
29.940        60
29.950        60
29.960        73
29.970        67
29.980        87
29.990        33
30.000        20
30.010        67
30.020        73
30.030        93
30.040        40
30.050       120
30.060        40
30.070        80
30.080        87
30.090        67
30.100       100
30.110        80
30.120        33
30.130        60
30.140       120
30.150        53
30.160        67
30.170        60
30.180        73
30.190        47
30.200        80
30.210        80
30.220       107
30.230       113
30.240       107
30.250        93
30.260        60
30.270        93
30.280        73
30.290        60
30.300       100
30.310        73
30.320        80
30.330        80
30.340        93
30.350        73
30.360       120
30.370       113
30.380        67
30.390       113
30.400        80
30.410        53
30.420        80
30.430       107
30.440       127
30.450        87
30.460       120
30.470        73
30.480        60
30.490        60
30.500        67
30.510        80
30.520        87
30.530        87
30.540        60
30.550        93
30.560       107
30.570       107
30.580       100
30.590       100
30.600       107
30.610       100
30.620        40
30.630       140
30.640       100
30.650        73
30.660       100
30.670        87
30.680        80
30.690        40
30.700        80
30.710        87
30.720        87
30.730        47
30.740        73
30.750       127
30.760       107
30.770       107
30.780        73
30.790        73
30.800        93
30.810        93
30.820       133
30.830        87
30.840       127
30.850       113
30.860        67
30.870        87
30.880        60
30.890       107
30.900        73
30.910       100
30.920        93
30.930       100
30.940        93
30.950        67
30.960       147
30.970        80
30.980        93
30.990        80
31.000       100
31.010       107
31.020       120
31.030        80
31.040       140
31.050       100
31.060       140
31.070        73
31.080        87
31.090        87
31.100       133
31.110       107
31.120        93
31.130       120
31.140       100
31.150       107
31.160        67
31.170        47
31.180       120
31.190        93
31.200        67
31.210        67
31.220        87
31.230       120
31.240       127
31.250       100
31.260       120
31.270       153
31.280        93
31.290        87
31.300        60
31.310       113
31.320        87
31.330       120
31.340       100
31.350       113
31.360       100
31.370       127
31.380       120
31.390       133
31.400       127
31.410       113
31.420       100
31.430        93
31.440       160
31.450        87
31.460       107
31.470       147
31.480       127
31.490       147
31.500        87
31.510       113
31.520       107
31.530        93
31.540       133
31.550       107
31.560       120
31.570       147
31.580       107
31.590       100
31.600       147
31.610       147
31.620       140
31.630       107
31.640       147
31.650       140
31.660       133
31.670       153
31.680        67
31.690       153
31.700       127
31.710       207
31.720       100
31.730       180
31.740       133
31.750       100
31.760       187
31.770       133
31.780       127
31.790       193
31.800       180
31.810       213
31.820       220
31.830       193
31.840       193
31.850       200
31.860       247
31.870       287
31.880       300
31.890       233
31.900       160
31.910       227
31.920       220
31.930       227
31.940       213
31.950       160
31.960       200
31.970       253
31.980       187
31.990       233
32.000       253
32.010       287
32.020       233
32.030       213
32.040       273
32.050       333
32.060       267
32.070       307
32.080       313
32.090       253
32.100       320
32.110       220
32.120       380
32.130       280
32.140       360
32.150       313
32.160       426
32.170       293
32.180       333
32.190       220
32.200       293
32.210       213
32.220       300
32.230       253
32.240       213
32.250       287
32.260       220
32.270       220
32.280       253
32.290       233
32.300       247
32.310       307
32.320       173
32.330       167
32.340       187
32.350       173
32.360       247
32.370       233
32.380       200
32.390       260
32.400       220
32.410       180
32.420       233
32.430       193
32.440       187
32.450       220
32.460       193
32.470       200
32.480       213
32.490       213
32.500       187
32.510       200
32.520       160
32.530       180
32.540       207
32.550       147
32.560       167
32.570       160
32.580       227
32.590       187
32.600       167
32.610       247
32.620       213
32.630       240
32.640       187
32.650       193
32.660       207
32.670       153
32.680       213
32.690       133
32.700       187
32.710       113
32.720       207
32.730       193
32.740       153
32.750       220
32.760       213
32.770       260
32.780       233
32.790       167
32.800       120
32.810       193
32.820       167
32.830       133
32.840       153
32.850       160
32.860       173
32.870       187
32.880       200
32.890       173
32.900       160
32.910       267
32.920       167
32.930       213
32.940       113
32.950       220
32.960       167
32.970       207
32.980       187
32.990       127
33.000       193
33.010       267
33.020       120
33.030       187
33.040       213
33.050       200
33.060       153
33.070       180
33.080       133
33.090       187
33.100       180
33.110       267
33.120       160
33.130       187
33.140       227
33.150       213
33.160       173
33.170       153
33.180       200
33.190       187
33.200       133
33.210       233
33.220       180
33.230       160
33.240       220
33.250       153
33.260       180
33.270       233
33.280       120
33.290       113
33.300       193
33.310       207
33.320       187
33.330       287
33.340       207
33.350       213
33.360       253
33.370       133
33.380       240
33.390       193
33.400       180
33.410       187
33.420       187
33.430       120
33.440       167
33.450       187
33.460       147
33.470       160
33.480       193
33.490       160
33.500       220
33.510       167
33.520       200
33.530       173
33.540       100
33.550       167
33.560       187
33.570       180
33.580       140
33.590       193
33.600       227
33.610       167
33.620       200
33.630       200
33.640       193
33.650       200
33.660       247
33.670       187
33.680       193
33.690       220
33.700       220
33.710       247
33.720       140
33.730       173
33.740       133
33.750       180
33.760       180
33.770       153
33.780       200
33.790       153
33.800       193
33.810       220
33.820       187
33.830       193
33.840       180
33.850       193
33.860       213
33.870       207
33.880       140
33.890       180
33.900       147
33.910       200
33.920       233
33.930       207
33.940       193
33.950       187
33.960       220
33.970       213
33.980       240
33.990       173
34.000       220
34.010       187
34.020       120
34.030       220
34.040       180
34.050       153
34.060       167
34.070       227
34.080       260
34.090       200
34.100       193
34.110       187
34.120       207
34.130       247
34.140       193
34.150       180
34.160       220
34.170       213
34.180       187
34.190       180
34.200       207
34.210       240
34.220       147
34.230       207
34.240       187
34.250       180
34.260       153
34.270       200
34.280       240
34.290       187
34.300       247
34.310       247
34.320       167
34.330       193
34.340       140
34.350       140
34.360       200
34.370       193
34.380       213
34.390       180
34.400       207
34.410       227
34.420       187
34.430       207
34.440       187
34.450       153
34.460       180
34.470       247
34.480       173
34.490       240
34.500       180
34.510       200
34.520       153
34.530       220
34.540       173
34.550       180
34.560       213
34.570       173
34.580       160
34.590       200
34.600       167
34.610       180
34.620       153
34.630       133
34.640       167
34.650       153
34.660       200
34.670       193
34.680       267
34.690       160
34.700       173
34.710       247
34.720       167
34.730       207
34.740       200
34.750       173
34.760       173
34.770       213
34.780       247
34.790       167
34.800       147
34.810       253
34.820       213
34.830       180
34.840       280
34.850       180
34.860       167
34.870       160
34.880       193
34.890       180
34.900       167
34.910       187
34.920       173
34.930       213
34.940       173
34.950       127
34.960       160
34.970       140
34.980       100
34.990       173
35.000       187
35.010       193
35.020       213
35.030       180
35.040       160
35.050       227
35.060       193
35.070       193
35.080       187
35.090       173
35.100       153
35.110       107
35.120       167
35.130       127
35.140       187
35.150       240
35.160       160
35.170       267
35.180       153
35.190       167
35.200       100
35.210       207
35.220       140
35.230       200
35.240       173
35.250       187
35.260       167
35.270       200
35.280       160
35.290       173
35.300       127
35.310       120
35.320       173
35.330       127
35.340       107
35.350       160
35.360       200
35.370       133
35.380       167
35.390       167
35.400       113
35.410       127
35.420       173
35.430       147
35.440       167
35.450       140
35.460       147
35.470       127
35.480       133
35.490       227
35.500       140
35.510       140
35.520       193
35.530       193
35.540       153
35.550       193
35.560       140
35.570       187
35.580       220
35.590       153
35.600       173
35.610       140
35.620       120
35.630       147
35.640       160
35.650       193
35.660       187
35.670       133
35.680       160
35.690       173
35.700       193
35.710       160
35.720       180
35.730       213
35.740       207
35.750       133
35.760       153
35.770       107
35.780       107
35.790       193
35.800       180
35.810       140
35.820       207
35.830       167
35.840        80
35.850       140
35.860       213
35.870       160
35.880       167
35.890       187
35.900       147
35.910       160
35.920       147
35.930       160
35.940       140
35.950       133
35.960       200
35.970        67
35.980       193
35.990       100
36.000       100
36.010       120
36.020       160
36.030       160
36.040       153
36.050       180
36.060       160
36.070       167
36.080       153
36.090       120
36.100       140
36.110       127
36.120       153
36.130       100
36.140       140
36.150       173
36.160       107
36.170       147
36.180       180
36.190       127
36.200       100
36.210       127
36.220       140
36.230       147
36.240       127
36.250       100
36.260       167
36.270       127
36.280       107
36.290       147
36.300       153
36.310       133
36.320       173
36.330       187
36.340       140
36.350       173
36.360       120
36.370       133
36.380       140
36.390       120
36.400       100
36.410       147
36.420       133
36.430       120
36.440       173
36.450       173
36.460       147
36.470       147
36.480       153
36.490        93
36.500       127
36.510        93
36.520       107
36.530       113
36.540        87
36.550       107
36.560       147
36.570        87
36.580       100
36.590       127
36.600       113
36.610       160
36.620       140
36.630       100
36.640       127
36.650        80
36.660       133
36.670        80
36.680       127
36.690       147
36.700       133
36.710        87
36.720       120
36.730       167
36.740       113
36.750       127
36.760       100
36.770       120
36.780       113
36.790       107
36.800       133
36.810       107
36.820        93
36.830       160
36.840       133
36.850        53
36.860       100
36.870       100
36.880        73
36.890       107
36.900       120
36.910       113
36.920       113
36.930       127
36.940       140
36.950       140
36.960       120
36.970       153
36.980       113
36.990        80
37.000       127
37.010        87
37.020       133
37.030        80
37.040       120
37.050       160
37.060        87
37.070       107
37.080       107
37.090       120
37.100        80
37.110       120
37.120       100
37.130       113
37.140       100
37.150       107
37.160       127
37.170        80
37.180        67
37.190        60
37.200        60
37.210       120
37.220       107
37.230        67
37.240        73
37.250        60
37.260        93
37.270       140
37.280        93
37.290       113
37.300       153
37.310        93
37.320       147
37.330       100
37.340        87
37.350       107
37.360        73
37.370       100
37.380        60
37.390       107
37.400        80
37.410       147
37.420       120
37.430        93
37.440       133
37.450        73
37.460       180
37.470       120
37.480        33
37.490       147
37.500        53
37.510       100
37.520       127
37.530        87
37.540        87
37.550       113
37.560       107
37.570        87
37.580       113
37.590        60
37.600       107
37.610       113
37.620       107
37.630        93
37.640       120
37.650        80
37.660        40
37.670        60
37.680       107
37.690        73
37.700        93
37.710        80
37.720        73
37.730        73
37.740        87
37.750       140
37.760        93
37.770        87
37.780        93
37.790        80
37.800        60
37.810       113
37.820       120
37.830        80
37.840       100
37.850        93
37.860        93
37.870        73
37.880        53
37.890        73
37.900        87
37.910       127
37.920        47
37.930        60
37.940        80
37.950       107
37.960        80
37.970        87
37.980        73
37.990        33
38.000       120
38.010        80
38.020        53
38.030        80
38.040        93
38.050       127
38.060        60
38.070        87
38.080        53
38.090        60
38.100        67
38.110        40
38.120        67
38.130        87
38.140        40
38.150        60
38.160       100
38.170        40
38.180        53
38.190        93
38.200        87
38.210        80
38.220        53
38.230        87
38.240        60
38.250        40
38.260       100
38.270        53
38.280        73
38.290        73
38.300        33
38.310        53
38.320        47
38.330       113
38.340        60
38.350        93
38.360        67
38.370        87
38.380        80
38.390        47
38.400        73
38.410        53
38.420        80
38.430       100
38.440        93
38.450        67
38.460        47
38.470        60
38.480        60
38.490        47
38.500        33
38.510        93
38.520        53
38.530        67
38.540        67
38.550        67
38.560        47
38.570        73
38.580       113
38.590        73
38.600        33
38.610        60
38.620        60
38.630        80
38.640        60
38.650        27
38.660       100
38.670        87
38.680        53
38.690        80
38.700        87
38.710        80
38.720       100
38.730        40
38.740        67
38.750        53
38.760        80
38.770        80
38.780        73
38.790        47
38.800        40
38.810        93
38.820        67
38.830        73
38.840        47
38.850        87
38.860        80
38.870        60
38.880        40
38.890        80
38.900        60
38.910        60
38.920        53
38.930        60
38.940        73
38.950        80
38.960        60
38.970        47
38.980        80
38.990        53
39.000        53
39.010        80
39.020        73
39.030       113
39.040        53
39.050        67
39.060        87
39.070        73
39.080        73
39.090        33
39.100        80
39.110        47
39.120        60
39.130        73
39.140        80
39.150        60
39.160        60
39.170        73
39.180        67
39.190        33
39.200        53
39.210        47
39.220        53
39.230        93
39.240        60
39.250        93
39.260        87
39.270        67
39.280        47
39.290        67
39.300        67
39.310        67
39.320        73
39.330        47
39.340        60
39.350        60
39.360        20
39.370        33
39.380        73
39.390        40
39.400        53
39.410        67
39.420        60
39.430        53
39.440        47
39.450        67
39.460        87
39.470        60
39.480        60
39.490        87
39.500        53
39.510        40
39.520        93
39.530        47
39.540        60
39.550        60
39.560        93
39.570        53
39.580        80
39.590        73
39.600        47
39.610        40
39.620        93
39.630        73
39.640        67
39.650        60
39.660        20
39.670        53
39.680        60
39.690        40
39.700        60
39.710        73
39.720       107
39.730        27
39.740        73
39.750        87
39.760        53
39.770        33
39.780        53
39.790       100
39.800       113
39.810        67
39.820        20
39.830        60
39.840        60
39.850        53
39.860        53
39.870        20
39.880        93
39.890        53
39.900        80
39.910        93
39.920        67
39.930        47
39.940        53
39.950        40
39.960        47
39.970        13
39.980        60
39.990        20
40.000        47
40.010        80
40.020        53
40.030        47
40.040        33
40.050        40
40.060        33
40.070        67
40.080        33
40.090        47
40.100        67
40.110        47
40.120        60
40.130        47
40.140        60
40.150        33
40.160        33
40.170        80
40.180        53
40.190        53
40.200        67
40.210        87
40.220        40
40.230        40
40.240        60
40.250        87
40.260        60
40.270        20
40.280        33
40.290        20
40.300        33
40.310        33
40.320        87
40.330        60
40.340        20
40.350        40
40.360        47
40.370        40
40.380        47
40.390        27
40.400        73
40.410        33
40.420        60
40.430        53
40.440        20
40.450        87
40.460        33
40.470        73
40.480        27
40.490        67
40.500        47
40.510        20
40.520        47
40.530        53
40.540        33
40.550        40
40.560        87
40.570        33
40.580        33
40.590        20
40.600        87
40.610        67
40.620        33
40.630        20
40.640        27
40.650        40
40.660        20
40.670        60
40.680        33
40.690        67
40.700        40
40.710        27
40.720        47
40.730        67
40.740        67
40.750        33
40.760        20
40.770        73
40.780        67
40.790        60
40.800        27
40.810        40
40.820        47
40.830        60
40.840        60
40.850        53
40.860        27
40.870        40
40.880        27
40.890        33
40.900        67
40.910        13
40.920        40
40.930        33
40.940        53
40.950        47
40.960        27
40.970        20
40.980        27
40.990        47
41.000        47
41.010        40
41.020        20
41.030        33
41.040        40
41.050        53
41.060        53
41.070        13
41.080        33
41.090        33
41.100        27
41.110        40
41.120        33
41.130        27
41.140        20
41.150        27
41.160        53
41.170        33
41.180        40
41.190        33
41.200        47
41.210        20
41.220        53
41.230        33
41.240        13
41.250        27
41.260        53
41.270        53
41.280        13
41.290        33
41.300        53
41.310        67
41.320        40
41.330        20
41.340        60
41.350        40
41.360        47
41.370        67
41.380        33
41.390        20
41.400        80
41.410        40
41.420        20
41.430        27
41.440        27
41.450        40
41.460        60
41.470        53
41.480        40
41.490        13
41.500        40
41.510        73
41.520        20
41.530        33
41.540        53
41.550        53
41.560        47
41.570        33
41.580        73
41.590        20
41.600        27
41.610        27
41.620        20
41.630        60
41.640        53
41.650        53
41.660        27
41.670        33
41.680         7
41.690        53
41.700        27
41.710        33
41.720        53
41.730        33
41.740        47
41.750        67
41.760        33
41.770        53
41.780        33
41.790        33
41.800        20
41.810        27
41.820        33
41.830        27
41.840        27
41.850         7
41.860        33
41.870        33
41.880        20
41.890        60
41.900        27
41.910        27
41.920        40
41.930        20
41.940        13
41.950        40
41.960        27
41.970        67
41.980        60
41.990        67
42.000        27
42.010        53
42.020        20
42.030        27
42.040        27
42.050        40
42.060        47
42.070        33
42.080        27
42.090        60
42.100        40
42.110        33
42.120        33
42.130        40
42.140        27
42.150        33
42.160        47
42.170        40
42.180        33
42.190        33
42.200        20
42.210        40
42.220        20
42.230        47
42.240        20
42.250        40
42.260        47
42.270        27
42.280        53
42.290        40
42.300        40
42.310        47
42.320        27
42.330        40
42.340        27
42.350        20
42.360        47
42.370        33
42.380        13
42.390        20
42.400        27
42.410        20
42.420        27
42.430        27
42.440        33
42.450        13
42.460        13
42.470        60
42.480        33
42.490        27
42.500        13
42.510        33
42.520        20
42.530        20
42.540        13
42.550        40
42.560        33
42.570        20
42.580        33
42.590        27
42.600        73
42.610        27
42.620        40
42.630        20
42.640        13
42.650        20
42.660        33
42.670        47
42.680         7
42.690        47
42.700        20
42.710        47
42.720        40
42.730        20
42.740        53
42.750        20
42.760        33
42.770        47
42.780        27
42.790        33
42.800        13
42.810         7
42.820        33
42.830        40
42.840        13
42.850        33
42.860        47
42.870        33
42.880        33
42.890        20
42.900         7
42.910        27
42.920        33
42.930        33
42.940        47
42.950        27
42.960        20
42.970        33
42.980        27
42.990        47
43.000        20
43.010        47
43.020        20
43.030        13
43.040        40
43.050        40
43.060        33
43.070        20
43.080        33
43.090        13
43.100        60
43.110        40
43.120        33
43.130        20
43.140        47
43.150        33
43.160        40
43.170        33
43.180        47
43.190        27
43.200        20
43.210        20
43.220        47
43.230        20
43.240        33
43.250        40
43.260        40
43.270        33
43.280        27
43.290        33
43.300        60
43.310        40
43.320        13
43.330        47
43.340        53
43.350        20
43.360        53
43.370        47
43.380        33
43.390        40
43.400        40
43.410        13
43.420        27
43.430        27
43.440        20
43.450        33
43.460        20
43.470        47
43.480        27
43.490        40
43.500        47
43.510        33
43.520        13
43.530         0
43.540        27
43.550        60
43.560        13
43.570        20
43.580        60
43.590        33
43.600        13
43.610        47
43.620        40
43.630        33
43.640        20
43.650        73
43.660        27
43.670        20
43.680        27
43.690        20
43.700        13
43.710        13
43.720        47
43.730        47
43.740        33
43.750        27
43.760         7
43.770         0
43.780        20
43.790        60
43.800        40
43.810        13
43.820        20
43.830        47
43.840        87
43.850        20
43.860        40
43.870        27
43.880        27
43.890        40
43.900        33
43.910        27
43.920        33
43.930        33
43.940        33
43.950        33
43.960        27
43.970        20
43.980        27
43.990         7
44.000        47
44.010        33
44.020        20
44.030        47
44.040        27
44.050         0
44.060        40
44.070        40
44.080        33
44.090        53
44.100        27
44.110        27
44.120        27
44.130        33
44.140        13
44.150        20
44.160        33
44.170         7
44.180        33
44.190        33
44.200        13
44.210        40
44.220         7
44.230        20
44.240        67
44.250        53
44.260        13
44.270        27
44.280        13
44.290        13
44.300        20
44.310        27
44.320        13
44.330        20
44.340        33
44.350        27
44.360        33
44.370        40
44.380         7
44.390        47
44.400        20
44.410        33
44.420        27
44.430        47
44.440        20
44.450         7
44.460        40
44.470        33
44.480        13
44.490        47
44.500        27
44.510        33
44.520        13
44.530        40
44.540        20
44.550        40
44.560        47
44.570        33
44.580        67
44.590        27
44.600        20
44.610        33
44.620        27
44.630        33
44.640        13
44.650        20
44.660        13
44.670        13
44.680        53
44.690        20
44.700        13
44.710        53
44.720        13
44.730        67
44.740        27
44.750        33
44.760        13
44.770        20
44.780        47
44.790        47
44.800        53
44.810        47
44.820        27
44.830        40
44.840        13
44.850        47
44.860        20
44.870        27
44.880        13
44.890        53
44.900        33
44.910        33
44.920         7
44.930        60
44.940        53
44.950         7
44.960        40
44.970        13
44.980        47
44.990        33
45.000        33
45.010        33
45.020        33
45.030        33
45.040        40
45.050        27
45.060        33
45.070        27
45.080        27
45.090        40
45.100        40
45.110        47
45.120        47
45.130         7
45.140        13
45.150        20
45.160        20
45.170         7
45.180        47
45.190        20
45.200        53
45.210        27
45.220        47
45.230        27
45.240        47
45.250        67
45.260        27
45.270        67
45.280        27
45.290        27
45.300        53
45.310        40
45.320        60
45.330        20
45.340        40
45.350        27
45.360        27
45.370        20
45.380         7
45.390        40
45.400        27
45.410        27
45.420        27
45.430        27
45.440        20
45.450        33
45.460        27
45.470        47
45.480        53
45.490        27
45.500        13
45.510        40
45.520        80
45.530        47
45.540        33
45.550        13
45.560        33
45.570        33
45.580        47
45.590        40
45.600        53
45.610        40
45.620         7
45.630        53
45.640        40
45.650         7
45.660        40
45.670        27
45.680        47
45.690        33
45.700        40
45.710        20
45.720        27
45.730        33
45.740        33
45.750        20
45.760        53
45.770        47
45.780        13
45.790        27
45.800        53
45.810        20
45.820        47
45.830        33
45.840        33
45.850        53
45.860        40
45.870        13
45.880        40
45.890        27
45.900        27
45.910        27
45.920        33
45.930        47
45.940        27
45.950        40
45.960        53
45.970        27
45.980        47
45.990        33
46.000        53
46.010        80
46.020        60
46.030        60
46.040        40
46.050        27
46.060        20
46.070        33
46.080        33
46.090        73
46.100        20
46.110        53
46.120        40
46.130        27
46.140        27
46.150        60
46.160        40
46.170        27
46.180        67
46.190        53
46.200        13
46.210        33
46.220        27
46.230        60
46.240        40
46.250        27
46.260        67
46.270        60
46.280        20
46.290        20
46.300        53
46.310        33
46.320        47
46.330         7
46.340        40
46.350        33
46.360        73
46.370        33
46.380        47
46.390        33
46.400        27
46.410        27
46.420        20
46.430        47
46.440        20
46.450        27
46.460        47
46.470        47
46.480        40
46.490        53
46.500        47
46.510        13
46.520        13
46.530        33
46.540        60
46.550        20
46.560        40
46.570        40
46.580        40
46.590        40
46.600        20
46.610        40
46.620        40
46.630        13
46.640        33
46.650        33
46.660        53
46.670        27
46.680        33
46.690        33
46.700        33
46.710        20
46.720        27
46.730        33
46.740         0
46.750        20
46.760        33
46.770        40
46.780        47
46.790        40
46.800        73
46.810        67
46.820        40
46.830        53
46.840        53
46.850       100
46.860        53
46.870        27
46.880        87
46.890        47
46.900        33
46.910        67
46.920        73
46.930        87
46.940        40
46.950        47
46.960        47
46.970        33
46.980        73
46.990        40
47.000       113
47.010        80
47.020       127
47.030       107
47.040        93
47.050        93
47.060       107
47.070        60
47.080       107
47.090       120
47.100       107
47.110       153
47.120       147
47.130       193
47.140       133
47.150       233
47.160       407
47.170       580
47.180       766
47.190      1013
47.200      1206
47.210      1246
47.220      1213
47.230      1313
47.240      1100
47.250       886
47.260       820
47.270       533
47.280       373
47.290       313
47.300       233
47.310       200
47.320       127
47.330       133
47.340        93
47.350        80
47.360        80
47.370        87
47.380        80
47.390       133
47.400        67
47.410        53
47.420        53
47.430        60
47.440        73
47.450        67
47.460        67
47.470        60
47.480        80
47.490        67
47.500        40
47.510        47
47.520        27
47.530        73
47.540        67
47.550        40
47.560        40
47.570        40
47.580        33
47.590        27
47.600        47
47.610        47
47.620        67
47.630        27
47.640        40
47.650        80
47.660        33
47.670        33
47.680        47
47.690        40
47.700        53
47.710        47
47.720        60
47.730        40
47.740        47
47.750        87
47.760        40
47.770        53
47.780        33
47.790        27
47.800        80
47.810        53
47.820        47
47.830        53
47.840        40
47.850        60
47.860        13
47.870        40
47.880        33
47.890        33
47.900        27
47.910        87
47.920        40
47.930        33
47.940        27
47.950        40
47.960        13
47.970        53
47.980        40
47.990        47
48.000        13
48.010        40
48.020        27
48.030        40
48.040        40
48.050        13
48.060        33
48.070        60
48.080        13
48.090        40
48.100        53
48.110        33
48.120        33
48.130        47
48.140        40
48.150        33
48.160        67
48.170        40
48.180        33
48.190        27
48.200        27
48.210        27
48.220        27
48.230        40
48.240        27
48.250        40
48.260        53
48.270        40
48.280        20
48.290        27
48.300        20
48.310        40
48.320        40
48.330        20
48.340        33
48.350        47
48.360        27
48.370        47
48.380        27
48.390        20
48.400        27
48.410        20
48.420        47
48.430        27
48.440        27
48.450        60
48.460        27
48.470        60
48.480        33
48.490        27
48.500        40
48.510        33
48.520        20
48.530        53
48.540        33
48.550         7
48.560        40
48.570        27
48.580        60
48.590        60
48.600        20
48.610        53
48.620        27
48.630        40
48.640        33
48.650        33
48.660        53
48.670        33
48.680        53
48.690        67
48.700        40
48.710        13
48.720         7
48.730        27
48.740        40
48.750        47
48.760        33
48.770        27
48.780        33
48.790        40
48.800        27
48.810        53
48.820        33
48.830        27
48.840        47
48.850        47
48.860        20
48.870        33
48.880        20
48.890        40
48.900        53
48.910        60
48.920        13
48.930        27
48.940        27
48.950        20
48.960        27
48.970        40
48.980        47
48.990        40
49.000        47
49.010        27
49.020        20
49.030        40
49.040        67
49.050        33
49.060        20
49.070        20
49.080        20
49.090        13
49.100        20
49.110        40
49.120        20
49.130        33
49.140        13
49.150        47
49.160        20
49.170        53
49.180        20
49.190        20
49.200        20
49.210        40
49.220        53
49.230        13
49.240        27
49.250        47
49.260        33
49.270        47
49.280        20
49.290        60
49.300        40
49.310        20
49.320        40
49.330        67
49.340        47
49.350        33
49.360        27
49.370        27
49.380        13
49.390        33
49.400        20
49.410        33
49.420        47
49.430        33
49.440        40
49.450         7
49.460        13
49.470        40
49.480        13
49.490        13
49.500        33
49.510        27
49.520        53
49.530        27
49.540        20
49.550        13
49.560        27
49.570        40
49.580        27
49.590        20
49.600        13
49.610         7
49.620        20
49.630        47
49.640        13
49.650        20
49.660        20
49.670        20
49.680        60
49.690        33
49.700        80
49.710        20
49.720        33
49.730         7
49.740        47
49.750        53
49.760        47
49.770        33
49.780        13
49.790        40
49.800        13
49.810        33
49.820        27
49.830        40
49.840        33
49.850        53
49.860        33
49.870         7
49.880        27
49.890        47
49.900        60
49.910        47
49.920        40
49.930        53
49.940        33
49.950        27
49.960        27
49.970        40
49.980        67
49.990        47
50.000        73
50.010        47
50.020        33
50.030        20
50.040        47
50.050        20
50.060        73
50.070        47
50.080        53
50.090        27
50.100        33
50.110        40
50.120        33
50.130        33
50.140        47
50.150        27
50.160        60
50.170        33
50.180        27
50.190        80
50.200        40
50.210        47
50.220        47
50.230        47
50.240        20
50.250        53
50.260         7
50.270        27
50.280        27
50.290        47
50.300        60
50.310        40
50.320        20
50.330        33
50.340        27
50.350        40
50.360        60
50.370        60
50.380        20
50.390        47
50.400        47
50.410        47
50.420        53
50.430        47
50.440        40
50.450        33
50.460        47
50.470       107
50.480        27
50.490        53
50.500        53
50.510        33
50.520        60
50.530        80
50.540        33
50.550        40
50.560        47
50.570        93
50.580        53
50.590        40
50.600        33
50.610        47
50.620        67
50.630        53
50.640       100
50.650       120
50.660        93
50.670       100
50.680       140
50.690       160
50.700       227
50.710       280
50.720       347
50.730       307
50.740       300
50.750       353
50.760       333
50.770       327
50.780       420
50.790       353
50.800       347
50.810       240
50.820       333
50.830       287
50.840       353
50.850       313
50.860       340
50.870       293
50.880       333
50.890       420
50.900       327
50.910       353
50.920       333
50.930       387
50.940       347
50.950       360
50.960       347
50.970       367
50.980       327
50.990       387
51.000       353
51.010       327
51.020       360
51.030       353
51.040       273
51.050       367
51.060       267
51.070       327
51.080       440
51.090       347
51.100       300
51.110       380
51.120       433
51.130       353
51.140       313
51.150       420
51.160       300
51.170       426
51.180       360
51.190       340
51.200       333
51.210       300
51.220       373
51.230       440
51.240       300
51.250       287
51.260       380
51.270       353
51.280       460
51.290       327
51.300       380
51.310       407
51.320       313
51.330       307
51.340       347
51.350       353
51.360       387
51.370       327
51.380       373
51.390       360
51.400       360
51.410       373
51.420       460
51.430       400
51.440       253
51.450       320
51.460       333
51.470       273
51.480       433
51.490       320
51.500       313
51.510       367
51.520       486
51.530       313
51.540       347
51.550       426
51.560       486
51.570       340
51.580       313
51.590       293
51.600       347
51.610       380
51.620       446
51.630       393
51.640       380
51.650       380
51.660       340
51.670       353
51.680       473
51.690       426
51.700       387
51.710       373
51.720       367
51.730       407
51.740       400
51.750       500
51.760       426
51.770       407
51.780       446
51.790       340
51.800       453
51.810       566
51.820       453
51.830       413
51.840       367
51.850       426
51.860       373
51.870       446
51.880       513
51.890       473
51.900       426
51.910       420
51.920       493
51.930       426
51.940       446
51.950       453
51.960       440
51.970       407
51.980       446
51.990       480
52.000       466
52.010       520
52.020       486
52.030       640
52.040       400
52.050       460
52.060       506
52.070       506
52.080       626
52.090       460
52.100       593
52.110       653
52.120       666
52.130       666
52.140       586
52.150       686
52.160       646
52.170       713
52.180       846
52.190       813
52.200       680
52.210       826
52.220       900
52.230       873
52.240       993
52.250      1106
52.260      1033
52.270      1220
52.280      1466
52.290      1639
52.300      1713
52.310      2013
52.320      2386
52.330      2945
52.340      3612
52.350      4118
52.360      4711
52.370      5231
52.380      5351
52.390      6064
52.400      6637
52.410      7044
52.420      7304
52.430      7684
52.440      7724
52.450      8363
52.460      8930
52.470      8903
52.480      9669
52.490     10376
52.500     11762
52.510     12648
52.520     14568
52.530     17193
52.540     21438
52.550     31874
52.560     52259
52.570     80754
52.580    112322
52.590    137985
52.600    152979
52.610    159516
52.620    161915
52.630    156424
52.640    135333
52.650    104618
52.660     69432
52.670     44975
52.680     30981
52.690     28649
52.700     35293
52.710     47714
52.720     64494
52.730     76170
52.740     87352
52.750     91423
52.760     91623
52.770     87385
52.780     74610
52.790     55911
52.800     37878
52.810     22378
52.820     13688
52.830      8956
52.840      7084
52.850      5298
52.860      4192
52.870      3765
52.880      3259
52.890      3052
52.900      2619
52.910      2532
52.920      2106
52.930      1786
52.940      1866
52.950      1666
52.960      1713
52.970      1526
52.980      1379
52.990      1419
53.000      1379
53.010      1213
53.020      1146
53.030      1160
53.040       966
53.050      1000
53.060      1086
53.070       986
53.080       980
53.090       900
53.100       793
53.110       900
53.120       860
53.130       733
53.140       720
53.150       700
53.160       793
53.170       693
53.180       726
53.190       660
53.200       540
53.210       613
53.220       733
53.230       600
53.240       673
53.250       600
53.260       586
53.270       553
53.280       573
53.290       546
53.300       620
53.310       613
53.320       546
53.330       380
53.340       566
53.350       506
53.360       580
53.370       493
53.380       526
53.390       387
53.400       466
53.410       486
53.420       593
53.430       513
53.440       446
53.450       340
53.460       506
53.470       506
53.480       426
53.490       460
53.500       400
53.510       460
53.520       520
53.530       513
53.540       446
53.550       353
53.560       413
53.570       320
53.580       400
53.590       327
53.600       446
53.610       407
53.620       353
53.630       367
53.640       380
53.650       307
53.660       426
53.670       367
53.680       413
53.690       273
53.700       360
53.710       407
53.720       273
53.730       387
53.740       340
53.750       367
53.760       360
53.770       367
53.780       333
53.790       300
53.800       340
53.810       313
53.820       313
53.830       460
53.840       320
53.850       327
53.860       293
53.870       426
53.880       360
53.890       300
53.900       293
53.910       347
53.920       347
53.930       327
53.940       320
53.950       227
53.960       327
53.970       313
53.980       273
53.990       340
54.000       347
54.010       307
54.020       433
54.030       280
54.040       253
54.050       327
54.060       220
54.070       307
54.080       227
54.090       347
54.100       287
54.110       240
54.120       293
54.130       293
54.140       327
54.150       307
54.160       233
54.170       300
54.180       267
54.190       160
54.200       293
54.210       240
54.220       233
54.230       273
54.240       233
54.250       240
54.260       280
54.270       220
54.280       293
54.290       340
54.300       327
54.310       253
54.320       240
54.330       267
54.340       220
54.350       267
54.360       260
54.370       267
54.380       333
54.390       287
54.400       193
54.410       240
54.420       220
54.430       240
54.440       267
54.450       260
54.460       333
54.470       300
54.480       240
54.490       287
54.500       260
54.510       260
54.520       233
54.530       253
54.540       353
54.550       187
54.560       260
54.570       300
54.580       207
54.590       227
54.600       293
54.610       260
54.620       253
54.630       240
54.640       300
54.650       247
54.660       213
54.670       307
54.680       307
54.690       200
54.700       287
54.710       340
54.720       260
54.730       267
54.740       173
54.750       253
54.760       253
54.770       300
54.780       187
54.790       353
54.800       253
54.810       233
54.820       193
54.830       260
54.840       240
54.850       280
54.860       260
54.870       213
54.880       180
54.890       180
54.900       187
54.910       240
54.920       153
54.930       320
54.940       273
54.950       220
54.960       180
54.970       173
54.980       207
54.990       240
55.000       260
55.010       227
55.020       240
55.030       260
55.040       273
55.050       200
55.060       213
55.070       293
55.080       307
55.090       247
55.100       200
55.110       273
55.120       327
55.130       180
55.140       213
55.150       227
55.160       167
55.170       180
55.180       233
55.190       180
55.200       193
55.210       227
55.220       227
55.230       207
55.240       207
55.250       240
55.260       267
55.270       213
55.280       273
55.290       160
55.300       207
55.310       207
55.320       180
55.330       173
55.340       227
55.350       153
55.360       213
55.370       267
55.380       193
55.390       180
55.400       227
55.410       247
55.420       260
55.430       160
55.440       187
55.450       293
55.460       187
55.470       207
55.480       207
55.490       260
55.500       200
55.510       153
55.520       167
55.530       213
55.540       240
55.550       187
55.560       247
55.570       280
55.580       153
55.590       160
55.600       233
55.610       260
55.620       227
55.630       173
55.640       147
55.650       227
55.660       240
55.670       187
55.680       173
55.690       213
55.700       227
55.710       220
55.720       173
55.730       167
55.740       247
55.750       287
55.760       153
55.770       220
55.780       213
55.790       127
55.800       240
55.810       240
55.820       207
55.830       233
55.840       220
55.850       133
55.860       213
55.870       200
55.880       180
55.890       180
55.900       180
55.910       220
55.920       180
55.930       147
55.940       160
55.950       173
55.960       100
55.970       160
55.980       213
55.990       187
56.000       127
56.010       173
56.020       200
56.030       180
56.040       147
56.050       207
56.060       253
56.070       213
56.080       147
56.090       173
56.100       127
56.110       187
56.120       207
56.130       140
56.140       187
56.150       227
56.160       193
56.170       233
56.180       153
56.190       153
56.200       167
56.210       200
56.220       193
56.230       207
56.240       227
56.250       120
56.260       167
56.270       173
56.280       173
56.290       187
56.300       193
56.310       220
56.320       240
56.330       160
56.340       173
56.350       140
56.360       273
56.370       180
56.380       167
56.390       240
56.400       180
56.410       180
56.420       133
56.430       193
56.440       173
56.450       167
56.460       240
56.470       140
56.480       220
56.490       133
56.500       167
56.510       153
56.520       147
56.530       167
56.540       200
56.550       187
56.560       127
56.570       207
56.580       167
56.590       133
56.600       173
56.610       160
56.620       147
56.630       187
56.640       167
56.650       147
56.660       153
56.670       167
56.680       160
56.690       173
56.700       187
56.710       133
56.720       193
56.730       173
56.740       260
56.750       160
56.760       193
56.770       140
56.780       227
56.790       153
56.800       140
56.810       167
56.820       133
56.830       220
56.840       253
56.850       207
56.860       160
56.870       173
56.880       113
56.890       193
56.900       153
56.910       207
56.920       160
56.930       200
56.940       120
56.950       140
56.960       220
56.970       160
56.980       160
56.990       213
57.000       193
57.010       140
57.020       180
57.030       173
57.040       220
57.050       160
57.060       167
57.070       187
57.080       173
57.090       207
57.100       220
57.110       167
57.120       180
57.130       193
57.140       200
57.150       107
57.160       147
57.170       173
57.180       153
57.190       140
57.200       207
57.210       180
57.220       153
57.230       200
57.240       173
57.250        93
57.260       107
57.270       187
57.280       140
57.290       153
57.300       133
57.310       160
57.320       200
57.330       113
57.340       267
57.350       173
57.360       200
57.370       180
57.380       153
57.390       187
57.400       107
57.410       200
57.420       207
57.430       173
57.440       180
57.450       213
57.460       140
57.470       140
57.480       207
57.490       113
57.500       113
57.510       160
57.520       153
57.530       133
57.540       147
57.550       187
57.560       240
57.570       180
57.580       140
57.590       160
57.600       167
57.610       213
57.620       167
57.630       187
57.640       147
57.650       173
57.660       120
57.670       173
57.680       207
57.690       180
57.700       127
57.710       107
57.720       133
57.730       173
57.740       113
57.750       200
57.760       153
57.770        60
57.780       107
57.790       180
57.800        93
57.810       120
57.820       160
57.830       153
57.840       167
57.850        67
57.860       127
57.870       140
57.880       127
57.890       153
57.900       227
57.910       140
57.920       133
57.930       207
57.940       127
57.950       100
57.960       167
57.970       160
57.980       147
57.990       240
58.000       140
58.010       167
58.020       160
58.030       160
58.040       140
58.050       133
58.060       140
58.070       160
58.080       173
58.090       113
58.100       147
58.110       133
58.120       127
58.130       153
58.140       133
58.150       107
58.160       200
58.170       167
58.180       120
58.190       147
58.200       180
58.210       167
58.220       133
58.230       127
58.240       140
58.250       120
58.260       147
58.270       153
58.280       113
58.290       187
58.300       187
58.310       127
58.320       173
58.330       113
58.340       153
58.350       167
58.360       160
58.370       133
58.380        80
58.390       200
58.400       140
58.410       127
58.420       140
58.430        93
58.440       113
58.450        93
58.460       100
58.470       127
58.480        93
58.490       120
58.500       147
58.510       213
58.520       113
58.530        93
58.540        87
58.550        93
58.560       147
58.570       113
58.580       133
58.590       113
58.600        93
58.610       147
58.620       200
58.630       160
58.640       147
58.650       127
58.660       113
58.670       173
58.680        93
58.690       140
58.700       120
58.710       140
58.720       153
58.730       120
58.740       167
58.750       113
58.760       147
58.770       153
58.780       140
58.790        87
58.800       133
58.810       153
58.820       120
58.830       153
58.840       120
58.850       160
58.860        93
58.870        47
58.880       120
58.890       133
58.900        87
58.910       127
58.920       193
58.930        67
58.940       173
58.950        80
58.960        93
58.970       120
58.980       127
58.990       107
59.000       113
59.010       113
59.020       127
59.030        93
59.040       107
59.050       173
59.060       120
59.070       140
59.080       180
59.090       113
59.100       153
59.110       153
59.120       147
59.130       120
59.140       127
59.150       133
59.160       127
59.170       140
59.180       107
59.190       107
59.200       140
59.210        80
59.220       160
59.230       153
59.240       120
59.250       100
59.260       113
59.270        80
59.280       120
59.290       133
59.300       147
59.310       120
59.320       147
59.330       140
59.340       140
59.350       120
59.360       153
59.370       113
59.380       120
59.390        80
59.400       113
59.410        87
59.420       160
59.430       113
59.440       153
59.450       107
59.460       127
59.470       160
59.480       113
59.490       120
59.500       107
59.510       153
59.520       100
59.530       147
59.540        80
59.550       153
59.560       120
59.570       100
59.580       153
59.590       100
59.600       127
59.610        80
59.620        53
59.630       160
59.640       113
59.650       133
59.660       120
59.670       127
59.680       107
59.690        67
59.700       107
59.710       107
59.720        73
59.730       100
59.740        93
59.750       107
59.760        80
59.770       127
59.780       120
59.790       127
59.800       113
59.810       133
59.820        87
59.830       100
59.840       120
59.850       140
59.860       133
59.870       107
59.880       160
59.890       100
59.900       133
59.910        93
59.920       113
59.930       167
59.940       127
59.950       120
59.960        93
59.970        80
59.980       140
59.990        67
60.000        67
