20.000        43
20.020        43
20.040       190
20.060       127
20.080       180
20.100       187
20.120       203
20.140       137
20.160       177
20.180       133
20.200       183
20.220       193
20.240       177
20.260       163
20.280       153
20.300       143
20.320       197
20.340       130
20.360       143
20.380       170
20.400       137
20.420       220
20.440       140
20.460       187
20.480       197
20.500       160
20.520       160
20.540       203
20.560       193
20.580       177
20.600       147
20.620       167
20.640       150
20.660       167
20.680       170
20.700       157
20.720       203
20.740       160
20.760       147
20.780       140
20.800       153
20.820       153
20.840       153
20.860       177
20.880       157
20.900       193
20.920       197
20.940       177
20.960       160
20.980       147
21.000       160
21.020       183
21.040       217
21.060       207
21.080       210
21.100       177
21.120       213
21.140       190
21.160       203
21.180       187
21.200       220
21.220       217
21.240       213
21.260       190
21.280       170
21.300       220
21.320       203
21.340       210
21.360       197
21.380       193
21.400       173
21.420       200
21.440       213
21.460       230
21.480       233
21.500       173
21.520       210
21.540       197
21.560       190
21.580       267
21.600       177
21.620       157
21.640       230
21.660       197
21.680       223
21.700       163
21.720       213
21.740       233
21.760       223
21.780       220
21.800       243
21.820       170
21.840       163
21.860       223
21.880       267
21.900       233
21.920       193
21.940       227
21.960       187
21.980       213
22.000       223
22.020       217
22.040       257
22.060       173
22.080       283
22.100       217
22.120       253
22.140       257
22.160       240
22.180       207
22.200       200
22.220       240
22.240       203
22.260       233
22.280       257
22.300       197
22.320       270
22.340       217
22.360       263
22.380       197
22.400       213
22.420       223
22.440       233
22.460       167
22.480       237
22.500       243
22.520       250
22.540       220
22.560       247
22.580       220
22.600       223
22.620       260
22.640       213
22.660       263
22.680       230
22.700       240
22.720       213
22.740       310
22.760       277
22.780       230
22.800       247
22.820       270
22.840       253
22.860       297
22.880       303
22.900       287
22.920       323
22.940       383
22.960       307
22.980       367
23.000       293
23.020       407
23.040       393
23.060       436
23.080       900
23.100      1279
23.120      1769
23.140      1869
23.160      1383
23.180       703
23.200       473
23.220       387
23.240       327
23.260       317
23.280       387
23.300       340
23.320       343
23.340       307
23.360       280
23.380       253
23.400       287
23.420       320
23.440       290
23.460       307
23.480       303
23.500       290
23.520       273
23.540       317
23.560       307
23.580       280
23.600       310
23.620       287
23.640       333
23.660       330
23.680       337
23.700       280
23.720       263
23.740       307
23.760       347
23.780       280
23.800       240
23.820       243
23.840       267
23.860       317
23.880       323
23.900       273
23.920       247
23.940       273
23.960       307
23.980       280
24.000       250
24.020       333
24.040       280
24.060       287
24.080       317
24.100       380
24.120       277
24.140       300
24.160       307
24.180       310
24.200       303
24.220       287
24.240       337
24.260       330
24.280       290
24.300       310
24.320       267
24.340       320
24.360       267
24.380       273
24.400       280
24.420       310
24.440       350
24.460       343
24.480       267
24.500       297
24.520       280
24.540       320
24.560       323
24.580       267
24.600       303
24.620       303
24.640       300
24.660       307
24.680       347
24.700       496
24.720       460
24.740       633
24.760       746
24.780       936
24.800       920
24.820       966
24.840      1016
24.860      1003
24.880       996
24.900      1000
24.920      1013
24.940       986
24.960       903
24.980       963
25.000       970
25.020      1036
25.040       970
25.060       953
25.080       913
25.100       920
25.120       970
25.140      1063
25.160       993
25.180      1033
25.200      1046
25.220      1140
25.240      1103
25.260      1193
25.280      1106
25.300      1173
25.320      1376
25.340      1526
25.360      2199
25.380      2726
25.400      3838
25.420      4998
25.440      6621
25.460      8477
25.480      9346
25.500     11292
25.520     12298
25.540     13645
25.560     20778
25.580     58710
25.600    133730
25.620    168859
25.640    177539
25.660    169012
25.680    126656
25.700    105001
25.720     85073
25.740     41224
25.760     12095
25.780      6757
25.800      4118
25.820      3142
25.840      2366
25.860      1959
25.880      1839
25.900      1586
25.920      1579
25.940      1436
25.960      1313
25.980      1269
26.000      1269
26.020      1259
26.040       996
26.060      1086
26.080      1083
26.100      1006
26.120       953
26.140      1000
26.160       973
26.180      1023
26.200       856
26.220       903
26.240       886
26.260       816
26.280       870
26.300       820
26.320       876
26.340       853
26.360       783
26.380       850
26.400       703
26.420       803
26.440       710
26.460       900
26.480       743
26.500       770
26.520       786
26.540       750
26.560       686
26.580       723
26.600       743
26.620       706
26.640       610
26.660       743
26.680       676
26.700       733
26.720       710
26.740       770
26.760       640
26.780       700
26.800       610
26.820       680
26.840       740
26.860       660
26.880       763
26.900       630
26.920       626
26.940       673
26.960       640
26.980       593
27.000       630
27.020       610
27.040       666
27.060       563
27.080       680
27.100       663
27.120       660
27.140       656
27.160       646
27.180       603
27.200       720
27.220       616
27.240       530
27.260       593
27.280       616
27.300       580
27.320       566
27.340       643
27.360       630
27.380       646
27.400       556
27.420       526
27.440       646
27.460       623
27.480       660
27.500       560
27.520       636
27.540       580
27.560       653
27.580       580
27.600       560
27.620       616
27.640       600
27.660       630
27.680       553
27.700       553
27.720       536
27.740       530
27.760       503
27.780       560
27.800       620
27.820       626
27.840       553
27.860       536
27.880       560
27.900       563
27.920       543
27.940       513
27.960       530
27.980       493
28.000       486
28.020       486
28.040       513
28.060       490
28.080       496
28.100       573
28.120       463
28.140       583
28.160       513
28.180       513
28.200       486
28.220       516
28.240       526
28.260       583
28.280       470
28.300       580
28.320       450
28.340       520
28.360       476
28.380       476
28.400       526
28.420       480
28.440       516
28.460       460
28.480       540
28.500       473
28.520       500
28.540       540
28.560       486
28.580       473
28.600       453
28.620       516
28.640       440
28.660       480
28.680       520
28.700       413
28.720       480
28.740       443
28.760       500
28.780       506
28.800       480
28.820       387
28.840       460
28.860       470
28.880       410
28.900       413
28.920       470
28.940       413
28.960       493
28.980       453
29.000       443
29.020       483
29.040       513
29.060       440
29.080       480
29.100       347
29.120       490
29.140       430
29.160       397
29.180       450
29.200       490
29.220       463
29.240       436
29.260       453
29.280       403
29.300       450
29.320       407
29.340       426
29.360       446
29.380       426
29.400       440
29.420       433
29.440       413
29.460       426
29.480       440
29.500       410
29.520       473
29.540       423
29.560       470
29.580       520
29.600       383
29.620       510
29.640       450
29.660       413
29.680       410
29.700       426
29.720       450
29.740       343
29.760       397
29.780       367
29.800       400
29.820       357
29.840       397
29.860       377
29.880       373
29.900       403
29.920       403
29.940       300
29.960       347
29.980       340
30.000       377
30.020       440
30.040       450
30.060       417
30.080       350
30.100       390
30.120       370
30.140       357
30.160       410
30.180       403
30.200       313
30.220       367
30.240       307
30.260       350
30.280       343
30.300       357
30.320       383
30.340       343
30.360       287
30.380       293
30.400       350
30.420       393
30.440       260
30.460       310
30.480       383
30.500       353
30.520       397
30.540       307
30.560       343
30.580       310
30.600       363
30.620       317
30.640       443
30.660       340
30.680       347
30.700       353
30.720       327
30.740       330
30.760       307
30.780       353
30.800       420
30.820       330
30.840       373
30.860       300
30.880       333
30.900       303
30.920       327
30.940       317
30.960       303
30.980       300
31.000       307
31.020       330
31.040       280
31.060       317
31.080       280
31.100       297
31.120       297
31.140       343
31.160       293
31.180       357
31.200       237
31.220       313
31.240       303
31.260       290
31.280       303
31.300       257
31.320       323
31.340       327
31.360       317
31.380       303
31.400       327
31.420       350
31.440       310
31.460       320
31.480       350
31.500       370
31.520       377
31.540       337
31.560       333
31.580       377
31.600       417
31.620       417
31.640       393
31.660       436
31.680       503
31.700       550
31.720       580
31.740       623
31.760       670
31.780       616
31.800       603
31.820       490
31.840       500
31.860       460
31.880       363
31.900       323
31.920       327
31.940       347
31.960       300
31.980       337
32.000       293
32.020       243
32.040       270
32.060       333
32.080       247
32.100       263
32.120       240
32.140       247
32.160       200
32.180       243
32.200       260
32.220       253
32.240       280
32.260       273
32.280       280
32.300       193
32.320       240
32.340       237
32.360       207
32.380       283
32.400       317
32.420       287
32.440       223
32.460       233
32.480       273
32.500       197
32.520       230
32.540       260
32.560       237
32.580       217
32.600       217
32.620       267
32.640       253
32.660       173
32.680       210
32.700       217
32.720       263
32.740       237
32.760       263
32.780       273
32.800       203
32.820       243
32.840       197
32.860       193
32.880       213
32.900       237
32.920       193
32.940       220
32.960       177
32.980       247
33.000       227
33.020       243
33.040       213
33.060       193
33.080       213
33.100       207
33.120       240
33.140       187
33.160       213
33.180       207
33.200       183
33.220       207
33.240       193
33.260       223
33.280       240
33.300       210
33.320       173
33.340       193
33.360       173
33.380       213
33.400       157
33.420       180
33.440       157
33.460       177
33.480       223
33.500       167
33.520       177
33.540       187
33.560       143
33.580       247
33.600       147
33.620       217
33.640       170
33.660       183
33.680       190
33.700       133
33.720       207
33.740       180
33.760       153
33.780       167
33.800       200
33.820       167
33.840       173
33.860       167
33.880       170
33.900       210
33.920       170
33.940       183
33.960       170
33.980       150
34.000       163
34.020       207
34.040       153
34.060       153
34.080       140
34.100       160
34.120       153
34.140       187
34.160       183
34.180       167
34.200       150
34.220       140
34.240       177
34.260       183
34.280       193
34.300       170
34.320       180
34.340       160
34.360       133
34.380       137
34.400       127
34.420       150
34.440       147
34.460       200
34.480       100
34.500       177
34.520       127
34.540       163
34.560       193
34.580       147
34.600       130
34.620       127
34.640       137
34.660       147
34.680       160
34.700       147
34.720       127
34.740       193
34.760       157
34.780       123
34.800       143
34.820       190
34.840       183
34.860       117
34.880       147
34.900       193
34.920       173
34.940       130
34.960       137
34.980       183
35.000       133
35.020       150
35.040       167
35.060       163
35.080       180
35.100       177
35.120       133
35.140       133
35.160       120
35.180       153
35.200       167
35.220       130
35.240       150
35.260       137
35.280       167
35.300       133
35.320       130
35.340       173
35.360       170
35.380       123
35.400       170
35.420       147
35.440       120
35.460       127
35.480        93
35.500       167
35.520       117
35.540       140
35.560       147
35.580       153
35.600       140
35.620       157
35.640       140
35.660       123
35.680       140
35.700       107
35.720       100
35.740       100
35.760       150
35.780       150
35.800       130
35.820       143
35.840       123
35.860       133
35.880       103
35.900       143
35.920       153
35.940       123
35.960        93
35.980       123
36.000       123
36.020        97
36.040       140
36.060       113
36.080       140
36.100       107
36.120       123
36.140       133
36.160       123
36.180       133
36.200       110
36.220       140
36.240       120
36.260       140
36.280       100
36.300       120
36.320       110
36.340       137
36.360       137
36.380       113
36.400       123
36.420       130
36.440       143
36.460       120
36.480       110
36.500       113
36.520       103
36.540       110
36.560       117
36.580       137
36.600       110
36.620       117
36.640       127
36.660       110
36.680       117
36.700       100
36.720       100
36.740       110
36.760       130
36.780       133
36.800       113
36.820        83
36.840       137
36.860       130
36.880       113
36.900       147
36.920       137
36.940       107
36.960        97
36.980        87
37.000        97
37.020        93
37.040       117
37.060       107
37.080       103
37.100       120
37.120       137
37.140       107
37.160       110
37.180        90
37.200       103
37.220       113
37.240       133
37.260        83
37.280       113
37.300        93
37.320       123
37.340       113
37.360       100
37.380       103
37.400        93
37.420       107
37.440        77
37.460       103
37.480        97
37.500        83
37.520       107
37.540        73
37.560       110
37.580       113
37.600        97
37.620       103
37.640       100
37.660        87
37.680        90
37.700       123
37.720        83
37.740       100
37.760        70
37.780       113
37.800        97
37.820        67
37.840        77
37.860       133
37.880        77
37.900        63
37.920        87
37.940        87
37.960       100
37.980        80
38.000       107
38.020        90
38.040        80
38.060        87
38.080        73
38.100        67
38.120        87
38.140        77
38.160        80
38.180        77
38.200       123
38.220        93
38.240        87
38.260        80
38.280        67
38.300        70
38.320        80
38.340        53
38.360        60
38.380       107
38.400        97
38.420        73
38.440        83
38.460        97
38.480        70
38.500        83
38.520       107
38.540        77
38.560       117
38.580        83
38.600        80
38.620        73
38.640        73
38.660       110
38.680        90
38.700       107
38.720       110
38.740        70
38.760        87
38.780        67
38.800        80
38.820        63
38.840        90
38.860        90
38.880        97
38.900        87
38.920        70
38.940        67
38.960        77
38.980        83
39.000       120
39.020        83
39.040       100
39.060       103
39.080       117
39.100       123
39.120        93
39.140       137
39.160       147
39.180       187
39.200       190
39.220       180
39.240       190
39.260       193
39.280       207
39.300       233
39.320       257
39.340       200
39.360       130
39.380       173
39.400       143
39.420       130
39.440       130
39.460       167
39.480       103
39.500        87
39.520        80
39.540        93
39.560       117
39.580        97
39.600        70
39.620        83
39.640        80
39.660        80
39.680        53
39.700       100
39.720        67
39.740        73
39.760        60
39.780        77
39.800        77
39.820        63
39.840        57
39.860        30
39.880        90
39.900       123
39.920        50
39.940        80
39.960        53
39.980        60
40.000        77
40.020        60
40.040        53
40.060        60
40.080        63
40.100        80
40.120        83
40.140        67
40.160        60
40.180        77
40.200        50
40.220        67
40.240        73
40.260        63
40.280        80
40.300        80
40.320        67
40.340        57
40.360        77
40.380        80
40.400        43
40.420        63
40.440        53
40.460        33
40.480        50
40.500        93
40.520        90
40.540        63
40.560        80
40.580        77
40.600        60
40.620        57
40.640        73
40.660        60
40.680        47
40.700        80
40.720        77
40.740        57
40.760        67
40.780        73
40.800        80
40.820        40
40.840        60
40.860        60
40.880        63
40.900        73
40.920        53
40.940        63
40.960        53
40.980        67
41.000        83
41.020        37
41.040        77
41.060        67
41.080        80
41.100        83
41.120        57
41.140        73
41.160        57
41.180        73
41.200        53
41.220        60
41.240        60
41.260        63
41.280        83
41.300        33
41.320        67
41.340        70
41.360        57
41.380        53
41.400        57
41.420        53
41.440        93
41.460        30
41.480        67
41.500        50
41.520        50
41.540        53
41.560        80
41.580        90
41.600        80
41.620        57
41.640        63
41.660        50
41.680        80
41.700        50
41.720        67
41.740        57
41.760        73
41.780        53
41.800        77
41.820        63
41.840        30
41.860        73
41.880        43
41.900        87
41.920        47
41.940        43
41.960        57
41.980        57
42.000        40
42.020        63
42.040        37
42.060        33
42.080        40
42.100        47
42.120        47
42.140        67
42.160        53
42.180        57
42.200        57
42.220        53
42.240        57
42.260        67
42.280        63
42.300        57
42.320        57
42.340        77
42.360        43
42.380        77
42.400        70
42.420        70
42.440        87
42.460       103
42.480        67
42.500        70
42.520        50
42.540        53
42.560        60
42.580        43
42.600        73
42.620        77
42.640        60
42.660        60
42.680        70
42.700        60
42.720        60
42.740        70
42.760        47
42.780        60
42.800        67
42.820        47
42.840        37
42.860        57
42.880        73
42.900        50
42.920        57
42.940        57
42.960        97
42.980        30
43.000        57
43.020        73
43.040        60
43.060        50
43.080        60
43.100        50
43.120        20
43.140        30
43.160        53
43.180        60
43.200        47
43.220        47
43.240        33
43.260        57
43.280        47
43.300        83
43.320        70
43.340        53
43.360        40
43.380        47
43.400        63
43.420        53
43.440        30
43.460        27
43.480        70
43.500        53
43.520        37
43.540        30
43.560        57
43.580        67
43.600        73
43.620        40
43.640        30
43.660        57
43.680        47
43.700        67
43.720        73
43.740        47
43.760        93
43.780        43
43.800        83
43.820        73
43.840        83
43.860        53
43.880        67
43.900        60
43.920        67
43.940        57
43.960        47
43.980        53
44.000        33
44.020        47
44.040        27
44.060        60
44.080        53
44.100        60
44.120        40
44.140        60
44.160        53
44.180        73
44.200        53
44.220        73
44.240        73
44.260        53
44.280        50
44.300        43
44.320        30
44.340        73
44.360        37
44.380        23
44.400        37
44.420        60
44.440        50
44.460        47
44.480        63
44.500        57
44.520        60
44.540        60
44.560        37
44.580        33
44.600        63
44.620        50
44.640        70
44.660        40
44.680        63
44.700        47
44.720        40
44.740        27
44.760        63
44.780        33
44.800        47
44.820        70
44.840        37
44.860        67
44.880        67
44.900        47
44.920        70
44.940        70
44.960        57
44.980        37
45.000        57
45.020        37
45.040        50
45.060        77
45.080        47
45.100        63
45.120        73
45.140        63
45.160        17
45.180        63
45.200        63
45.220        63
45.240        53
45.260        50
45.280        50
45.300        57
45.320        47
45.340        37
45.360        57
45.380        67
45.400        63
45.420        67
45.440        63
45.460        50
45.480        53
45.500        53
45.520        83
45.540        67
45.560        63
45.580        37
45.600        53
45.620        67
45.640        60
45.660        47
45.680        23
45.700        40
45.720        77
45.740        57
45.760        70
45.780        37
45.800        47
45.820        50
45.840        43
45.860        63
45.880        63
45.900        63
45.920        53
45.940        40
45.960        70
45.980        40
46.000        73
46.020        57
46.040        33
46.060        57
46.080        60
46.100        67
46.120        73
46.140        63
46.160        50
46.180        43
46.200        50
46.220        60
46.240        43
46.260        43
46.280        27
46.300        43
46.320        53
46.340        67
46.360        57
46.380        43
46.400        43
46.420        73
46.440        53
46.460        27
46.480        93
46.500        57
46.520        60
46.540        53
46.560        57
46.580        67
46.600        73
46.620        20
46.640        43
46.660        40
46.680        47
46.700        80
46.720        67
46.740        77
46.760       100
46.780       120
46.800        80
46.820       117
46.840       110
46.860       113
46.880        93
46.900        70
46.920        83
46.940        90
46.960       103
46.980       113
47.000       137
47.020       120
47.040       133
47.060       133
47.080       130
47.100       160
47.120       150
47.140       247
47.160       430
47.180       870
47.200      1466
47.220      1776
47.240      1619
47.260      1113
47.280       643
47.300       330
47.320       187
47.340       160
47.360       133
47.380       160
47.400       107
47.420       113
47.440       107
47.460        97
47.480       110
47.500       100
47.520        80
47.540        83
47.560        87
47.580        87
47.600        87
47.620        77
47.640        87
47.660       103
47.680       100
47.700        77
47.720        60
47.740        43
47.760        60
47.780        83
47.800        70
47.820        87
47.840        77
47.860        57
47.880        67
47.900        70
47.920        57
47.940        60
47.960        83
47.980        73
48.000        63
48.020        80
48.040        67
48.060        60
48.080        70
48.100        40
48.120        57
48.140        40
48.160        60
48.180        50
48.200        50
48.220        60
48.240        47
48.260        57
48.280        67
48.300        53
48.320        67
48.340        70
48.360        70
48.380        87
48.400        63
48.420        73
48.440        43
48.460        63
48.480        80
48.500        97
48.520        47
48.540        43
48.560        47
48.580        57
48.600        60
48.620        87
48.640        83
48.660        80
48.680        63
48.700        57
48.720        57
48.740        63
48.760        77
48.780        63
48.800        63
48.820        77
48.840        53
48.860        60
48.880        57
48.900       103
48.920        47
48.940        67
48.960        77
48.980        43
49.000        43
49.020        47
49.040        47
49.060        30
49.080        60
49.100        57
49.120        50
49.140        63
49.160        60
49.180        60
49.200        63
49.220        43
49.240        53
49.260        67
49.280        43
49.300        60
49.320        50
49.340        57
49.360        57
49.380        70
49.400        57
49.420        67
49.440        67
49.460        57
49.480        50
49.500        63
49.520        47
49.540        37
49.560        57
49.580        83
49.600        60
49.620        60
49.640        50
49.660        97
49.680        33
49.700        53
49.720        50
49.740        43
49.760        57
49.780        67
49.800        60
49.820        73
49.840        63
49.860        67
49.880        90
49.900        77
49.920        60
49.940        70
49.960        50
49.980        53
50.000        93
50.020        47
50.040        70
50.060        70
50.080        70
50.100        37
50.120        70
50.140        40
50.160        37
50.180        77
50.200        60
50.220        63
50.240        57
50.260        67
50.280        60
50.300        60
50.320        70
50.340        83
50.360        57
50.380        73
50.400        47
50.420        70
50.440        70
50.460        63
50.480        67
50.500        87
50.520        67
50.540        50
50.560        63
50.580        77
50.600        97
50.620        80
50.640       103
50.660       150
50.680       193
50.700       267
50.720       313
50.740       413
50.760       393
50.780       380
50.800       393
50.820       383
50.840       553
50.860       486
50.880       486
50.900       460
50.920       407
50.940       460
50.960       413
50.980       433
51.000       483
51.020       473
51.040       470
51.060       466
51.080       493
51.100       387
51.120       463
51.140       460
51.160       400
51.180       426
51.200       473
51.220       516
51.240       500
51.260       433
51.280       430
51.300       426
51.320       506
51.340       420
51.360       550
51.380       450
51.400       410
51.420       433
51.440       483
51.460       540
51.480       453
51.500       556
51.520       460
51.540       526
51.560       556
51.580       476
51.600       563
51.620       526
51.640       470
51.660       483
51.680       483
51.700       550
51.720       463
51.740       510
51.760       546
51.780       513
51.800       500
51.820       583
51.840       603
51.860       486
51.880       536
51.900       563
51.920       550
51.940       710
51.960       563
51.980       640
52.000       616
52.020       680
52.040       626
52.060       670
52.080       713
52.100       770
52.120       810
52.140       816
52.160       783
52.180       850
52.200      1013
52.220      1123
52.240      1233
52.260      1419
52.280      1509
52.300      2003
52.320      2589
52.340      3609
52.360      4525
52.380      6068
52.400      7480
52.420      8380
52.440      9236
52.460     10259
52.480     11575
52.500     13101
52.520     17173
52.540     26436
52.560     59340
52.580    124867
52.600    174554
52.620    189358
52.640    167969
52.660    105624
52.680     53635
52.700     46951
52.720     75460
52.740    102386
52.760    111822
52.780     94419
52.800     56314
52.820     24260
52.840     11645
52.860      7357
52.880      5118
52.900      3699
52.920      3075
52.940      2486
52.960      2312
52.980      1986
53.000      1659
53.020      1546
53.040      1436
53.060      1376
53.080      1140
53.100      1056
53.120      1110
53.140       980
53.160       986
53.180       863
53.200       816
53.220       770
53.240       773
53.260       690
53.280       656
53.300       753
53.320       720
53.340       743
53.360       696
53.380       623
53.400       620
53.420       640
53.440       640
53.460       513
53.480       633
53.500       653
53.520       576
53.540       520
53.560       556
53.580       460
53.600       553
53.620       530
53.640       490
53.660       503
53.680       496
53.700       586
53.720       513
53.740       486
53.760       446
53.780       540
53.800       417
53.820       417
53.840       433
53.860       433
53.880       470
53.900       443
53.920       446
53.940       350
53.960       397
53.980       387
54.000       436
54.020       420
54.040       373
54.060       443
54.080       417
54.100       387
54.120       420
54.140       413
54.160       343
54.180       400
54.200       400
54.220       377
54.240       383
54.260       333
54.280       377
54.300       383
54.320       380
54.340       393
54.360       330
54.380       330
54.400       420
54.420       420
54.440       313
54.460       347
54.480       407
54.500       340
54.520       313
54.540       333
54.560       393
54.580       343
54.600       327
54.620       373
54.640       370
54.660       300
54.680       313
54.700       337
54.720       340
54.740       280
54.760       367
54.780       310
54.800       283
54.820       363
54.840       293
54.860       287
54.880       330
54.900       333
54.920       263
54.940       320
54.960       310
54.980       320
55.000       317
55.020       330
55.040       327
55.060       270
55.080       303
55.100       297
55.120       293
55.140       303
55.160       237
55.180       343
55.200       310
55.220       280
55.240       273
55.260       240
55.280       253
55.300       290
55.320       293
55.340       403
55.360       317
55.380       243
55.400       327
55.420       220
55.440       283
55.460       250
55.480       233
55.500       327
55.520       273
55.540       267
55.560       310
55.580       253
55.600       267
55.620       263
55.640       290
55.660       293
55.680       283
55.700       293
55.720       313
55.740       300
55.760       240
55.780       257
55.800       273
55.820       220
55.840       270
55.860       283
55.880       260
55.900       240
55.920       253
55.940       243
55.960       307
55.980       273
56.000       243
56.020       267
56.040       277
56.060       327
56.080       227
56.100       253
56.120       207
56.140       230
56.160       273
56.180       180
56.200       227
56.220       240
56.240       213
56.260       327
56.280       270
56.300       263
56.320       250
56.340       227
56.360       240
56.380       243
56.400       230
56.420       263
56.440       233
56.460       257
56.480       223
56.500       240
56.520       283
56.540       320
56.560       217
56.580       280
56.600       273
56.620       260
56.640       233
56.660       283
56.680       327
56.700       323
56.720       330
56.740       303
56.760       310
56.780       313
56.800       320
56.820       253
56.840       257
56.860       263
56.880       253
56.900       210
56.920       227
56.940       280
56.960       277
56.980       213
57.000       227
57.020       243
57.040       233
57.060       217
57.080       253
57.100       180
57.120       257
57.140       190
57.160       263
57.180       193
57.200       257
57.220       237
57.240       227
57.260       177
57.280       240
57.300       193
57.320       210
57.340       263
57.360       220
57.380       220
57.400       203
57.420       193
57.440       203
57.460       207
57.480       180
57.500       220
57.520       190
57.540       230
57.560       250
57.580       207
57.600       253
57.620       240
57.640       280
57.660       227
57.680       163
57.700       190
57.720       207
57.740       190
57.760       250
57.780       180
57.800       203
57.820       223
57.840       147
57.860       163
57.880       240
57.900       230
57.920       170
57.940       217
57.960       177
57.980       173
58.000       170
58.020       160
58.040       170
58.060       190
58.080       197
58.100       197
58.120       170
58.140       150
58.160       200
58.180       207
58.200       190
58.220       200
58.240       197
58.260       227
58.280       160
58.300       157
58.320       237
58.340       223
58.360       147
58.380       193
58.400       157
58.420       183
58.440       203
58.460       190
58.480       177
58.500       150
58.520       183
58.540       200
58.560       197
58.580       200
58.600       210
58.620       150
58.640       207
58.660       220
58.680       207
58.700       137
58.720       220
58.740       190
58.760       227
58.780       160
58.800       143
58.820       197
58.840       193
58.860       177
58.880       183
58.900       187
58.920       187
58.940       153
58.960       170
58.980       210
59.000       200
59.020       220
59.040       137
59.060       170
59.080       183
59.100       150
59.120       170
59.140       227
59.160       153
59.180       207
59.200       157
59.220       147
59.240       173
59.260       147
59.280       173
59.300       133
59.320       177
59.340       200
59.360       183
59.380       157
59.400       177
59.420       170
59.440       177
59.460       163
59.480       157
59.500       153
59.520       177
59.540       160
59.560       183
59.580       183
59.600       170
59.620       143
59.640       200
59.660       147
59.680       163
59.700       110
59.720       153
59.740       183
59.760       173
59.780       173
59.800       150
59.820       133
59.840       183
59.860       147
59.880       167
59.900       173
59.920       130
59.940       173
59.960       120
59.980       130
60.000       150
