20.000        70
20.020        77
20.040        90
20.060        50
20.080        67
20.100        60
20.120        97
20.140        43
20.160        67
20.180        77
20.200        63
20.220        77
20.240        87
20.260        40
20.280        77
20.300        80
20.320        43
20.340        93
20.360        87
20.380        67
20.400        63
20.420        90
20.440        57
20.460        77
20.480        93
20.500        90
20.520        60
20.540        67
20.560        57
20.580        63
20.600        70
20.620        70
20.640        43
20.660        57
20.680        80
20.700        70
20.720        57
20.740        97
20.760        80
20.780        47
20.800        90
20.820        73
20.840        50
20.860        70
20.880        43
20.900        53
20.920        30
20.940        63
20.960        43
20.980        80
21.000        47
21.020        63
21.040        77
21.060        87
21.080        80
21.100        63
21.120        77
21.140        90
21.160        40
21.180        67
21.200        67
21.220        70
21.240        57
21.260        87
21.280        73
21.300        83
21.320        57
21.340        73
21.360        97
21.380        63
21.400        90
21.420        70
21.440        90
21.460        83
21.480        90
21.500        63
21.520        47
21.540        57
21.560        63
21.580        63
21.600        57
21.620        77
21.640        57
21.660        87
21.680        70
21.700        57
21.720        80
21.740        70
21.760        37
21.780        57
21.800        50
21.820        53
21.840        70
21.860        67
21.880        77
21.900        97
21.920        80
21.940        87
21.960        70
21.980        97
22.000       123
22.020        97
22.040        67
22.060       117
22.080       107
22.100        87
22.120       123
22.140       107
22.160       130
22.180        90
22.200        97
22.220       133
22.240        90
22.260        63
22.280        80
22.300        63
22.320        60
22.340        77
22.360        63
22.380        60
22.400        53
22.420        63
22.440        60
22.460        63
22.480        50
22.500        47
22.520        50
22.540        43
22.560        53
22.580        67
22.600        87
22.620        67
22.640        90
22.660        60
22.680        77
22.700        50
22.720        67
22.740        57
22.760        57
22.780        67
22.800        53
22.820        80
22.840        60
22.860        80
22.880        63
22.900        60
22.920        80
22.940        70
22.960        80
22.980        43
23.000        53
23.020        63
23.040        70
23.060       113
23.080        43
23.100        60
23.120        93
23.140        40
23.160        43
23.180        37
23.200        50
23.220        57
23.240        60
23.260        70
23.280        77
23.300        67
23.320        63
23.340        40
23.360        37
23.380        50
23.400        50
23.420        43
23.440        40
23.460        70
23.480        63
23.500        47
23.520        53
23.540        57
23.560        47
23.580        47
23.600        50
23.620        67
23.640        40
23.660        40
23.680        50
23.700        67
23.720        57
23.740        47
23.760        53
23.780        57
23.800        83
23.820        63
23.840        90
23.860        77
23.880        60
23.900        50
23.920        57
23.940        80
23.960        60
23.980        57
24.000        37
24.020        43
24.040        50
24.060        53
24.080        47
24.100        53
24.120        57
24.140        53
24.160        50
24.180        77
24.200        93
24.220        50
24.240        70
24.260        43
24.280        43
24.300        37
24.320        50
24.340        43
24.360        40
24.380        40
24.400        50
24.420        53
24.440        40
24.460        77
24.480        60
24.500        43
24.520        43
24.540        73
24.560        53
24.580        40
24.600        57
24.620        70
24.640        43
24.660        77
24.680        90
24.700        73
24.720        73
24.740        83
24.760        93
24.780       107
24.800       120
24.820       140
24.840       117
24.860       133
24.880       133
24.900       127
24.920       147
24.940       127
24.960        90
24.980        77
25.000        70
25.020        70
25.040        57
25.060        43
25.080        73
25.100        47
25.120        80
25.140        80
25.160        60
25.180        77
25.200        53
25.220        53
25.240        57
25.260        70
25.280        43
25.300        37
25.320        47
25.340        53
25.360        40
25.380        47
25.400        40
25.420        60
25.440        50
25.460        33
25.480        53
25.500        37
25.520        37
25.540        40
25.560        50
25.580        30
25.600        43
25.620        53
25.640        70
25.660        57
25.680        53
25.700        30
25.720        47
25.740        63
25.760        43
25.780        43
25.800        63
25.820        53
25.840        47
25.860        63
25.880        40
25.900        47
25.920        43
25.940        50
25.960        30
25.980        27
26.000        53
26.020        70
26.040        37
26.060        33
26.080        30
26.100        60
26.120        60
26.140        53
26.160        17
26.180        57
26.200        37
26.220        60
26.240        77
26.260        40
26.280        47
26.300        50
26.320        67
26.340        53
26.360        57
26.380        47
26.400        43
26.420        67
26.440        63
26.460        27
26.480        50
26.500        50
26.520        43
26.540        37
26.560        40
26.580        60
26.600        40
26.620        23
26.640        83
26.660        50
26.680        57
26.700        60
26.720        70
26.740        50
26.760        50
26.780        67
26.800        67
26.820        53
26.840        43
26.860        37
26.880        53
26.900        47
26.920        40
26.940        43
26.960        57
26.980        33
27.000        37
27.020        53
27.040        37
27.060        50
27.080        63
27.100        40
27.120        23
27.140        50
27.160        60
27.180        33
27.200        63
27.220        53
27.240        50
27.260        57
27.280        33
27.300        30
27.320        27
27.340        47
27.360        53
27.380        33
27.400        33
27.420        27
27.440        43
27.460        30
27.480        30
27.500        40
27.520        40
27.540        30
27.560        40
27.580        47
27.600        37
27.620        43
27.640        60
27.660        40
27.680        50
27.700        63
27.720        73
27.740        50
27.760        37
27.780        30
27.800        37
27.820        43
27.840        50
27.860        60
27.880        57
27.900        57
27.920        27
27.940        20
27.960        50
27.980        73
28.000        37
28.020        27
28.040        47
28.060        30
28.080        37
28.100        47
28.120        67
28.140        23
28.160        43
28.180        37
28.200        33
28.220        37
28.240        53
28.260        43
28.280        30
28.300        33
28.320        37
28.340        40
28.360        40
28.380        27
28.400        63
28.420        47
28.440        37
28.460        37
28.480        60
28.500        47
28.520        20
28.540        40
28.560        37
28.580        50
28.600        20
28.620        67
28.640        43
28.660        53
28.680        40
28.700        43
28.720        23
28.740        57
28.760        37
28.780        33
28.800        50
28.820        30
28.840        63
28.860        30
28.880        37
28.900        43
28.920        30
28.940        53
28.960        43
28.980        57
29.000        33
29.020        47
29.040        47
29.060        50
29.080        53
29.100        40
29.120        47
29.140        57
29.160        57
29.180        37
29.200        90
29.220        63
29.240        67
29.260        90
29.280        97
29.300       117
29.320       103
29.340       100
29.360       113
29.380       153
29.400        87
29.420       143
29.440       147
29.460        90
29.480        77
29.500        43
29.520        80
29.540        40
29.560        30
29.580        43
29.600        60
29.620        70
29.640        57
29.660        67
29.680        43
29.700        47
29.720        40
29.740        47
29.760        30
29.780        23
29.800        40
29.820        30
29.840        53
29.860        57
29.880        27
29.900        33
29.920        57
29.940        47
29.960        37
29.980        37
30.000        27
30.020        23
30.040        77
30.060        40
30.080        57
30.100        43
30.120        67
30.140        47
30.160        60
30.180        33
30.200        60
30.220        43
30.240        27
30.260        37
30.280        33
30.300        20
30.320        37
30.340        33
30.360        37
30.380        43
30.400        57
30.420        57
30.440        53
30.460        33
30.480        53
30.500        50
30.520        33
30.540        17
30.560        43
30.580        50
30.600        50
30.620        63
30.640        60
30.660        33
30.680        43
30.700        33
30.720        47
30.740        50
30.760        33
30.780        47
30.800        50
30.820        47
30.840        53
30.860        20
30.880        63
30.900        27
30.920        63
30.940        60
30.960        53
30.980        40
31.000        67
31.020        23
31.040        33
31.060        50
31.080        53
31.100        37
31.120        70
31.140        60
31.160        33
31.180        63
31.200       110
31.220        77
31.240       113
31.260       120
31.280       120
31.300       120
31.320       147
31.340       213
31.360       240
31.380       220
31.400       267
31.420       293
31.440       307
31.460       343
31.480       383
31.500       380
31.520       456
31.540       403
31.560       330
31.580       367
31.600       290
31.620       240
31.640       173
31.660       193
31.680       170
31.700       130
31.720       110
31.740       123
31.760        77
31.780        43
31.800        63
31.820        50
31.840        60
31.860        67
31.880        60
31.900        33
31.920        73
31.940        57
31.960        50
31.980        47
32.000        73
32.020        77
32.040        53
32.060        23
32.080        57
32.100        50
32.120        33
32.140        40
32.160        60
32.180        47
32.200        50
32.220        67
32.240        70
32.260        50
32.280        53
32.300        43
32.320        30
32.340        50
32.360        43
32.380        33
32.400        47
32.420        63
32.440        37
32.460        37
32.480        30
32.500        40
32.520        40
32.540        43
32.560        23
32.580        53
32.600        40
32.620        43
32.640        53
32.660        17
32.680        37
32.700        53
32.720        50
32.740        37
32.760        50
32.780        30
32.800        40
32.820        47
32.840        47
32.860        30
32.880        47
32.900        33
32.920        23
32.940        50
32.960        57
32.980        70
33.000        33
33.020        53
33.040        27
33.060        47
33.080        40
33.100        47
33.120        40
33.140        57
33.160        37
33.180        47
33.200        50
33.220        47
33.240        17
33.260        47
33.280        37
33.300        40
33.320        27
33.340        57
33.360        50
33.380        27
33.400        47
33.420        47
33.440        40
33.460        27
33.480        50
33.500        17
33.520        50
33.540        33
33.560        53
33.580        40
33.600        50
33.620        37
33.640        47
33.660        60
33.680        47
33.700        50
33.720        30
33.740        30
33.760        53
33.780        30
33.800        30
33.820        37
33.840        43
33.860        63
33.880        60
33.900        40
33.920        40
33.940        47
33.960        37
33.980        27
34.000        70
34.020        77
34.040        33
34.060        30
34.080        30
34.100        30
34.120        47
34.140        37
34.160        23
34.180        33
34.200        30
34.220        37
34.240        60
34.260        57
34.280        43
34.300        43
34.320        47
34.340        40
34.360        67
34.380        57
34.400        20
34.420        30
34.440        53
34.460        63
34.480        33
34.500        33
34.520        27
34.540        20
34.560        50
34.580        47
34.600        57
34.620        33
34.640        67
34.660        43
34.680        30
34.700        57
34.720        40
34.740        40
34.760        23
34.780        53
34.800        53
34.820        47
34.840        40
34.860        60
34.880        37
34.900        50
34.920        63
34.940        27
34.960        27
34.980        40
35.000        43
35.020        57
35.040        40
35.060        43
35.080        50
35.100        37
35.120        53
35.140        47
35.160        57
35.180        37
35.200        50
35.220        47
35.240        37
35.260        63
35.280        47
35.300        57
35.320        50
35.340        50
35.360        33
35.380        27
35.400        40
35.420        40
35.440        60
35.460        37
35.480        33
35.500        43
35.520        33
35.540        20
35.560        60
35.580        40
35.600        47
35.620        47
35.640        33
35.660        47
35.680        40
35.700        33
35.720        57
35.740        40
35.760        63
35.780        33
35.800        57
35.820        37
35.840        53
35.860        17
35.880        27
35.900        57
35.920        50
35.940        53
35.960        40
35.980        50
36.000        60
36.020        37
36.040        57
36.060        37
36.080        63
36.100        40
36.120        53
36.140        27
36.160        43
36.180        43
36.200        50
36.220        43
36.240        70
36.260        33
36.280        47
36.300        43
36.320        67
36.340        30
36.360        53
36.380        63
36.400        40
36.420        40
36.440        37
36.460        47
36.480        53
36.500        57
36.520        40
36.540        70
36.560        53
36.580        57
36.600        53
36.620        83
36.640        67
36.660        67
36.680        80
36.700        80
36.720        57
36.740        47
36.760        60
36.780        73
36.800        67
36.820        53
36.840        53
36.860        50
36.880        60
36.900        83
36.920        37
36.940        63
36.960        77
36.980        57
37.000        40
37.020        40
37.040        63
37.060        57
37.080        63
37.100        60
37.120        40
37.140        60
37.160        57
37.180        43
37.200        53
37.220        50
37.240        47
37.260        53
37.280        60
37.300        50
37.320        47
37.340        47
37.360        27
37.380        50
37.400        57
37.420        50
37.440        63
37.460        30
37.480        47
37.500        43
37.520        37
37.540        33
37.560        40
37.580        43
37.600        37
37.620        67
37.640        43
37.660        50
37.680        60
37.700        50
37.720        60
37.740        40
37.760        43
37.780        50
37.800        43
37.820        57
37.840        40
37.860        50
37.880        37
37.900       103
37.920        40
37.940        47
37.960        37
37.980        47
38.000        33
38.020        53
38.040        50
38.060        57
38.080        37
38.100        33
38.120        57
38.140        40
38.160        33
38.180        47
38.200        67
38.220        50
38.240        30
38.260        47
38.280        30
38.300        40
38.320        70
38.340        43
38.360        60
38.380        47
38.400        57
38.420        47
38.440        63
38.460        40
38.480        70
38.500        63
38.520        47
38.540        83
38.560        60
38.580        57
38.600        60
38.620        83
38.640        97
38.660        93
38.680        77
38.700        80
38.720        93
38.740        97
38.760       107
38.780       157
38.800       133
38.820       147
38.840       160
38.860       160
38.880       177
38.900        83
38.920       120
38.940       107
38.960       120
38.980        67
39.000        67
39.020        83
39.040        77
39.060        50
39.080        40
39.100        57
39.120        47
39.140        53
39.160        57
39.180        73
39.200        50
39.220        33
39.240        73
39.260        43
39.280        40
39.300        63
39.320        43
39.340        60
39.360        57
39.380        50
39.400        33
39.420        40
39.440        30
39.460        47
39.480        37
39.500        50
39.520        63
39.540        47
39.560        53
39.580        47
39.600        33
39.620        57
39.640        53
39.660        57
39.680        37
39.700        40
39.720        33
39.740        53
39.760        50
39.780        33
39.800        33
39.820        57
39.840        47
39.860        60
39.880        53
39.900        27
39.920        67
39.940        60
39.960        47
39.980        60
40.000        40
40.020        37
40.040        43
40.060        57
40.080        37
40.100        50
40.120        40
40.140        57
40.160        53
40.180        60
40.200        40
40.220        47
40.240        43
40.260        67
40.280        53
40.300        53
40.320        47
40.340        40
40.360        83
40.380        50
40.400        43
40.420        53
40.440        40
40.460        57
40.480        40
40.500        53
40.520        33
40.540        30
40.560        40
40.580        43
40.600        33
40.620        77
40.640        47
40.660        60
40.680        27
40.700        40
40.720        30
40.740        37
40.760        33
40.780        40
40.800        43
40.820        37
40.840        47
40.860        40
40.880        60
40.900        50
40.920        43
40.940        60
40.960        47
40.980        40
41.000        70
41.020        43
41.040        40
41.060        27
41.080        70
41.100        43
41.120        50
41.140        57
41.160        50
41.180        33
41.200        40
41.220        40
41.240        53
41.260        33
41.280        40
41.300        47
41.320        50
41.340        77
41.360        63
41.380        50
41.400        60
41.420        77
41.440        57
41.460        47
41.480        63
41.500        67
41.520        57
41.540        43
41.560        57
41.580        53
41.600        30
41.620        43
41.640        57
41.660        37
41.680        47
41.700        20
41.720        40
41.740        63
41.760        67
41.780        60
41.800        53
41.820        27
41.840        37
41.860        50
41.880        37
41.900        63
41.920        57
41.940        43
41.960        33
41.980        70
42.000        57
42.020        47
42.040        40
42.060        37
42.080        67
42.100        57
42.120        33
42.140        57
42.160        50
42.180        40
42.200        50
42.220        53
42.240        47
42.260        17
42.280        53
42.300        23
42.320        37
42.340        43
42.360        53
42.380        47
42.400        57
42.420        50
42.440        33
42.460        33
42.480        33
42.500        60
42.520        33
42.540        23
42.560        50
42.580        30
42.600        40
42.620        50
42.640        33
42.660        33
42.680        33
42.700        37
42.720        10
42.740        33
42.760        47
42.780        33
42.800        70
42.820        37
42.840        30
42.860        47
42.880        40
42.900        57
42.920        33
42.940        23
42.960        47
42.980        47
43.000        43
43.020        20
43.040        57
43.060        43
43.080        57
43.100        53
43.120        50
43.140        43
43.160        50
43.180        47
43.200        10
43.220        30
43.240        20
43.260        43
43.280        30
43.300        37
43.320        60
43.340        30
43.360        40
43.380        53
43.400        33
43.420        50
43.440        37
43.460        17
43.480        57
43.500        53
43.520        50
43.540        33
43.560        47
43.580        27
43.600        37
43.620        17
43.640        43
43.660        40
43.680        20
43.700        40
43.720        23
43.740        43
43.760        33
43.780        77
43.800        23
43.820        40
43.840        43
43.860        27
43.880        40
43.900        37
43.920        40
43.940        33
43.960        33
43.980        33
44.000        43
44.020        43
44.040        30
44.060        27
44.080        43
44.100        20
44.120        30
44.140        23
44.160        30
44.180        50
44.200        40
44.220        27
44.240        30
44.260        47
44.280        10
44.300        43
44.320        30
44.340        27
44.360        40
44.380        27
44.400        30
44.420        30
44.440        30
44.460        20
44.480        37
44.500        37
44.520        40
44.540        43
44.560        63
44.580        43
44.600        20
44.620        47
44.640        37
44.660        40
44.680        60
44.700        50
44.720        17
44.740        33
44.760        70
44.780        37
44.800        47
44.820        53
44.840        80
44.860        50
44.880        63
44.900        43
44.920        60
44.940        93
44.960       110
44.980       100
45.000       110
45.020        87
45.040        90
45.060       127
45.080       137
45.100        83
45.120       133
45.140       170
45.160       120
45.180       130
45.200       120
45.220       150
45.240       143
45.260       110
45.280       110
45.300       120
45.320       117
45.340       117
45.360       103
45.380        73
45.400        93
45.420        73
45.440        60
45.460        67
45.480        67
45.500        60
45.520        87
45.540        47
45.560        47
45.580        37
45.600        53
45.620        57
45.640        60
45.660        27
45.680        23
45.700        20
45.720        47
45.740        40
45.760        50
45.780        27
45.800        43
45.820        40
45.840        23
45.860        20
45.880        30
45.900        37
45.920        23
45.940        23
45.960        40
45.980        30
46.000        40
46.020        23
46.040        33
46.060        27
46.080        37
46.100        50
46.120        23
46.140        40
46.160        23
46.180        27
46.200        33
46.220        37
46.240        43
46.260        33
46.280        40
46.300        47
46.320        33
46.340        37
46.360        37
46.380        27
46.400        40
46.420        40
46.440        47
46.460        43
46.480        50
46.500        37
46.520        40
46.540        37
46.560        43
46.580        37
46.600        33
46.620        43
46.640        30
46.660        20
46.680        17
46.700        53
46.720        30
46.740        30
46.760        20
46.780        33
46.800        43
46.820        40
46.840        17
46.860        23
46.880        27
46.900        17
46.920        23
46.940        27
46.960        33
46.980        17
47.000        10
47.020        20
47.040        30
47.060        47
47.080        40
47.100        17
47.120        20
47.140        27
47.160        33
47.180        30
47.200        40
47.220        27
47.240        43
47.260        17
47.280        40
47.300        30
47.320        13
47.340        20
47.360        33
47.380        43
47.400        37
47.420        37
47.440        40
47.460        17
47.480        33
47.500        23
47.520        13
47.540        37
47.560        40
47.580        43
47.600        27
47.620        37
47.640        30
47.660        43
47.680        30
47.700        40
47.720        27
47.740        33
47.760        23
47.780        30
47.800        43
47.820        33
47.840        10
47.860        37
47.880        20
47.900        37
47.920        60
47.940        27
47.960        23
47.980        13
48.000        27
48.020        33
48.040        33
48.060        10
48.080        33
48.100        40
48.120        43
48.140        60
48.160        23
48.180        27
48.200        30
48.220        33
48.240        43
48.260        20
48.280        17
48.300        47
48.320        17
48.340        33
48.360        47
48.380        30
48.400        27
48.420        13
48.440        37
48.460        33
48.480        23
48.500        33
48.520        10
48.540        27
48.560        20
48.580        27
48.600        37
48.620        20
48.640        30
48.660        50
48.680        20
48.700        20
48.720        23
48.740        43
48.760        27
48.780        30
48.800        40
48.820        40
48.840        53
48.860        30
48.880        33
48.900        50
48.920        37
48.940         7
48.960        27
48.980        43
49.000        17
49.020        23
49.040        40
49.060        37
49.080        37
49.100        33
49.120        27
49.140        50
49.160        33
49.180        40
49.200        20
49.220        40
49.240        23
49.260        43
49.280        27
49.300        53
49.320        27
49.340        43
49.360        30
49.380        40
49.400        43
49.420        40
49.440        33
49.460        37
49.480        27
49.500        37
49.520        40
49.540        30
49.560        43
49.580        37
49.600        23
49.620        13
49.640        30
49.660        23
49.680        17
49.700        33
49.720        33
49.740        40
49.760        27
49.780        23
49.800        30
49.820        37
49.840        37
49.860        37
49.880        23
49.900        20
49.920        20
49.940        37
49.960        27
49.980        53
50.000        13
50.020        33
50.040        20
50.060        23
50.080        30
50.100        17
50.120        47
50.140        37
50.160        37
50.180        17
50.200        17
50.220        37
50.240        33
50.260        27
50.280        23
50.300        30
50.320        43
50.340        33
50.360        20
50.380        17
50.400        47
50.420        40
50.440        33
50.460        33
50.480        20
50.500        30
50.520        13
50.540        33
50.560        50
50.580        23
50.600        23
50.620        17
50.640        47
50.660        50
50.680        20
50.700        47
50.720        63
50.740        70
50.760        43
50.780        60
50.800        67
50.820        43
50.840        37
50.860        50
50.880        60
50.900        63
50.920        50
50.940        50
50.960        57
50.980        50
51.000        70
51.020        53
51.040        57
51.060        43
51.080        30
51.100        27
51.120        47
51.140        17
51.160        50
51.180        30
51.200        37
51.220        30
51.240        57
51.260        27
51.280        17
51.300        43
51.320        30
51.340        43
51.360        23
51.380        27
51.400        23
51.420        13
51.440        40
51.460        33
51.480        23
51.500        33
51.520        17
51.540        30
51.560        33
51.580        10
51.600        20
51.620        17
51.640        13
51.660        23
51.680        20
51.700        37
51.720        23
51.740        23
51.760        40
51.780        20
51.800        17
51.820        27
51.840        30
51.860        33
51.880        27
51.900        30
51.920        13
51.940        20
51.960        23
51.980        10
52.000        23
52.020        43
52.040        10
52.060        33
52.080        27
52.100        40
52.120        13
52.140        37
52.160        33
52.180        20
52.200        17
52.220        17
52.240        13
52.260        23
52.280        20
52.300        30
52.320        27
52.340        30
52.360        33
52.380        23
52.400        37
52.420        17
52.440        30
52.460        13
52.480        23
52.500        23
52.520        17
52.540        43
52.560        17
52.580        40
52.600        20
52.620        17
52.640        23
52.660        27
52.680        30
52.700        33
52.720        37
52.740        40
52.760         7
52.780        13
52.800        27
52.820        27
52.840        23
52.860        33
52.880        17
52.900        27
52.920        27
52.940        33
52.960        27
52.980        30
53.000        17
53.020        10
53.040        20
53.060        23
53.080        20
53.100        33
53.120        20
53.140        33
53.160        40
53.180        20
53.200        20
53.220        23
53.240        20
53.260        23
53.280        27
53.300        27
53.320        20
53.340        17
53.360        30
53.380        10
53.400        33
53.420        30
53.440        33
53.460        17
53.480        27
53.500        30
53.520        17
53.540        40
53.560        33
53.580        17
53.600        10
53.620        27
53.640        27
53.660        10
53.680        17
53.700        33
53.720        13
53.740        20
53.760        30
53.780        30
53.800        27
53.820        23
53.840        20
53.860        17
53.880        33
53.900        27
53.920        13
53.940        20
53.960        10
53.980        37
54.000        30
54.020        33
54.040        33
54.060        40
54.080        33
54.100        23
54.120        17
54.140        23
54.160        13
54.180        23
54.200        23
54.220        30
54.240        30
54.260        17
54.280        30
54.300        27
54.320        27
54.340        50
54.360        30
54.380        27
54.400        27
54.420        30
54.440        27
54.460        27
54.480        37
54.500        20
54.520        23
54.540        40
54.560        27
54.580        27
54.600        27
54.620        20
54.640        20
54.660        23
54.680        23
54.700        33
54.720        20
54.740        20
54.760        13
54.780        27
54.800        23
54.820        20
54.840        17
54.860        23
54.880        37
54.900        13
54.920        40
54.940        27
54.960        33
54.980        37
55.000         7
55.020        27
55.040        13
55.060        27
55.080        27
55.100        37
55.120         7
55.140        23
55.160        17
55.180        13
55.200        20
55.220        20
55.240         3
55.260        20
55.280        17
55.300        10
55.320        27
55.340        20
55.360        27
55.380        23
55.400        23
55.420        47
55.440        33
55.460        23
55.480        27
55.500        30
55.520        23
55.540        27
55.560        30
55.580        20
55.600        13
55.620        43
55.640        50
55.660        40
55.680        33
55.700        33
55.720        27
55.740        33
55.760        60
55.780        40
55.800        50
55.820        33
55.840        20
55.860        70
55.880        63
55.900        83
55.920        73
55.940       110
55.960        60
55.980        57
56.000        83
56.020        97
56.040        83
56.060       137
56.080       107
56.100       133
56.120       113
56.140        70
56.160       143
56.180       123
56.200       150
56.220        97
56.240        90
56.260       123
56.280        60
56.300       137
56.320       117
56.340       107
56.360        80
56.380        60
56.400        70
56.420        77
56.440        53
56.460        60
56.480        47
56.500        43
56.520        37
56.540        37
56.560        40
56.580        37
56.600        37
56.620        30
56.640        30
56.660        37
56.680        20
56.700        40
56.720        17
56.740        27
56.760        33
56.780        27
56.800        27
56.820        30
56.840        20
56.860        20
56.880        33
56.900        30
56.920        13
56.940        33
56.960        30
56.980        23
57.000        27
57.020        17
57.040        17
57.060        10
57.080        20
57.100        43
57.120        40
57.140        30
57.160        30
57.180        13
57.200         7
57.220        13
57.240        17
57.260        27
57.280        13
57.300        27
57.320        27
57.340        13
57.360        23
57.380        17
57.400        20
57.420        17
57.440        13
57.460        17
57.480        33
57.500        13
57.520        20
57.540        27
57.560        13
57.580        40
57.600        23
57.620        23
57.640        37
57.660         7
57.680        30
57.700        13
57.720        23
57.740        40
57.760        33
57.780        13
57.800        30
57.820        23
57.840        13
57.860        17
57.880        17
57.900        20
57.920        40
57.940        23
57.960        27
57.980        27
58.000        13
58.020        23
58.040        37
58.060        40
58.080        20
58.100        20
58.120        17
58.140        13
58.160        23
58.180        33
58.200        30
58.220        23
58.240        23
58.260        23
58.280        17
58.300        33
58.320        10
58.340        33
58.360        20
58.380        27
58.400        37
58.420        23
58.440        20
58.460         7
58.480        20
58.500        20
58.520        13
58.540        17
58.560         7
58.580        17
58.600        13
58.620        23
58.640        43
58.660        37
58.680        20
58.700        47
58.720        23
58.740         7
58.760        27
58.780        13
58.800        10
58.820        27
58.840        27
58.860        10
58.880         7
58.900        27
58.920        27
58.940        23
58.960        20
58.980        13
59.000        27
59.020        10
59.040        20
59.060        27
59.080        37
59.100        27
59.120        10
59.140        20
59.160        23
59.180        10
59.200        23
59.220        23
59.240         7
59.260        23
59.280        23
59.300        10
59.320        40
59.340        13
59.360        23
59.380        33
59.400         3
59.420        20
59.440        13
59.460        27
59.480        13
59.500        20
59.520        27
59.540        20
59.560        27
59.580         7
59.600        27
59.620        17
59.640        17
59.660        30
59.680        10
59.700         3
59.720        30
59.740        20
59.760        23
59.780        27
59.800        23
59.820        20
59.840        17
59.860        13
59.880        43
59.900        17
59.920        20
59.940        17
59.960        10
59.980         3
60.000         3
