20.000       176
20.050       176
20.100       376
20.150       379
20.200       408
20.250       352
20.300       365
20.350       373
20.400       424
20.450       379
20.500       397
20.550       408
20.600       355
20.650       400
20.700       400
20.750       312
20.800       411
20.850       373
20.900       363
20.950       336
21.000       408
21.050       360
21.100       395
21.150       389
21.200       376
21.250       328
21.300       368
21.350       371
21.400       418
21.450       416
21.500       365
21.550       344
21.600       363
21.650       323
21.700       376
21.750       365
21.800       304
21.850       325
21.900       325
21.950       352
22.000       291
22.050       349
22.100       339
22.150       333
22.200       405
22.250       341
22.300       309
22.350       304
22.400       323
22.450       373
22.500       381
22.550       408
22.600       341
22.650       339
22.700       328
22.750       312
22.800       328
22.850       344
22.900       365
22.950       347
23.000       432
23.050       291
23.100       296
23.150       291
23.200       283
23.250       293
23.300       320
23.350       336
23.400       285
23.450       245
23.500       272
23.550       365
23.600       328
23.650       272
23.700       299
23.750       285
23.800       285
23.850       317
23.900       352
23.950       339
24.000       293
24.050       269
24.100       267
24.150       296
24.200       288
24.250       309
24.300       357
24.350       312
24.400       267
24.450       253
24.500       296
24.550       312
24.600       320
24.650       379
24.700       413
24.750       408
24.800       355
24.850       344
24.900       339
24.950       272
25.000       237
25.050       333
25.100       237
25.150       221
25.200       293
25.250       328
25.300       299
25.350       277
25.400       264
25.450       259
25.500       272
25.550       283
25.600       349
25.650       397
25.700       320
25.750       307
25.800       309
25.850       277
25.900       264
25.950       245
26.000       275
26.050       277
26.100       237
26.150       237
26.200       253
26.250       293
26.300       213
26.350       253
26.400       283
26.450       211
26.500       248
26.550       269
26.600       259
26.650       283
26.700       261
26.750       187
26.800       259
26.850       264
26.900       243
26.950       307
27.000       224
27.050       224
27.100       213
27.150       267
27.200       235
27.250       221
27.300       269
27.350       227
27.400       245
27.450       245
27.500       208
27.550       243
27.600       227
27.650       245
27.700       219
27.750       235
27.800       219
27.850       272
27.900       304
27.950       197
28.000       232
28.050       253
28.100       237
28.150       240
28.200       219
28.250       232
28.300       192
28.350       229
28.400       227
28.450       275
28.500       235
28.550       261
28.600       221
28.650       253
28.700       272
28.750       240
28.800       232
28.850       264
28.900       293
28.950       299
29.000       275
29.050       336
29.100       341
29.150       373
29.200       578
29.250       554
29.300       624
29.350       469
29.400       466
29.450       397
29.500       317
29.550       259
29.600       227
29.650       240
29.700       219
29.750       176
29.800       235
29.850       221
29.900       248
29.950       168
30.000       179
30.050       197
30.100       221
30.150       269
30.200       253
30.250       211
30.300       173
30.350       224
30.400       248
30.450       224
30.500       205
30.550       200
30.600       224
30.650       171
30.700       245
30.750       189
30.800       187
30.850       245
30.900       187
30.950       195
31.000       232
31.050       224
31.100       219
31.150       227
31.200       251
31.250       248
31.300       229
31.350       197
31.400       264
31.450       248
31.500       259
31.550       291
31.600       304
31.650       283
31.700       312
31.750       384
31.800       397
31.850       501
31.900       514
31.950       706
32.000       960
32.050      1186
32.100      1293
32.150      1341
32.200      1224
32.250      1050
32.300       706
32.350       557
32.400       432
32.450       328
32.500       320
32.550       229
32.600       227
32.650       264
32.700       261
32.750       213
32.800       232
32.850       243
32.900       264
32.950       216
33.000       208
33.050       192
33.100       203
33.150       256
33.200       152
33.250       208
33.300       229
33.350       184
33.400       208
33.450       192
33.500       165
33.550       152
33.600       203
33.650       195
33.700       203
33.750       248
33.800       211
33.850       272
33.900       184
33.950       168
34.000       245
34.050       219
34.100       197
34.150       224
34.200       200
34.250       173
34.300       203
34.350       219
34.400       224
34.450       171
34.500       216
34.550       176
34.600       235
34.650       165
34.700       181
34.750       203
34.800       232
34.850       184
34.900       211
34.950       208
35.000       224
35.050       208
35.100       221
35.150       171
35.200       229
35.250       211
35.300       205
35.350       197
35.400       200
35.450       237
35.500       213
35.550       187
35.600       227
35.650       248
35.700       224
35.750       280
35.800       229
35.850       259
35.900       269
35.950       221
36.000       232
36.050       243
36.100       213
36.150       232
36.200       197
36.250       179
36.300       219
36.350       272
36.400       171
36.450       203
36.500       213
36.550       213
36.600       253
36.650       184
36.700       200
36.750       203
36.800       141
36.850       235
36.900       171
36.950       189
37.000       181
37.050       200
37.100       213
37.150       200
37.200       160
37.250       165
37.300       203
37.350       205
37.400       208
37.450       203
37.500       203
37.550       203
37.600       232
37.650       232
37.700       213
37.750       200
37.800       237
37.850       208
37.900       165
37.950       213
38.000       173
38.050       184
38.100       179
38.150       221
38.200       229
38.250       256
38.300       293
38.350       219
38.400       229
38.450       221
38.500       229
38.550       283
38.600       205
38.650       184
38.700       168
38.750       168
38.800       213
38.850       227
38.900       216
38.950       240
39.000       211
39.050       232
39.100       312
39.150       291
39.200       301
39.250       312
39.300       275
39.350       261
39.400       339
39.450       331
39.500       251
39.550       211
39.600       301
39.650       320
39.700       355
39.750       371
39.800       371
39.850       328
39.900       237
39.950       227
40.000       221
40.050       192
40.100       189
40.150       240
40.200       184
40.250       197
40.300       221
40.350       165
40.400       171
40.450       208
40.500       197
40.550       195
40.600       163
40.650       208
40.700       192
40.750       232
40.800       163
40.850       224
40.900       179
40.950       211
41.000       195
41.050       195
41.100       200
41.150       171
41.200       203
41.250       213
41.300       200
41.350       197
41.400       200
41.450       189
41.500       152
41.550       205
41.600       173
41.650       171
41.700       189
41.750       224
41.800       160
41.850       203
41.900       168
41.950       219
42.000       189
42.050       208
42.100       168
42.150       227
42.200       211
42.250       181
42.300       192
42.350       205
42.400       205
42.450       216
42.500       189
42.550       171
42.600       216
42.650       200
42.700       227
42.750       235
42.800       189
42.850       237
42.900       267
42.950       291
43.000       275
43.050       259
43.100       285
43.150       237
43.200       205
43.250       221
43.300       189
43.350       200
43.400       189
43.450       205
43.500       221
43.550       152
43.600       189
43.650       181
43.700       205
43.750       184
43.800       192
43.850       195
43.900       195
43.950       168
44.000       181
44.050       197
44.100       219
44.150       133
44.200       200
44.250       187
44.300       211
44.350       163
44.400       181
44.450       173
44.500       245
44.550       200
44.600       157
44.650       187
44.700       173
44.750       176
44.800       235
44.850       179
44.900       192
44.950       179
45.000       179
45.050       187
45.100       219
45.150       237
45.200       232
45.250       227
45.300       200
45.350       197
45.400       232
45.450       240
45.500       213
45.550       216
45.600       197
45.650       248
45.700       259
45.750       256
45.800       280
45.850       307
45.900       323
45.950       336
46.000       328
46.050       387
46.100       365
46.150       379
46.200       328
46.250       283
46.300       259
46.350       227
46.400       203
46.450       200
46.500       205
46.550       213
46.600       253
46.650       200
46.700       227
46.750       155
46.800       192
46.850       211
46.900       195
46.950       195
47.000       229
47.050       275
47.100       264
47.150       227
47.200       280
47.250       269
47.300       331
47.350       331
47.400       309
47.450       349
47.500       264
47.550       307
47.600       299
47.650       184
47.700       181
47.750       203
47.800       197
47.850       251
47.900       187
47.950       200
48.000       200
48.050       219
48.100       208
48.150       229
48.200       208
48.250       269
48.300       296
48.350       304
48.400       323
48.450       301
48.500       248
48.550       283
48.600       261
48.650       213
48.700       221
48.750       219
48.800       187
48.850       187
48.900       176
48.950       176
49.000       195
49.050       192
49.100       189
49.150       165
49.200       149
49.250       213
49.300       181
49.350       168
49.400       165
49.450       205
49.500       184
49.550       173
49.600       176
49.650       211
49.700       192
49.750       219
49.800       251
49.850       168
49.900       181
49.950       219
50.000       253
50.050       179
50.100       187
50.150       197
50.200       205
50.250       173
50.300       205
50.350       200
50.400       216
50.450       219
50.500       203
50.550       189
50.600       208
50.650       157
50.700       155
50.750       251
50.800       235
50.850       256
50.900       187
50.950       197
51.000       224
51.050       165
51.100       163
51.150       243
51.200       221
51.250       235
51.300       219
51.350       184
51.400       197
51.450       221
51.500       211
51.550       197
51.600       232
51.650       232
51.700       189
51.750       240
51.800       256
51.850       235
51.900       213
51.950       232
52.000       235
52.050       227
52.100       248
52.150       203
52.200       245
52.250       160
52.300       251
52.350       205
52.400       213
52.450       253
52.500       256
52.550       224
52.600       227
52.650       248
52.700       240
52.750       189
52.800       272
52.850       232
52.900       216
52.950       259
53.000       216
53.050       195
53.100       229
53.150       232
53.200       229
53.250       229
53.300       232
53.350       205
53.400       240
53.450       261
53.500       187
53.550       224
53.600       192
53.650       251
53.700       227
53.750       235
53.800       227
53.850       256
53.900       213
53.950       216
54.000       157
54.050       171
54.100       205
54.150       197
54.200       173
54.250       184
54.300       213
54.350       163
54.400       200
54.450       240
54.500       181
54.550       216
54.600       200
54.650       187
54.700       211
54.750       197
54.800       211
54.850       205
54.900       179
54.950       229
55.000       181
55.050       221
55.100       179
55.150       219
55.200       179
55.250       179
55.300       165
55.350       171
55.400       211
55.450       141
55.500       208
55.550       197
55.600       205
55.650       197
55.700       155
55.750       200
55.800       216
55.850       221
55.900       251
55.950       181
56.000       160
56.050       189
56.100       155
56.150       195
56.200       157
56.250       163
56.300       181
56.350       216
56.400       219
56.450       205
56.500       211
56.550       203
56.600       203
56.650       192
56.700       184
56.750       179
56.800       187
56.850       168
56.900       173
56.950       192
57.000       229
57.050       216
57.100       179
57.150       192
57.200       235
57.250       229
57.300       301
57.350       328
57.400       368
57.450       317
57.500       309
57.550       256
57.600       283
57.650       197
57.700       203
57.750       147
57.800       163
57.850       205
57.900       187
57.950       144
58.000       173
58.050       211
58.100       157
58.150       160
58.200       160
58.250       160
58.300       197
58.350       120
58.400       147
58.450       152
58.500       144
58.550       179
58.600       131
58.650       125
58.700       147
58.750       155
58.800       152
58.850       147
58.900       171
58.950       152
59.000       189
59.050       155
59.100       163
59.150       157
59.200       152
59.250       181
59.300       120
59.350       141
59.400       139
59.450       133
59.500       141
59.550       152
59.600       173
59.650       160
59.700       136
59.750       173
59.800       147
59.850       187
59.900       195
59.950       120
60.000       147
