20.000         0
20.050         0
20.100         0
20.150        61
20.200        53
20.250        80
20.300        64
20.350        72
20.400        80
20.450        67
20.500        61
20.550        88
20.600        85
20.650        80
20.700        85
20.750        32
20.800        53
20.850        56
20.900        59
20.950        69
21.000        59
21.050        83
21.100        72
21.150        77
21.200        69
21.250        53
21.300        35
21.350        72
21.400        53
21.450        61
21.500        53
21.550        83
21.600        48
21.650        48
21.700        61
21.750        40
21.800        59
21.850        61
21.900        53
21.950        67
22.000        35
22.050        64
22.100        61
22.150        53
22.200        75
22.250        56
22.300        61
22.350        61
22.400        83
22.450        64
22.500        48
22.550        77
22.600        59
22.650        51
22.700        64
22.750        43
22.800        83
22.850        64
22.900        75
22.950        59
23.000        80
23.050        77
23.100        59
23.150        59
23.200        37
23.250        67
23.300        69
23.350        67
23.400        59
23.450        53
23.500        85
23.550        51
23.600        51
23.650        64
23.700        43
23.750        67
23.800        45
23.850        45
23.900        80
23.950        45
24.000        61
24.050        56
24.100        53
24.150        85
24.200        64
24.250        64
24.300        51
24.350        53
24.400        69
24.450        53
24.500        56
24.550        43
24.600        48
24.650        69
24.700        64
24.750        77
24.800        56
24.850        59
24.900        75
24.950        80
25.000        61
25.050        80
25.100        53
25.150        72
25.200        59
25.250        93
25.300        93
25.350        40
25.400       107
25.450       187
25.500       517
25.550       720
25.600       813
25.650       490
25.700       269
25.750       147
25.800       104
25.850        75
25.900        80
25.950        59
26.000        77
26.050        67
26.100        51
26.150        61
26.200        45
26.250        53
26.300        51
26.350        72
26.400        64
26.450        67
26.500        61
26.550        53
26.600        53
26.650        45
26.700        37
26.750        40
26.800        53
26.850        56
26.900        43
26.950        61
27.000        91
27.050        67
27.100        32
27.150        69
27.200        43
27.250        61
27.300        43
27.350        35
27.400        69
27.450        45
27.500        45
27.550        77
27.600        51
27.650        59
27.700        29
27.750        51
27.800        40
27.850        72
27.900        37
27.950        48
28.000        51
28.050        72
28.100        56
28.150        40
28.200        32
28.250        45
28.300        37
28.350        53
28.400        53
28.450        48
28.500        56
28.550        45
28.600        51
28.650        56
28.700        56
28.750        56
28.800        51
28.850        64
28.900        56
28.950        35
29.000        56
29.050        53
29.100        43
29.150        40
29.200        37
29.250        56
29.300        67
29.350        40
29.400        45
29.450        43
29.500        37
29.550        45
29.600        40
29.650        21
29.700        59
29.750        51
29.800        53
29.850        45
29.900        37
29.950        59
30.000        48
30.050        53
30.100        43
30.150        32
30.200        43
30.250        40
30.300        27
30.350        32
30.400        27
30.450        27
30.500        37
30.550        37
30.600        77
30.650        37
30.700        56
30.750        37
30.800        35
30.850        48
30.900        59
30.950        43
31.000        40
31.050        48
31.100        45
31.150        51
31.200        45
31.250        35
31.300        53
31.350        35
31.400        43
31.450        45
31.500        40
31.550        67
31.600        67
31.650        53
31.700        64
31.750        80
31.800        59
31.850        43
31.900        99
31.950       115
32.000        88
32.050       157
32.100       149
32.150       203
32.200       136
32.250       211
32.300       155
32.350       115
32.400        99
32.450        99
32.500        56
32.550        69
32.600        56
32.650        51
32.700        35
32.750        43
32.800        53
32.850        32
32.900        37
32.950        45
33.000        37
33.050        45
33.100        37
33.150        48
33.200        40
33.250        40
33.300        40
33.350        32
33.400        29
33.450        29
33.500        32
33.550        53
33.600        67
33.650        35
33.700        43
33.750        19
33.800        40
33.850        45
33.900        51
33.950        35
34.000        43
34.050        40
34.100        32
34.150        35
34.200        35
34.250        35
34.300        59
34.350        29
34.400        32
34.450        19
34.500        29
34.550        29
34.600        37
34.650        24
34.700        19
34.750        35
34.800        27
34.850        35
34.900        27
34.950        48
35.000        37
35.050        35
35.100        45
35.150        37
35.200        40
35.250        40
35.300        29
35.350        40
35.400        40
35.450        37
35.500        35
35.550        51
35.600        27
35.650        19
35.700        48
35.750        40
35.800        37
35.850        43
35.900        24
35.950        45
36.000        24
36.050        43
36.100        24
36.150        35
36.200        40
36.250        43
36.300        13
36.350        35
36.400        35
36.450        32
36.500        32
36.550        24
36.600        56
36.650        19
36.700        53
36.750        27
36.800        37
36.850        40
36.900        37
36.950        32
37.000        32
37.050        37
37.100        35
37.150        43
37.200        29
37.250        51
37.300        29
37.350        40
37.400        37
37.450        40
37.500        13
37.550        35
37.600        45
37.650        21
37.700        16
37.750        35
37.800        53
37.850        35
37.900        29
37.950        19
38.000        21
38.050        40
38.100        24
38.150        32
38.200        53
38.250        43
38.300        32
38.350        29
38.400        11
38.450        48
38.500        13
38.550        32
38.600        19
38.650        29
38.700        27
38.750        43
38.800        43
38.850        16
38.900        24
38.950        37
39.000        24
39.050        40
39.100        37
39.150        32
39.200        45
39.250        27
39.300        24
39.350        27
39.400        35
39.450        45
39.500        32
39.550        13
39.600        43
39.650        51
39.700        37
39.750        40
39.800        32
39.850        40
39.900        35
39.950        37
40.000        51
40.050        27
40.100        27
40.150        16
40.200        27
40.250        56
40.300        53
40.350        35
40.400        43
40.450        21
40.500        35
40.550        27
40.600        24
40.650        35
40.700        27
40.750        21
40.800        19
40.850        29
40.900        29
40.950        27
41.000        21
41.050        24
41.100        27
41.150        27
41.200        27
41.250        32
41.300        40
41.350        43
41.400        59
41.450        45
41.500        29
41.550        24
41.600        27
41.650        27
41.700        32
41.750        35
41.800        40
41.850        35
41.900        32
41.950        24
42.000        35
42.050        27
42.100        32
42.150        29
42.200        27
42.250        40
42.300        24
42.350        53
42.400        16
42.450        35
42.500        27
42.550        32
42.600        29
42.650        32
42.700        27
42.750        19
42.800        24
42.850        24
42.900        29
42.950        43
43.000        37
43.050        35
43.100        32
43.150        27
43.200        24
43.250        37
43.300        27
43.350        43
43.400        43
43.450        35
43.500        29
43.550        35
43.600        32
43.650        32
43.700        21
43.750        43
43.800        19
43.850        16
43.900        11
43.950        21
44.000        29
44.050        35
44.100        32
44.150        24
44.200        40
44.250        24
44.300        43
44.350        35
44.400        32
44.450        21
44.500        11
44.550        21
44.600        43
44.650        35
44.700        35
44.750        27
44.800        24
44.850        19
44.900        29
44.950        43
45.000        13
45.050        40
45.100        32
45.150        29
45.200        19
45.250        37
45.300        40
45.350        40
45.400        32
45.450        27
45.500        35
45.550        45
45.600        21
45.650        32
45.700        21
45.750        53
45.800        43
45.850        48
45.900        45
45.950        40
46.000        67
46.050        67
46.100        77
46.150        43
46.200        83
46.250        59
46.300        45
46.350        48
46.400        29
46.450        37
46.500        56
46.550        35
46.600        32
46.650        43
46.700        43
46.750        43
46.800        27
46.850        40
46.900        24
46.950        32
47.000        32
47.050        40
47.100        40
47.150        27
47.200        43
47.250        35
47.300        43
47.350        35
47.400        48
47.450        29
47.500        29
47.550        35
47.600        48
47.650        29
47.700        27
47.750        35
47.800        24
47.850        37
47.900        21
47.950        29
48.000        32
48.050        35
48.100        35
48.150        40
48.200        27
48.250        32
48.300        43
48.350        51
48.400        27
48.450        27
48.500        40
48.550        48
48.600        24
48.650        24
48.700        40
48.750        35
48.800        32
48.850        37
48.900        16
48.950        24
49.000        35
49.050        37
49.100        53
49.150        32
49.200        32
49.250         5
49.300        53
49.350        32
49.400        24
49.450        35
49.500        59
49.550        21
49.600        51
49.650        16
49.700        43
49.750        32
49.800        24
49.850        35
49.900        21
49.950        29
50.000        37
50.050        40
50.100        40
50.150        29
50.200        51
50.250        37
50.300        35
50.350        53
50.400        24
50.450        37
50.500        32
50.550        48
50.600        16
50.650        56
50.700        37
50.750        29
50.800        37
50.850        45
50.900        53
50.950        40
51.000        32
51.050        45
51.100        72
51.150        29
51.200        53
51.250        61
51.300        61
51.350        48
51.400        43
51.450        64
51.500        40
51.550        59
51.600        53
51.650        53
51.700        37
51.750        75
51.800        48
51.850        80
51.900        80
51.950        83
52.000        45
52.050        93
52.100        48
52.150        64
52.200        48
52.250       101
52.300        48
52.350        85
52.400        85
52.450       109
52.500       163
52.550       213
52.600       269
52.650       179
52.700       203
52.750       136
52.800       155
52.850        77
52.900        75
52.950        53
53.000        77
53.050        80
53.100        59
53.150        53
53.200        56
53.250        77
53.300        69
53.350        72
53.400        56
53.450        59
53.500        64
53.550        59
53.600        61
53.650        72
53.700        48
53.750        67
53.800        61
53.850        64
53.900        43
53.950        51
54.000        37
54.050        61
54.100        64
54.150        43
54.200        43
54.250        56
54.300        45
54.350        45
54.400        32
54.450        51
54.500        35
54.550        43
54.600        19
54.650        29
54.700        35
54.750        21
54.800        37
54.850        40
54.900        40
54.950        16
55.000        24
55.050        29
55.100        48
55.150        35
55.200        21
55.250        29
55.300        48
55.350        24
55.400        35
55.450        35
55.500        21
55.550        21
55.600        35
55.650        43
55.700        37
55.750        32
55.800        35
55.850        32
55.900        48
55.950        27
56.000        27
56.050        27
56.100        24
56.150        35
56.200        27
56.250        35
56.300        29
56.350        35
56.400        24
56.450        40
56.500        24
56.550        19
56.600        27
56.650        35
56.700        32
56.750        16
56.800        16
56.850        21
56.900        29
56.950        24
57.000        29
57.050        27
57.100        35
57.150        21
57.200        48
57.250        29
57.300        29
57.350        19
57.400        29
57.450        37
57.500        37
57.550        48
57.600        29
57.650        35
57.700        21
57.750        19
57.800        19
57.850        21
57.900        40
57.950        11
58.000        32
58.050        24
58.100        27
58.150        32
58.200        16
58.250        32
58.300        21
58.350        19
58.400        21
58.450        27
58.500        27
58.550         8
58.600        11
58.650        40
58.700        24
58.750        32
58.800        29
58.850        37
58.900        37
58.950        35
59.000        21
59.050        29
59.100        11
59.150        27
59.200        32
59.250        24
59.300        32
59.350        24
59.400        21
59.450        19
59.500        35
59.550        19
59.600         8
59.650        29
59.700        24
59.750        21
59.800        40
59.850        27
59.900        29
59.950        24
60.000        16
