20.000       355
20.050       309
20.100       331
20.150       349
20.200       296
20.250       312
20.300       360
20.350       341
20.400       304
20.450       347
20.500       349
20.550       341
20.600       363
20.650       323
20.700       275
20.750       347
20.800       315
20.850       315
20.900       285
20.950       301
21.000       317
21.050       331
21.100       347
21.150       325
21.200       283
21.250       259
21.300       325
21.350       309
21.400       299
21.450       341
21.500       336
21.550       315
21.600       328
21.650       285
21.700       291
21.750       267
21.800       301
21.850       368
21.900       299
21.950       275
22.000       245
22.050       275
22.100       325
22.150       304
22.200       291
22.250       312
22.300       283
22.350       352
22.400       304
22.450       307
22.500       280
22.550       293
22.600       307
22.650       291
22.700       299
22.750       261
22.800       280
22.850       269
22.900       272
22.950       291
23.000       280
23.050       229
23.100       267
23.150       264
23.200       256
23.250       253
23.300       307
23.350       285
23.400       280
23.450       245
23.500       277
23.550       275
23.600       256
23.650       283
23.700       256
23.750       219
23.800       229
23.850       235
23.900       245
23.950       269
24.000       280
24.050       227
24.100       261
24.150       261
24.200       224
24.250       253
24.300       211
24.350       221
24.400       240
24.450       235
24.500       248
24.550       232
24.600       205
24.650       205
24.700       189
24.750       195
24.800       184
24.850       232
24.900       208
24.950       235
25.000       227
25.050       227
25.100       208
25.150       203
25.200       219
25.250       277
25.300       251
25.350       219
25.400       304
25.450       256
25.500       203
25.550       235
25.600       240
25.650       264
25.700       205
25.750       269
25.800       184
25.850       237
25.900       224
25.950       240
26.000       235
26.050       267
26.100       219
26.150       232
26.200       224
26.250       216
26.300       216
26.350       219
26.400       224
26.450       227
26.500       211
26.550       219
26.600       200
26.650       291
26.700       227
26.750       240
26.800       235
26.850       205
26.900       229
26.950       237
27.000       203
27.050       192
27.100       251
27.150       213
27.200       187
27.250       245
27.300       216
27.350       205
27.400       240
27.450       197
27.500       203
27.550       203
27.600       189
27.650       219
27.700       248
27.750       208
27.800       235
27.850       184
27.900       184
27.950       173
28.000       203
28.050       173
28.100       197
28.150       219
28.200       189
28.250       229
28.300       208
28.350       203
28.400       208
28.450       203
28.500       216
28.550       211
28.600       184
28.650       203
28.700       232
28.750       147
28.800       189
28.850       208
28.900       197
28.950       133
29.000       227
29.050       176
29.100       152
29.150       181
29.200       171
29.250       213
29.300       184
29.350       176
29.400       189
29.450       205
29.500       203
29.550       205
29.600       144
29.650       203
29.700       195
29.750       149
29.800       213
29.850       192
29.900       211
29.950       200
30.000       184
30.050       139
30.100       197
30.150       187
30.200       160
30.250       200
30.300       171
30.350       152
30.400       160
30.450       149
30.500       155
30.550       173
30.600       173
30.650       179
30.700       216
30.750       171
30.800       213
30.850       157
30.900       229
30.950       200
31.000       133
31.050       208
31.100       195
31.150       149
31.200       163
31.250       197
31.300       181
31.350       189
31.400       208
31.450       211
31.500       187
31.550       165
31.600       237
31.650       224
31.700       237
31.750       256
31.800       229
31.850       331
31.900       421
31.950       498
32.000       560
32.050       680
32.100       725
32.150       546
32.200       509
32.250       458
32.300       400
32.350       315
32.400       256
32.450       205
32.500       232
32.550       163
32.600       192
32.650       240
32.700       157
32.750       200
32.800       219
32.850       149
32.900       155
32.950       176
33.000       176
33.050       160
33.100       157
33.150       136
33.200       128
33.250       120
33.300       171
33.350       136
33.400       128
33.450       136
33.500       147
33.550       181
33.600       141
33.650       168
33.700       168
33.750       173
33.800       123
33.850       157
33.900       192
33.950       133
34.000       155
34.050       171
34.100       149
34.150       155
34.200       192
34.250       184
34.300       141
34.350       139
34.400       147
34.450       165
34.500       176
34.550       128
34.600       144
34.650       152
34.700       168
34.750       160
34.800       171
34.850       197
34.900       171
34.950       147
35.000       147
35.050       189
35.100       133
35.150       155
35.200       133
35.250       149
35.300       147
35.350       125
35.400       181
35.450       173
35.500       141
35.550       163
35.600       157
35.650       117
35.700       171
35.750       149
35.800       155
35.850       168
35.900       189
35.950       171
36.000       144
36.050       173
36.100       125
36.150       157
36.200       144
36.250       152
36.300       157
36.350       139
36.400       195
36.450       155
36.500       133
36.550       136
36.600       149
36.650       168
36.700       120
36.750       131
36.800       168
36.850       181
36.900       120
36.950       171
37.000       141
37.050       147
37.100       144
37.150       184
37.200       171
37.250       147
37.300       152
37.350       128
37.400       149
37.450       136
37.500       120
37.550       131
37.600       128
37.650       147
37.700       155
37.750       179
37.800       109
37.850       155
37.900       149
37.950       125
38.000       136
38.050       184
38.100       149
38.150       181
38.200       179
38.250       128
38.300       139
38.350       155
38.400       144
38.450       120
38.500       155
38.550       149
38.600       155
38.650       149
38.700       176
38.750       208
38.800       155
38.850       176
38.900       144
38.950       160
39.000       155
39.050       160
39.100       136
39.150       152
39.200       155
39.250       157
39.300       152
39.350       192
39.400       163
39.450       168
39.500       157
39.550       171
39.600       200
39.650       197
39.700       160
39.750       131
39.800       173
39.850       176
39.900       171
39.950       147
40.000       173
40.050       152
40.100       184
40.150       155
40.200       171
40.250       120
40.300       171
40.350       173
40.400       131
40.450       181
40.500       120
40.550       168
40.600       165
40.650       149
40.700       157
40.750       149
40.800       144
40.850       141
40.900       141
40.950       131
41.000       149
41.050       173
41.100       157
41.150       136
41.200       144
41.250       163
41.300       168
41.350       128
41.400       141
41.450       131
41.500       171
41.550       184
41.600       128
41.650       123
41.700       152
41.750       152
41.800       149
41.850       155
41.900       160
41.950       179
42.000       157
42.050       136
42.100       189
42.150       171
42.200       168
42.250       155
42.300       163
42.350       160
42.400       125
42.450       152
42.500       152
42.550       136
42.600       141
42.650       176
42.700       157
42.750       133
42.800       163
42.850       147
42.900       160
42.950       160
43.000       163
43.050       163
43.100       141
43.150       147
43.200       147
43.250       133
43.300       155
43.350       184
43.400       149
43.450       184
43.500       147
43.550       171
43.600       168
43.650       176
43.700       155
43.750       184
43.800       165
43.850       157
43.900       149
43.950       176
44.000       171
44.050       176
44.100       171
44.150       144
44.200       192
44.250       139
44.300       125
44.350       139
44.400       187
44.450       128
44.500       144
44.550       136
44.600       149
44.650       136
44.700       141
44.750       192
44.800       149
44.850       168
44.900       149
44.950       173
45.000       120
45.050       141
45.100       181
45.150       171
45.200       109
45.250       157
45.300       168
45.350       163
45.400       187
45.450       179
45.500       179
45.550       200
45.600       205
45.650       184
45.700       176
45.750       208
45.800       216
45.850       291
45.900       261
45.950       288
46.000       229
46.050       275
46.100       341
46.150       240
46.200       229
46.250       192
46.300       261
46.350       200
46.400       203
46.450       157
46.500       184
46.550       133
46.600       168
46.650       157
46.700       179
46.750       173
46.800       195
46.850       139
46.900       163
46.950       171
47.000       139
47.050       213
47.100       184
47.150       213
47.200       229
47.250       173
47.300       160
47.350       155
47.400       189
47.450       123
47.500       157
47.550       168
47.600       152
47.650       109
47.700       149
47.750       155
47.800       157
47.850       133
47.900       176
47.950       141
48.000       160
48.050       165
48.100       189
48.150       133
48.200       149
48.250       203
48.300       189
48.350       160
48.400       179
48.450       179
48.500       171
48.550       181
48.600       144
48.650       117
48.700       144
48.750       144
48.800       147
48.850       173
48.900       160
48.950       152
49.000       165
49.050       149
49.100       123
49.150       181
49.200       152
49.250       165
49.300       189
49.350       163
49.400       157
49.450       168
49.500       139
49.550       155
49.600       192
49.650       195
49.700       176
49.750       168
49.800       155
49.850       187
49.900       187
49.950       187
50.000       149
50.050       173
50.100       197
50.150       173
50.200       181
50.250       155
50.300       160
50.350       163
50.400       205
50.450       195
50.500       213
50.550       160
50.600       189
50.650       173
50.700       149
50.750       163
50.800       184
50.850       189
50.900       216
50.950       192
51.000       195
51.050       208
51.100       173
51.150       208
51.200       165
51.250       192
51.300       245
51.350       197
51.400       213
51.450       189
51.500       219
51.550       197
51.600       211
51.650       232
51.700       229
51.750       211
51.800       243
51.850       216
51.900       192
51.950       248
52.000       253
52.050       221
52.100       275
52.150       245
52.200       259
52.250       211
52.300       299
52.350       245
52.400       243
52.450       283
52.500       245
52.550       243
52.600       245
52.650       267
52.700       301
52.750       253
52.800       253
52.850       219
52.900       296
52.950       253
53.000       227
53.050       219
53.100       224
53.150       205
53.200       243
53.250       232
53.300       211
53.350       227
53.400       224
53.450       248
53.500       216
53.550       213
53.600       195
53.650       211
53.700       197
53.750       181
53.800       197
53.850       184
53.900       179
53.950       192
54.000       168
54.050       195
54.100       179
54.150       163
54.200       219
54.250       181
54.300       149
54.350       117
54.400       195
54.450       165
54.500       165
54.550       192
54.600       179
54.650       195
54.700       211
54.750       184
54.800       149
54.850       184
54.900       139
54.950       144
55.000       157
55.050       176
55.100       144
55.150       168
55.200       160
55.250       187
55.300       171
55.350       157
55.400       171
55.450       133
55.500       136
55.550       117
55.600       136
55.650       112
55.700       141
55.750       155
55.800       157
55.850       136
55.900       149
55.950       141
56.000       160
56.050       128
56.100       117
56.150       155
56.200       128
56.250       181
56.300       139
56.350       147
56.400       139
56.450       139
56.500       131
56.550       173
56.600       115
56.650       109
56.700       112
56.750       136
56.800       109
56.850       141
56.900       144
56.950       136
57.000       128
57.050       147
57.100       208
57.150       168
57.200       139
57.250       139
57.300       195
57.350       171
57.400       176
57.450       179
57.500       173
57.550       144
57.600       139
57.650       109
57.700       168
57.750       133
57.800       136
57.850       120
57.900       147
57.950       128
58.000       149
58.050       144
58.100       128
58.150       112
58.200       139
58.250       125
58.300       147
58.350       133
58.400       147
58.450       139
58.500       128
58.550        99
58.600       149
58.650       128
58.700        91
58.750        93
58.800       115
58.850       112
58.900        88
58.950       107
59.000       120
59.050       109
59.100       109
59.150        88
59.200       107
59.250       117
59.300       109
59.350       139
59.400       123
59.450       109
59.500       152
59.550       120
59.600       125
59.650       117
59.700       125
59.750       104
59.800       155
59.850       120
59.900       133
59.950         5
60.000         5
