20.000         0
20.050         0
20.100        69
20.150        95
20.200        52
20.250        69
20.300        77
20.350        15
20.400        91
20.450        64
20.500        64
20.550        56
20.600        43
20.650        39
20.700        60
20.750        57
20.800         9
20.850        41
20.900        64
20.950        68
21.000        68
21.050        36
21.100        27
21.150        32
21.200        33
21.250        32
21.300        52
21.350        37
21.400        28
21.450        45
21.500        45
21.550         7
21.600        47
21.650        31
21.700        13
21.750        37
21.800        23
21.850        19
21.900        44
21.950        32
22.000        27
22.050        21
22.100        44
22.150        21
22.200         0
22.250         8
22.300        32
22.350        13
22.400        25
22.450        57
22.500         0
22.550         4
22.600         8
22.650        29
22.700        56
22.750        19
22.800        47
22.850        13
22.900        31
22.950         7
23.000        63
23.050        59
23.100         7
23.150         0
23.200        28
23.250        19
23.300         0
23.350         5
23.400        19
23.450        28
23.500         1
23.550         0
23.600        20
23.650         0
23.700        19
23.750         0
23.800         0
23.850        32
23.900         0
23.950        51
24.000         0
24.050        31
24.100         0
24.150         0
24.200         4
24.250        33
24.300        24
24.350         0
24.400         1
24.450         0
24.500         4
24.550         7
24.600         0
24.650        29
24.700        40
24.750         7
24.800         9
24.850         0
24.900         5
24.950        20
25.000         0
25.050        27
25.100         4
25.150         0
25.200         7
25.250         0
25.300         0
25.350        16
25.400        35
25.450       108
25.500       148
25.550       275
25.600       331
25.650       335
25.700       275
25.750       145
25.800        99
25.850        65
25.900        28
25.950         7
26.000         0
26.050        37
26.100        37
26.150        11
26.200        12
26.250        11
26.300         0
26.350         0
26.400         1
26.450        13
26.500        23
26.550         0
26.600        37
26.650         0
26.700        33
26.750        24
26.800        12
26.850        31
26.900         1
26.950        23
27.000        24
27.050        12
27.100        12
27.150        37
27.200        17
27.250         5
27.300         0
27.350        24
27.400        28
27.450        25
27.500         4
27.550         0
27.600        32
27.650         7
27.700        37
27.750        11
27.800        15
27.850        15
27.900         0
27.950        28
28.000         9
28.050        17
28.100        13
28.150         0
28.200        25
28.250         0
28.300        13
28.350         1
28.400        36
28.450         0
28.500        31
28.550        19
28.600        21
28.650        16
28.700        21
28.750        29
28.800         4
28.850        29
28.900        15
28.950         0
29.000         7
29.050         4
29.100        15
29.150        21
29.200        31
29.250         8
29.300        40
29.350         0
29.400        32
29.450        25
29.500         3
29.550         3
29.600        15
29.650         0
29.700        40
29.750         1
29.800         0
29.850         5
29.900         0
29.950         8
30.000        16
30.050         0
30.100         5
30.150        21
30.200         0
30.250        11
30.300        11
30.350         0
30.400         0
30.450        23
30.500        21
30.550        12
30.600         0
30.650         1
30.700        13
30.750         0
30.800         0
30.850         9
30.900         0
30.950        12
31.000         0
31.050         4
31.100         0
31.150        16
31.200         9
31.250         0
31.300        13
31.350        15
31.400        17
31.450        27
31.500        27
31.550        40
31.600        33
31.650        49
31.700        52
31.750        37
31.800        16
31.850        48
31.900         9
31.950        19
32.000        33
32.050        47
32.100        32
32.150        72
32.200        59
32.250        32
32.300        57
32.350        36
32.400        51
32.450        25
32.500        39
32.550        48
32.600        43
32.650        43
32.700        28
32.750        17
32.800        15
32.850        45
32.900        43
32.950         8
33.000         0
33.050         0
33.100        20
33.150         5
33.200         0
33.250         0
33.300         0
33.350        40
33.400         0
33.450        17
33.500        27
33.550        21
33.600         0
33.650        11
33.700         7
33.750        13
33.800        17
33.850         0
33.900         0
33.950        13
34.000         1
34.050        16
34.100         0
34.150        21
34.200        12
34.250         7
34.300        48
34.350         0
34.400        11
34.450        29
34.500        20
34.550         0
34.600        16
34.650         4
34.700        20
34.750        11
34.800         0
34.850        27
34.900         0
34.950        16
35.000        21
35.050        21
35.100        20
35.150         0
35.200         1
35.250         0
35.300         1
35.350         9
35.400         0
35.450         3
35.500        16
35.550         8
35.600         0
35.650         8
35.700         3
35.750        21
35.800         0
35.850        17
35.900        12
35.950         4
36.000        15
36.050        17
36.100         9
36.150        23
36.200         0
36.250         0
36.300        15
36.350        24
36.400         1
36.450        53
36.500        49
36.550        49
36.600        24
36.650        13
36.700         3
36.750        11
36.800         9
36.850        32
36.900        29
36.950        47
37.000        25
37.050        17
37.100        32
37.150        31
37.200        16
37.250         0
37.300        20
37.350        29
37.400        16
37.450        29
37.500        21
37.550        15
37.600        27
37.650        20
37.700         3
37.750        39
37.800         4
37.850        17
37.900        21
37.950         9
38.000        16
38.050        23
38.100         1
38.150         0
38.200        17
38.250        20
38.300         9
38.350        36
38.400        41
38.450         0
38.500         0
38.550        21
38.600        13
38.650        39
38.700        24
38.750        27
38.800        23
38.850        27
38.900        11
38.950         5
39.000         9
39.050         0
39.100         4
39.150        21
39.200        29
39.250         0
39.300        19
39.350         9
39.400        36
39.450        15
39.500        25
39.550         4
39.600        29
39.650        15
39.700        31
39.750        31
39.800        53
39.850        19
39.900        17
39.950        15
40.000        39
40.050        43
40.100        52
40.150        29
40.200         0
40.250        19
40.300        31
40.350        13
40.400        28
40.450        20
40.500        23
40.550        12
40.600        17
40.650         7
40.700        43
40.750        40
40.800        28
40.850         0
40.900        41
40.950        36
41.000        19
41.050        28
41.100        41
41.150         0
41.200        37
41.250        13
41.300        16
41.350        31
41.400        41
41.450        32
41.500         0
41.550        12
41.600         7
41.650        27
41.700        35
41.750         9
41.800        29
41.850        31
41.900        15
41.950        15
42.000        28
42.050        36
42.100        16
42.150         9
42.200        15
42.250        27
42.300        37
42.350        39
42.400        35
42.450        24
42.500        20
42.550         3
42.600        29
42.650         8
42.700        15
42.750        41
42.800        61
42.850         7
42.900        32
42.950         0
43.000         5
43.050        19
43.100        37
43.150        20
43.200        35
43.250        25
43.300        19
43.350        21
43.400        32
43.450        19
43.500        23
43.550        49
43.600        29
43.650        23
43.700        43
43.750        13
43.800        31
43.850         5
43.900        29
43.950        51
44.000        49
44.050        52
44.100        32
44.150        27
44.200         9
44.250        19
44.300        47
44.350        27
44.400        35
44.450        45
44.500        21
44.550        15
44.600        37
44.650        24
44.700        31
44.750        37
44.800        47
44.850        17
44.900        17
44.950        13
45.000        32
45.050        27
45.100        31
45.150        29
45.200        27
45.250        60
45.300        43
45.350        41
45.400        49
45.450        41
45.500        32
45.550        37
45.600        25
45.650         0
45.700        49
45.750        55
45.800        36
45.850         4
45.900        47
45.950        57
46.000        59
46.050        85
46.100        27
46.150        69
46.200        43
46.250        48
46.300        77
46.350        47
46.400        48
46.450        36
46.500        57
46.550        47
46.600        32
46.650        57
46.700        48
46.750        16
46.800        40
46.850        17
46.900        25
46.950        40
47.000        31
47.050        31
47.100        13
47.150        48
47.200        55
47.250        43
47.300        60
47.350        23
47.400        33
47.450         1
47.500        56
47.550        33
47.600        21
47.650        25
47.700        13
47.750        19
47.800         3
47.850        44
47.900         0
47.950        27
48.000        15
48.050        35
48.100        19
48.150        13
48.200        37
48.250        21
48.300         0
48.350        24
48.400        28
48.450        19
48.500        23
48.550        16
48.600        24
48.650        21
48.700        17
48.750        25
48.800        11
48.850        64
48.900        15
48.950        36
49.000        20
49.050        52
49.100         8
49.150        17
49.200        52
49.250        23
49.300        33
49.350        49
49.400        24
49.450        57
49.500        12
49.550        32
49.600        28
49.650        40
49.700        27
49.750        45
49.800        51
49.850        44
49.900        37
49.950        27
50.000        49
50.050        23
50.100        55
50.150        48
50.200        53
50.250        29
50.300        53
50.350        68
50.400        43
50.450        49
50.500        28
50.550        39
50.600        65
50.650        41
50.700        53
50.750        68
50.800        71
50.850        35
50.900        64
50.950        48
51.000        44
51.050        71
51.100        57
51.150        63
51.200        88
51.250        65
51.300        67
51.350        89
51.400        53
51.450        79
51.500        60
51.550       103
51.600        77
51.650        81
51.700        92
51.750        76
51.800        99
51.850        96
51.900        96
51.950        99
52.000        84
52.050        72
52.100       135
52.150       101
52.200       116
52.250        95
52.300       149
52.350       143
52.400       141
52.450       165
52.500       245
52.550       192
52.600       224
52.650       183
52.700       176
52.750       209
52.800       141
52.850       132
52.900       128
52.950       109
53.000       129
53.050       109
53.100        97
53.150        79
53.200       103
53.250        81
53.300        68
53.350        73
53.400        97
53.450       103
53.500       105
53.550        52
53.600       100
53.650        89
53.700        57
53.750        91
53.800        75
53.850        67
53.900        67
53.950        83
54.000        87
54.050        83
54.100        37
54.150        35
54.200        28
54.250        20
54.300        43
54.350        13
54.400        64
54.450        47
54.500        71
54.550        55
54.600        40
54.650        52
54.700        43
54.750        39
54.800        37
54.850        56
54.900        25
54.950        39
55.000        31
55.050        39
55.100        39
55.150        56
55.200        57
55.250        49
55.300        48
55.350        27
55.400        36
55.450        29
55.500        25
55.550        15
55.600         9
55.650        29
55.700        39
55.750        28
55.800        35
55.850        16
55.900        11
55.950        24
56.000        17
56.050        25
56.100        27
56.150        31
56.200        27
56.250        23
56.300        33
56.350        20
56.400         3
56.450         4
56.500        11
56.550         4
56.600         9
56.650        19
56.700        15
56.750        29
56.800        17
56.850         0
56.900         0
56.950         9
57.000        20
57.050        12
57.100        20
57.150         0
57.200         8
57.250        17
57.300         8
57.350        16
57.400         0
57.450         7
57.500        21
57.550         4
57.600         0
57.650         0
57.700         5
57.750         0
57.800        16
57.850         0
57.900         1
57.950        20
58.000        12
58.050         1
58.100        11
58.150         0
58.200         0
58.250         0
58.300         3
58.350        13
58.400         0
58.450         0
58.500         0
58.550         7
58.600         0
58.650        32
58.700         0
58.750         0
58.800         0
58.850        24
58.900        17
58.950         9
59.000         0
59.050        11
59.100        13
59.150        16
59.200        19
59.250        17
59.300         0
59.350         0
59.400         5
59.450         0
59.500         0
59.550        11
59.600         1
59.650         0
59.700         9
59.750         0
59.800         8
59.850         0
59.900        11
59.950        20
60.000         7
