20.000         0
20.050         0
20.100        75
20.150        95
20.200       112
20.250        63
20.300       129
20.350        63
20.400        68
20.450        61
20.500        76
20.550       108
20.600        36
20.650        92
20.700        75
20.750        48
20.800        23
20.850        76
20.900        72
20.950        55
21.000        44
21.050        68
21.100        51
21.150        23
21.200        55
21.250        81
21.300        67
21.350        55
21.400        79
21.450       100
21.500        57
21.550        16
21.600        49
21.650        75
21.700        28
21.750        83
21.800        16
21.850        59
21.900        31
21.950        28
22.000        45
22.050        45
22.100        65
22.150        60
22.200        52
22.250        56
22.300        55
22.350        28
22.400        33
22.450        65
22.500        52
22.550        73
22.600        32
22.650        35
22.700        61
22.750         8
22.800        55
22.850        35
22.900        32
22.950        37
23.000         0
23.050        12
23.100        19
23.150        23
23.200        43
23.250        17
23.300        35
23.350         1
23.400        27
23.450         0
23.500         8
23.550        28
23.600        12
23.650        15
23.700         0
23.750        12
23.800        17
23.850         0
23.900        16
23.950         4
24.000        17
24.050         5
24.100        16
24.150        12
24.200         0
24.250         0
24.300        28
24.350         5
24.400        25
24.450         1
24.500        31
24.550        15
24.600         3
24.650        17
24.700         0
24.750        28
24.800        64
24.850        99
24.900        32
24.950        85
25.000        23
25.050        41
25.100        57
25.150        13
25.200        55
25.250        29
25.300         0
25.350        15
25.400        19
25.450        53
25.500        85
25.550       128
25.600       100
25.650       124
25.700        77
25.750        81
25.800        43
25.850        12
25.900        37
25.950        16
26.000         0
26.050         0
26.100        17
26.150         4
26.200         5
26.250        12
26.300        40
26.350        33
26.400        40
26.450        47
26.500         0
26.550         9
26.600        17
26.650        27
26.700        33
26.750         0
26.800        17
26.850        24
26.900        36
26.950        16
27.000        15
27.050         5
27.100         0
27.150        19
27.200        56
27.250         0
27.300        41
27.350         0
27.400         0
27.450         7
27.500         0
27.550         3
27.600         0
27.650        24
27.700         0
27.750        15
27.800        55
27.850        11
27.900        16
27.950        20
28.000        17
28.050         0
28.100         0
28.150         7
28.200        35
28.250         0
28.300        21
28.350        17
28.400         0
28.450        21
28.500         0
28.550         0
28.600        36
28.650         0
28.700        11
28.750        16
28.800         0
28.850         4
28.900         0
28.950        16
29.000         5
29.050        44
29.100        36
29.150        39
29.200         0
29.250        41
29.300        33
29.350        83
29.400       139
29.450       107
29.500        92
29.550        31
29.600         9
29.650         0
29.700         0
29.750         0
29.800         0
29.850         0
29.900         0
29.950        15
30.000         0
30.050        41
30.100         0
30.150         0
30.200        19
30.250         0
30.300        23
30.350        20
30.400        17
30.450         1
30.500         0
30.550        16
30.600        21
30.650        16
30.700        20
30.750        15
30.800        49
30.850        28
30.900        32
30.950        51
31.000        29
31.050        24
31.100        19
31.150        41
31.200         0
31.250         0
31.300        67
31.350         0
31.400        24
31.450        43
31.500        17
31.550        39
31.600        35
31.650        83
31.700        85
31.750        91
31.800       123
31.850       163
31.900       253
31.950       288
32.000       305
32.050       295
32.100       275
32.150       225
32.200       151
32.250       116
32.300        53
32.350        48
32.400        33
32.450        27
32.500        41
32.550         4
32.600        13
32.650        24
32.700        49
32.750        13
32.800         8
32.850         9
32.900        20
32.950        28
33.000        25
33.050        48
33.100         4
33.150         0
33.200        27
33.250         0
33.300         0
33.350         0
33.400         0
33.450         0
33.500        11
33.550         0
33.600         7
33.650         0
33.700         0
33.750        27
33.800         0
33.850        13
33.900         0
33.950        27
34.000        13
34.050         8
34.100        20
34.150         0
34.200        13
34.250        24
34.300         7
34.350         1
34.400        20
34.450        13
34.500        12
34.550        35
34.600        13
34.650        13
34.700        43
34.750         4
34.800        39
34.850         0
34.900        21
34.950        13
35.000        11
35.050         0
35.100         0
35.150        24
35.200        31
35.250         0
35.300         0
35.350        32
35.400        15
35.450         8
35.500        12
35.550         7
35.600        37
35.650        71
35.700        44
35.750        48
35.800        41
35.850         0
35.900        21
35.950        33
36.000        40
36.050        21
36.100         1
36.150         4
36.200         7
36.250        27
36.300        19
36.350        37
36.400        53
36.450        31
36.500        23
36.550        24
36.600         9
36.650        23
36.700        35
36.750        25
36.800        27
36.850        16
36.900         9
36.950        33
37.000        39
37.050        27
37.100        24
37.150        31
37.200        41
37.250        24
37.300        36
37.350        19
37.400        24
37.450        49
37.500        57
37.550        20
37.600        37
37.650        45
37.700        15
37.750        51
37.800        11
37.850        19
37.900        16
37.950        67
38.000        57
38.050        41
38.100        52
38.150        19
38.200        59
38.250        48
38.300         5
38.350        45
38.400        21
38.450        44
38.500        23
38.550        32
38.600        20
38.650        45
38.700        28
38.750        33
38.800        45
38.850        56
38.900        31
38.950        47
39.000        57
39.050        71
39.100        88
39.150       101
39.200        51
39.250        77
39.300        45
39.350        52
39.400        67
39.450        56
39.500        79
39.550        79
39.600        84
39.650        32
39.700        51
39.750        36
39.800        17
39.850        40
39.900        25
39.950        19
40.000        13
40.050        29
40.100        33
40.150        32
40.200        27
40.250        35
40.300        37
40.350         5
40.400        16
40.450        33
40.500        41
40.550        16
40.600        27
40.650        44
40.700        19
40.750        39
40.800        49
40.850        20
40.900        48
40.950        48
41.000        49
41.050        19
41.100        17
41.150        40
41.200        41
41.250        63
41.300        15
41.350        25
41.400        35
41.450        23
41.500        48
41.550        21
41.600        31
41.650        47
41.700        31
41.750        39
41.800        28
41.850        37
41.900        56
41.950        39
42.000        45
42.050        41
42.100        37
42.150        20
42.200        13
42.250        24
42.300        23
42.350         5
42.400        35
42.450        49
42.500        11
42.550        35
42.600        52
42.650        51
42.700        21
42.750        61
42.800        88
42.850        96
42.900        84
42.950        68
43.000        80
43.050        79
43.100        37
43.150        40
43.200        56
43.250        23
43.300        55
43.350        21
43.400        43
43.450        33
43.500        47
43.550        19
43.600        20
43.650        40
43.700        13
43.750        25
43.800        20
43.850        45
43.900        25
43.950        29
44.000        43
44.050         7
44.100        51
44.150        20
44.200        33
44.250        33
44.300        36
44.350        48
44.400        17
44.450        49
44.500        28
44.550        17
44.600         3
44.650        43
44.700        55
44.750        29
44.800         5
44.850        12
44.900        35
44.950        20
45.000        55
45.050        40
45.100         1
45.150         8
45.200        48
45.250        25
45.300        51
45.350        27
45.400        37
45.450        44
45.500        39
45.550        59
45.600        35
45.650        73
45.700        71
45.750        55
45.800        84
45.850        31
45.900        80
45.950        75
46.000        75
46.050        56
46.100        92
46.150        63
46.200        88
46.250        59
46.300        43
46.350        77
46.400        84
46.450        41
46.500        64
46.550        56
46.600        20
46.650        35
46.700         0
46.750        72
46.800        37
46.850        43
46.900        48
46.950        57
47.000        71
47.050        47
47.100        91
47.150        59
47.200       121
47.250       101
47.300        97
47.350       104
47.400        69
47.450        44
47.500        61
47.550        33
47.600        44
47.650        19
47.700        35
47.750         7
47.800        23
47.850        33
47.900        55
47.950        27
48.000        25
48.050        36
48.100        53
48.150        80
48.200       123
48.250        95
48.300        93
48.350        43
48.400        73
48.450        51
48.500        31
48.550        55
48.600        36
48.650         7
48.700        25
48.750        25
48.800         5
48.850        55
48.900         1
48.950         8
49.000        25
49.050        15
49.100        64
49.150         3
49.200         7
49.250        40
49.300        43
49.350        28
49.400        28
49.450        45
49.500        24
49.550        12
49.600        19
49.650        33
49.700        15
49.750        76
49.800        51
49.850        23
49.900        24
49.950        39
50.000        16
50.050        21
50.100        33
50.150        40
50.200        35
50.250        21
50.300        35
50.350        51
50.400        45
50.450        61
50.500        59
50.550        44
50.600        33
50.650        81
50.700        43
50.750        44
50.800       107
50.850        52
50.900        43
50.950        35
51.000        48
51.050        55
51.100        61
51.150        93
51.200        88
51.250        99
51.300        65
51.350        67
51.400        88
51.450       113
51.500        81
51.550       111
51.600        72
51.650        76
51.700        75
51.750        77
51.800        77
51.850        84
51.900       123
51.950        89
52.000       100
52.050        69
52.100        89
52.150       132
52.200       116
52.250        85
52.300       165
52.350       160
52.400       141
52.450       116
52.500       189
52.550       195
52.600       189
52.650       167
52.700       180
52.750       159
52.800       148
52.850       115
52.900       104
52.950       115
53.000       115
53.050        99
53.100       105
53.150        92
53.200        80
53.250       101
53.300       119
53.350        97
53.400        69
53.450        69
53.500        51
53.550        55
53.600        71
53.650        84
53.700        61
53.750        63
53.800        68
53.850        80
53.900        47
53.950        56
54.000        67
54.050        59
54.100        68
54.150        63
54.200        44
54.250        72
54.300        71
54.350        63
54.400        88
54.450        41
54.500        33
54.550        47
54.600        63
54.650        21
54.700        48
54.750        36
54.800        36
54.850        29
54.900        59
54.950        36
55.000        52
55.050        55
55.100        13
55.150        44
55.200         3
55.250        28
55.300        33
55.350        39
55.400        29
55.450        32
55.500         5
55.550        27
55.600        16
55.650         0
55.700         0
55.750        24
55.800        23
55.850        20
55.900         5
55.950         5
56.000        11
56.050         0
56.100        20
56.150        27
56.200        13
56.250         0
56.300         4
56.350        29
56.400        43
56.450        29
56.500         0
56.550        21
56.600        20
56.650        37
56.700        63
56.750        31
56.800        20
56.850        45
56.900        52
56.950        48
57.000        47
57.050        79
57.100        56
57.150        51
57.200        53
57.250        47
57.300        41
57.350        15
57.400        17
57.450         7
57.500         4
57.550        36
57.600        13
57.650         0
57.700         0
57.750         1
57.800        13
57.850         0
57.900        25
57.950        11
58.000        15
58.050         7
58.100        31
58.150         3
58.200        15
58.250         8
58.300         3
58.350         0
58.400        11
58.450         0
58.500        36
58.550        12
58.600        24
58.650         4
58.700        19
58.750         0
58.800        16
58.850        16
58.900        12
58.950         0
59.000        17
59.050         0
59.100        31
59.150        12
59.200         0
59.250        32
59.300         8
59.350        20
59.400         0
59.450        11
59.500        20
59.550        11
59.600        19
59.650        20
59.700        23
59.750        28
59.800        13
59.850         1
59.900        21
59.950        25
60.000        40
