20.000       323
20.050       387
20.100       387
20.150       360
20.200       416
20.250       301
20.300       328
20.350       355
20.400       381
20.450       323
20.500       323
20.550       317
20.600       333
20.650       355
20.700       360
20.750       301
20.800       277
20.850       323
20.900       323
20.950       331
21.000       397
21.050       379
21.100       400
21.150       339
21.200       272
21.250       291
21.300       323
21.350       299
21.400       309
21.450       331
21.500       299
21.550       299
21.600       253
21.650       299
21.700       317
21.750       285
21.800       269
21.850       349
21.900       328
21.950       285
22.000       275
22.050       328
22.100       283
22.150       293
22.200       304
22.250       352
22.300       317
22.350       253
22.400       280
22.450       288
22.500       317
22.550       304
22.600       251
22.650       299
22.700       317
22.750       336
22.800       312
22.850       259
22.900       280
22.950       259
23.000       277
23.050       259
23.100       267
23.150       259
23.200       293
23.250       240
23.300       253
23.350       264
23.400       299
23.450       232
23.500       283
23.550       240
23.600       221
23.650       272
23.700       264
23.750       309
23.800       264
23.850       312
23.900       277
23.950       269
24.000       240
24.050       221
24.100       288
24.150       253
24.200       213
24.250       315
24.300       264
24.350       213
24.400       221
24.450       277
24.500       283
24.550       253
24.600       280
24.650       365
24.700       347
24.750       333
24.800       360
24.850       304
24.900       293
24.950       285
25.000       240
25.050       267
25.100       264
25.150       291
25.200       237
25.250       251
25.300       285
25.350       307
25.400       256
25.450       267
25.500       280
25.550       315
25.600       264
25.650       275
25.700       235
25.750       253
25.800       272
25.850       224
25.900       224
25.950       227
26.000       253
26.050       232
26.100       197
26.150       227
26.200       216
26.250       320
26.300       280
26.350       216
26.400       299
26.450       227
26.500       229
26.550       219
26.600       275
26.650       237
26.700       219
26.750       216
26.800       216
26.850       173
26.900       205
26.950       229
27.000       173
27.050       208
27.100       248
27.150       173
27.200       245
27.250       229
27.300       184
27.350       227
27.400       211
27.450       192
27.500       203
27.550       216
27.600       211
27.650       197
27.700       200
27.750       232
27.800       211
27.850       221
27.900       213
27.950       219
28.000       227
28.050       211
28.100       152
28.150       211
28.200       203
28.250       208
28.300       235
28.350       205
28.400       248
28.450       213
28.500       205
28.550       171
28.600       211
28.650       189
28.700       192
28.750       168
28.800       184
28.850       187
28.900       240
28.950       213
29.000       229
29.050       232
29.100       275
29.150       285
29.200       395
29.250       371
29.300       373
29.350       285
29.400       293
29.450       181
29.500       197
29.550       219
29.600       189
29.650       200
29.700       195
29.750       187
29.800       187
29.850       173
29.900       192
29.950       237
30.000       189
30.050       189
30.100       171
30.150       184
30.200       187
30.250       147
30.300       235
30.350       189
30.400       189
30.450       240
30.500       243
30.550       195
30.600       205
30.650       189
30.700       179
30.750       157
30.800       219
30.850       155
30.900       176
30.950       184
31.000       163
31.050       216
31.100       165
31.150       179
31.200       131
31.250       197
31.300       248
31.350       163
31.400       240
31.450       208
31.500       216
31.550       197
31.600       205
31.650       179
31.700       232
31.750       165
31.800       179
31.850       176
31.900       189
31.950       152
32.000       197
32.050       173
32.100       192
32.150       176
32.200       176
32.250       157
32.300       240
32.350       203
32.400       163
32.450       187
32.500       184
32.550       176
32.600       149
32.650       179
32.700       203
32.750       149
32.800       192
32.850       187
32.900       149
32.950       192
33.000       165
33.050       181
33.100       173
33.150       195
33.200       176
33.250       163
33.300       168
33.350       189
33.400       179
33.450       160
33.500       163
33.550       168
33.600       173
33.650       171
33.700       184
33.750       168
33.800       133
33.850       192
33.900       221
33.950       160
34.000       179
34.050       187
34.100       195
34.150       181
34.200       189
34.250       168
34.300       195
34.350       176
34.400       184
34.450       184
34.500       165
34.550       152
34.600       184
34.650       144
34.700       160
34.750       133
34.800       157
34.850       144
34.900       160
34.950       131
35.000       160
35.050       173
35.100       157
35.150       208
35.200       155
35.250       176
35.300       152
35.350       160
35.400       173
35.450       184
35.500       149
35.550       189
35.600       219
35.650       165
35.700       152
35.750       173
35.800       192
35.850       160
35.900       197
35.950       205
36.000       208
36.050       184
36.100       224
36.150       141
36.200       192
36.250       152
36.300       171
36.350       163
36.400       168
36.450       179
36.500       171
36.550       141
36.600       179
36.650       227
36.700       171
36.750       173
36.800       152
36.850       176
36.900       171
36.950       184
37.000       147
37.050       192
37.100       165
37.150       173
37.200       125
37.250       181
37.300       165
37.350       176
37.400       205
37.450       179
37.500       171
37.550       184
37.600       155
37.650       144
37.700       155
37.750       144
37.800       160
37.850       128
37.900       147
37.950       168
38.000       179
38.050       160
38.100       200
38.150       179
38.200       211
38.250       152
38.300       203
38.350       184
38.400       187
38.450       165
38.500       216
38.550       163
38.600       181
38.650       195
38.700       139
38.750       171
38.800       157
38.850       144
38.900       136
38.950       179
39.000       144
39.050       187
39.100       229
39.150       176
39.200       208
39.250       200
39.300       192
39.350       261
39.400       205
39.450       224
39.500       155
39.550       163
39.600       200
39.650       179
39.700       181
39.750       181
39.800       147
39.850       189
39.900       173
39.950       147
40.000       163
40.050       171
40.100       168
40.150       213
40.200       149
40.250       195
40.300       117
40.350       157
40.400       181
40.450       189
40.500       176
40.550       176
40.600       147
40.650       187
40.700       184
40.750       203
40.800       173
40.850       197
40.900       221
40.950       144
41.000       152
41.050       131
41.100       147
41.150       120
41.200       149
41.250       165
41.300       192
41.350       200
41.400       165
41.450       173
41.500       176
41.550       144
41.600       136
41.650       189
41.700       208
41.750       187
41.800       163
41.850       189
41.900       173
41.950       171
42.000       149
42.050       157
42.100       165
42.150       176
42.200       192
42.250       168
42.300       160
42.350       173
42.400       168
42.450       171
42.500       141
42.550       195
42.600       171
42.650       197
42.700       168
42.750       165
42.800       136
42.850       173
42.900       211
42.950       144
43.000       208
43.050       197
43.100       221
43.150       219
43.200       179
43.250       189
43.300       168
43.350       176
43.400       195
43.450       176
43.500       184
43.550       171
43.600       195
43.650       187
43.700       208
43.750       176
43.800       160
43.850       219
43.900       176
43.950       192
44.000       139
44.050       173
44.100       157
44.150       136
44.200       200
44.250       168
44.300       131
44.350       192
44.400       163
44.450       160
44.500       128
44.550       179
44.600       189
44.650       157
44.700       152
44.750       200
44.800       155
44.850       163
44.900       163
44.950       179
45.000       131
45.050       187
45.100       152
45.150       181
45.200       187
45.250       181
45.300       176
45.350       176
45.400       139
45.450       192
45.500       205
45.550       165
45.600       184
45.650       184
45.700       195
45.750       189
45.800       165
45.850       203
45.900       176
45.950       184
46.000       173
46.050       168
46.100       141
46.150       181
46.200       192
46.250       168
46.300       163
46.350       195
46.400       157
46.450       176
46.500       163
46.550       157
46.600       195
46.650       147
46.700       208
46.750       176
46.800       171
46.850       128
46.900       144
46.950       216
47.000       189
47.050       157
47.100       144
47.150       195
47.200       187
47.250       192
47.300       251
47.350       240
47.400       267
47.450       197
47.500       243
47.550       197
47.600       227
47.650       165
47.700       195
47.750       144
47.800       136
47.850       168
47.900       152
47.950       176
48.000       163
48.050       173
48.100       173
48.150       197
48.200       235
48.250       187
48.300       264
48.350       237
48.400       240
48.450       187
48.500       173
48.550       171
48.600       171
48.650       208
48.700       176
48.750       197
48.800       181
48.850       160
48.900       176
48.950       152
49.000       181
49.050       205
49.100       152
49.150       157
49.200       160
49.250       147
49.300       157
49.350       195
49.400       163
49.450       179
49.500       184
49.550       157
49.600       181
49.650       181
49.700       200
49.750       195
49.800       139
49.850       157
49.900       147
49.950       157
50.000       179
50.050       168
50.100       181
50.150       189
50.200       224
50.250       192
50.300       176
50.350       155
50.400       192
50.450       237
50.500       219
50.550       219
50.600       184
50.650       203
50.700       189
50.750       187
50.800       192
50.850       189
50.900       192
50.950       227
51.000       221
51.050       224
51.100       208
51.150       227
51.200       240
51.250       216
51.300       195
51.350       267
51.400       197
51.450       240
51.500       187
51.550       208
51.600       176
51.650       259
51.700       237
51.750       227
51.800       269
51.850       251
51.900       283
51.950       216
52.000       229
52.050       235
52.100       229
52.150       280
52.200       261
52.250       309
52.300       267
52.350       261
52.400       323
52.450       320
52.500       296
52.550       269
52.600       291
52.650       307
52.700       248
52.750       253
52.800       333
52.850       224
52.900       229
52.950       259
53.000       248
53.050       173
53.100       203
53.150       253
53.200       197
53.250       237
53.300       203
53.350       211
53.400       208
53.450       189
53.500       192
53.550       224
53.600       221
53.650       179
53.700       205
53.750       213
53.800       211
53.850       181
53.900       205
53.950       189
54.000       192
54.050       179
54.100       181
54.150       165
54.200       192
54.250       211
54.300       195
54.350       189
54.400       152
54.450       184
54.500       227
54.550       195
54.600       179
54.650       141
54.700       165
54.750       165
54.800       195
54.850       165
54.900       165
54.950       184
55.000       184
55.050       181
55.100       184
55.150       197
55.200       179
55.250       165
55.300       147
55.350       139
55.400       147
55.450       144
55.500       173
55.550       155
55.600       163
55.650       173
55.700       131
55.750       120
55.800       133
55.850       131
55.900       168
55.950       149
56.000       163
56.050       141
56.100       168
56.150       203
56.200       141
56.250       133
56.300       179
56.350       149
56.400       141
56.450       171
56.500       131
56.550       176
56.600       173
56.650       173
56.700       133
56.750       171
56.800       152
56.850       125
56.900       139
56.950       144
57.000       171
57.050       165
57.100       157
57.150       160
57.200       125
57.250       165
57.300       160
57.350       155
57.400       128
57.450       160
57.500       176
57.550       149
57.600       128
57.650       155
57.700       136
57.750       189
57.800       115
57.850       125
57.900       149
57.950       125
58.000       128
58.050       123
58.100       141
58.150       104
58.200       136
58.250       139
58.300       128
58.350       165
58.400       109
58.450       123
58.500       139
58.550       128
58.600       117
58.650       155
58.700       120
58.750       139
58.800       136
58.850       131
58.900       115
58.950       149
59.000       136
59.050       160
59.100       149
59.150       144
59.200       165
59.250       133
59.300       133
59.350       165
59.400       139
59.450       112
59.500       160
59.550       155
59.600       144
59.650       133
59.700       133
59.750       141
59.800       131
59.850       107
59.900       144
59.950        56
60.000        56
