20.000       141
20.050       141
20.100       315
20.150       339
20.200       315
20.250       331
20.300       331
20.350       336
20.400       379
20.450       315
20.500       363
20.550       309
20.600       317
20.650       296
20.700       309
20.750       280
20.800       333
20.850       312
20.900       320
20.950       309
21.000       341
21.050       317
21.100       307
21.150       277
21.200       280
21.250       307
21.300       336
21.350       277
21.400       307
21.450       291
21.500       288
21.550       315
21.600       285
21.650       237
21.700       293
21.750       269
21.800       323
21.850       285
21.900       267
21.950       272
22.000       296
22.050       293
22.100       272
22.150       291
22.200       277
22.250       283
22.300       277
22.350       285
22.400       307
22.450       288
22.500       275
22.550       301
22.600       323
22.650       277
22.700       259
22.750       253
22.800       245
22.850       264
22.900       275
22.950       277
23.000       288
23.050       264
23.100       224
23.150       269
23.200       288
23.250       245
23.300       272
23.350       275
23.400       296
23.450       275
23.500       275
23.550       248
23.600       301
23.650       235
23.700       251
23.750       267
23.800       264
23.850       184
23.900       277
23.950       243
24.000       248
24.050       243
24.100       261
24.150       256
24.200       211
24.250       219
24.300       184
24.350       243
24.400       251
24.450       181
24.500       253
24.550       261
24.600       240
24.650       205
24.700       213
24.750       240
24.800       283
24.850       269
24.900       277
24.950       269
25.000       253
25.050       208
25.100       275
25.150       275
25.200       272
25.250       251
25.300       275
25.350       251
25.400       251
25.450       232
25.500       352
25.550       637
25.600       834
25.650      1053
25.700       840
25.750       650
25.800       426
25.850       341
25.900       259
25.950       248
26.000       189
26.050       245
26.100       245
26.150       251
26.200       248
26.250       227
26.300       211
26.350       261
26.400       240
26.450       227
26.500       203
26.550       213
26.600       221
26.650       197
26.700       197
26.750       216
26.800       259
26.850       221
26.900       216
26.950       229
27.000       224
27.050       216
27.100       213
27.150       195
27.200       245
27.250       261
27.300       205
27.350       248
27.400       219
27.450       195
27.500       208
27.550       211
27.600       243
27.650       219
27.700       216
27.750       149
27.800       165
27.850       139
27.900       240
27.950       245
28.000       240
28.050       200
28.100       232
28.150       229
28.200       165
28.250       184
28.300       219
28.350       189
28.400       195
28.450       203
28.500       195
28.550       224
28.600       171
28.650       211
28.700       219
28.750       216
28.800       184
28.850       235
28.900       184
28.950       213
29.000       229
29.050       197
29.100       163
29.150       168
29.200       179
29.250       165
29.300       187
29.350       251
29.400       224
29.450       245
29.500       248
29.550       227
29.600       237
29.650       221
29.700       179
29.750       197
29.800       176
29.850       168
29.900       163
29.950       181
30.000       192
30.050       203
30.100       184
30.150       179
30.200       213
30.250       171
30.300       163
30.350       203
30.400       179
30.450       189
30.500       184
30.550       163
30.600       176
30.650       176
30.700       171
30.750       184
30.800       229
30.850       173
30.900       149
30.950       152
31.000       165
31.050       189
31.100       173
31.150       197
31.200       179
31.250       181
31.300       144
31.350       200
31.400       181
31.450       133
31.500       221
31.550       155
31.600       211
31.650       219
31.700       195
31.750       179
31.800       184
31.850       179
31.900       171
31.950       171
32.000       213
32.050       168
32.100       171
32.150       181
32.200       187
32.250       176
32.300       149
32.350       152
32.400       152
32.450       200
32.500       213
32.550       136
32.600       192
32.650       152
32.700       173
32.750       152
32.800       200
32.850       139
32.900       165
32.950       163
33.000       171
33.050       203
33.100       104
33.150       141
33.200       168
33.250       165
33.300       157
33.350       181
33.400       165
33.450       133
33.500       171
33.550       171
33.600       128
33.650       155
33.700       139
33.750       133
33.800       136
33.850       149
33.900       179
33.950       187
34.000       155
34.050       149
34.100       152
34.150       165
34.200       160
34.250       179
34.300       192
34.350       157
34.400       165
34.450       168
34.500       131
34.550       149
34.600       149
34.650       160
34.700       152
34.750       163
34.800       147
34.850       160
34.900       149
34.950       139
35.000       171
35.050       152
35.100       149
35.150       157
35.200       189
35.250       205
35.300       173
35.350       179
35.400       141
35.450       136
35.500       160
35.550       157
35.600       136
35.650       141
35.700       203
35.750       165
35.800       133
35.850       149
35.900       165
35.950       152
36.000       144
36.050       192
36.100       168
36.150       152
36.200       147
36.250       165
36.300       155
36.350       155
36.400       147
36.450       149
36.500       131
36.550       195
36.600       165
36.650       139
36.700       155
36.750       155
36.800       171
36.850       160
36.900       155
36.950       141
37.000       141
37.050       155
37.100       125
37.150       144
37.200       117
37.250       160
37.300       139
37.350       136
37.400       160
37.450       149
37.500       141
37.550       160
37.600       184
37.650       203
37.700       179
37.750       176
37.800       128
37.850       144
37.900       163
37.950       160
38.000       133
38.050       139
38.100       165
38.150       133
38.200       179
38.250       168
38.300       141
38.350       139
38.400       133
38.450       125
38.500       181
38.550       160
38.600       123
38.650       141
38.700       125
38.750       149
38.800       128
38.850       133
38.900       181
38.950       149
39.000       176
39.050       136
39.100       128
39.150       163
39.200       176
39.250       157
39.300       160
39.350       152
39.400       157
39.450       163
39.500       187
39.550       163
39.600       152
39.650       120
39.700       168
39.750       147
39.800       184
39.850       184
39.900       123
39.950       160
40.000       163
40.050       160
40.100       144
40.150       181
40.200       133
40.250       155
40.300       165
40.350       149
40.400       181
40.450       141
40.500       112
40.550       163
40.600       152
40.650       171
40.700       141
40.750       171
40.800       168
40.850       147
40.900       133
40.950       173
41.000       149
41.050       133
41.100       163
41.150       168
41.200       179
41.250       165
41.300       165
41.350       173
41.400       131
41.450       157
41.500       149
41.550       189
41.600       152
41.650       144
41.700       136
41.750       160
41.800       157
41.850       139
41.900       147
41.950       171
42.000       128
42.050       197
42.100       171
42.150       171
42.200       173
42.250       179
42.300       125
42.350       152
42.400       144
42.450       133
42.500       149
42.550       165
42.600       155
42.650       149
42.700       141
42.750       173
42.800       152
42.850       168
42.900       139
42.950       133
43.000       157
43.050       136
43.100       179
43.150       192
43.200       163
43.250       168
43.300       131
43.350       179
43.400       149
43.450       149
43.500       160
43.550       155
43.600       155
43.650       173
43.700       211
43.750       131
43.800       163
43.850       133
43.900       123
43.950       144
44.000       155
44.050       141
44.100       155
44.150       184
44.200       147
44.250       195
44.300       155
44.350       163
44.400       133
44.450        96
44.500       200
44.550       109
44.600       192
44.650       136
44.700       133
44.750       187
44.800       155
44.850       123
44.900       141
44.950       165
45.000       123
45.050       139
45.100       139
45.150       144
45.200       141
45.250       107
45.300       173
45.350       147
45.400       168
45.450       136
45.500       136
45.550       147
45.600       133
45.650       117
45.700       149
45.750       152
45.800       155
45.850       123
45.900       133
45.950       168
46.000       152
46.050       160
46.100       136
46.150       136
46.200       184
46.250       165
46.300       157
46.350       120
46.400       147
46.450       168
46.500       173
46.550       144
46.600       112
46.650       163
46.700       168
46.750       136
46.800       104
46.850       123
46.900       141
46.950       155
47.000       152
47.050       125
47.100       136
47.150       141
47.200       133
47.250       144
47.300       144
47.350       163
47.400       195
47.450       157
47.500       157
47.550       128
47.600       147
47.650       141
47.700       133
47.750       139
47.800       163
47.850       139
47.900       125
47.950       173
48.000       139
48.050       139
48.100       125
48.150       157
48.200       173
48.250       149
48.300       147
48.350       165
48.400       101
48.450       157
48.500       147
48.550       171
48.600       133
48.650       160
48.700       157
48.750       157
48.800       128
48.850       173
48.900       163
48.950       144
49.000       152
49.050       141
49.100       168
49.150       184
49.200       163
49.250       173
49.300       117
49.350       163
49.400       125
49.450       171
49.500       176
49.550       173
49.600       184
49.650       168
49.700       163
49.750       120
49.800       171
49.850       163
49.900       165
49.950       160
50.000       176
50.050       152
50.100       163
50.150       160
50.200       205
50.250       173
50.300       179
50.350       147
50.400       197
50.450       176
50.500       211
50.550       173
50.600       168
50.650       168
50.700       157
50.750       211
50.800       141
50.850       224
50.900       176
50.950       229
51.000       152
51.050       264
51.100       192
51.150       149
51.200       184
51.250       216
51.300       189
51.350       200
51.400       157
51.450       219
51.500       181
51.550       205
51.600       179
51.650       251
51.700       237
51.750       208
51.800       221
51.850       213
51.900       304
51.950       221
52.000       243
52.050       251
52.100       189
52.150       277
52.200       203
52.250       235
52.300       232
52.350       275
52.400       323
52.450       341
52.500       408
52.550       448
52.600       538
52.650       621
52.700       613
52.750       498
52.800       344
52.850       384
52.900       347
52.950       283
53.000       237
53.050       237
53.100       277
53.150       219
53.200       211
53.250       240
53.300       211
53.350       205
53.400       227
53.450       213
53.500       205
53.550       173
53.600       165
53.650       219
53.700       219
53.750       208
53.800       197
53.850       195
53.900       168
53.950       197
54.000       179
54.050       235
54.100       184
54.150       195
54.200       173
54.250       187
54.300       168
54.350       144
54.400       163
54.450       176
54.500       179
54.550       173
54.600       160
54.650       173
54.700       160
54.750       168
54.800       195
54.850       144
54.900       165
54.950       131
55.000       125
55.050       125
55.100       133
55.150       181
55.200       136
55.250       139
55.300       157
55.350       160
55.400       160
55.450       139
55.500       131
55.550       147
55.600       144
55.650       128
55.700       128
55.750       123
55.800       147
55.850       155
55.900       147
55.950       115
56.000       173
56.050       155
56.100       149
56.150       125
56.200       157
56.250       125
56.300       144
56.350       165
56.400       117
56.450       120
56.500       125
56.550       152
56.600       163
56.650       128
56.700       123
56.750       139
56.800       109
56.850       163
56.900       112
56.950       165
57.000       112
57.050       131
57.100       139
57.150       120
57.200       109
57.250       115
57.300       131
57.350       101
57.400        88
57.450       101
57.500       123
57.550       109
57.600       112
57.650       112
57.700       117
57.750       152
57.800       125
57.850       123
57.900       101
57.950       123
58.000       115
58.050       109
58.100       109
58.150        93
58.200       125
58.250        93
58.300       120
58.350       155
58.400        91
58.450       101
58.500        96
58.550       141
58.600       133
58.650       107
58.700       128
58.750       131
58.800       120
58.850       109
58.900       131
58.950       120
59.000       112
59.050       125
59.100        96
59.150       120
59.200       125
59.250       128
59.300       141
59.350       128
59.400       131
59.450       125
59.500       117
59.550        80
59.600       112
59.650       117
59.700        99
59.750        83
59.800        72
59.850       101
59.900       109
59.950       109
60.000        93
