20.000       307
20.050       379
20.100       293
20.150       341
20.200       395
20.250       376
20.300       365
20.350       384
20.400       376
20.450       371
20.500       328
20.550       373
20.600       371
20.650       344
20.700       325
20.750       304
20.800       296
20.850       341
20.900       368
20.950       355
21.000       371
21.050       403
21.100       392
21.150       320
21.200       392
21.250       317
21.300       384
21.350       405
21.400       363
21.450       347
21.500       323
21.550       336
21.600       296
21.650       315
21.700       347
21.750       371
21.800       320
21.850       309
21.900       323
21.950       320
22.000       317
22.050       291
22.100       307
22.150       299
22.200       328
22.250       261
22.300       336
22.350       277
22.400       299
22.450       384
22.500       315
22.550       341
22.600       371
22.650       280
22.700       291
22.750       299
22.800       253
22.850       339
22.900       315
22.950       264
23.000       341
23.050       285
23.100       288
23.150       296
23.200       347
23.250       328
23.300       291
23.350       288
23.400       293
23.450       227
23.500       315
23.550       245
23.600       307
23.650       288
23.700       333
23.750       264
23.800       293
23.850       277
23.900       272
23.950       301
24.000       272
24.050       299
24.100       291
24.150       243
24.200       195
24.250       253
24.300       275
24.350       256
24.400       296
24.450       243
24.500       277
24.550       336
24.600       277
24.650       301
24.700       347
24.750       333
24.800       349
24.850       283
24.900       272
24.950       248
25.000       293
25.050       264
25.100       259
25.150       240
25.200       253
25.250       251
25.300       291
25.350       349
25.400       352
25.450       477
25.500       664
25.550      1112
25.600      1064
25.650       829
25.700       528
25.750       371
25.800       277
25.850       285
25.900       229
25.950       291
26.000       248
26.050       261
26.100       259
26.150       224
26.200       237
26.250       288
26.300       299
26.350       299
26.400       296
26.450       259
26.500       261
26.550       240
26.600       347
26.650       256
26.700       251
26.750       243
26.800       237
26.850       245
26.900       197
26.950       208
27.000       248
27.050       240
27.100       203
27.150       237
27.200       251
27.250       248
27.300       208
27.350       235
27.400       211
27.450       219
27.500       227
27.550       213
27.600       261
27.650       216
27.700       277
27.750       261
27.800       211
27.850       237
27.900       245
27.950       245
28.000       299
28.050       232
28.100       213
28.150       211
28.200       211
28.250       184
28.300       229
28.350       213
28.400       248
28.450       181
28.500       157
28.550       229
28.600       229
28.650       213
28.700       208
28.750       211
28.800       240
28.850       232
28.900       232
28.950       248
29.000       224
29.050       253
29.100       288
29.150       357
29.200       426
29.250       472
29.300       429
29.350       363
29.400       315
29.450       235
29.500       219
29.550       253
29.600       187
29.650       229
29.700       232
29.750       229
29.800       189
29.850       173
29.900       205
29.950       211
30.000       237
30.050       211
30.100       184
30.150       205
30.200       181
30.250       245
30.300       200
30.350       165
30.400       197
30.450       205
30.500       227
30.550       179
30.600       251
30.650       197
30.700       184
30.750       224
30.800       184
30.850       216
30.900       208
30.950       205
31.000       181
31.050       216
31.100       213
31.150       213
31.200       216
31.250       189
31.300       237
31.350       224
31.400       227
31.450       211
31.500       232
31.550       195
31.600       208
31.650       235
31.700       229
31.750       261
31.800       256
31.850       347
31.900       349
31.950       416
32.000       482
32.050       549
32.100       584
32.150       565
32.200       688
32.250       512
32.300       533
32.350       408
32.400       381
32.450       293
32.500       264
32.550       237
32.600       235
32.650       261
32.700       205
32.750       243
32.800       213
32.850       205
32.900       227
32.950       189
33.000       197
33.050       216
33.100       171
33.150       229
33.200       240
33.250       203
33.300       219
33.350       147
33.400       189
33.450       152
33.500       232
33.550       216
33.600       211
33.650       203
33.700       245
33.750       171
33.800       189
33.850       203
33.900       192
33.950       195
34.000       163
34.050       224
34.100       219
34.150       195
34.200       187
34.250       211
34.300       195
34.350       187
34.400       213
34.450       203
34.500       213
34.550       256
34.600       224
34.650       197
34.700       229
34.750       219
34.800       189
34.850       213
34.900       200
34.950       235
35.000       224
35.050       243
35.100       253
35.150       211
35.200       219
35.250       181
35.300       237
35.350       219
35.400       208
35.450       173
35.500       221
35.550       189
35.600       192
35.650       248
35.700       245
35.750       251
35.800       277
35.850       264
35.900       211
35.950       219
36.000       232
36.050       197
36.100       173
36.150       216
36.200       171
36.250       200
36.300       216
36.350       192
36.400       197
36.450       195
36.500       208
36.550       189
36.600       229
36.650       168
36.700       176
36.750       240
36.800       200
36.850       184
36.900       152
36.950       160
37.000       213
37.050       205
37.100       173
37.150       224
37.200       155
37.250       179
37.300       184
37.350       181
37.400       192
37.450       184
37.500       165
37.550       187
37.600       160
37.650       192
37.700       184
37.750       208
37.800       205
37.850       181
37.900       187
37.950       184
38.000       251
38.050       208
38.100       176
38.150       232
38.200       232
38.250       168
38.300       203
38.350       205
38.400       221
38.450       160
38.500       229
38.550       157
38.600       224
38.650       165
38.700       187
38.750       200
38.800       200
38.850       208
38.900       208
38.950       165
39.000       205
39.050       221
39.100       256
39.150       227
39.200       283
39.250       261
39.300       272
39.350       229
39.400       213
39.450       189
39.500       208
39.550       221
39.600       192
39.650       245
39.700       187
39.750       219
39.800       216
39.850       141
39.900       197
39.950       181
40.000       152
40.050       189
40.100       205
40.150       203
40.200       157
40.250       179
40.300       171
40.350       141
40.400       152
40.450       221
40.500       179
40.550       197
40.600       181
40.650       155
40.700       221
40.750       192
40.800       184
40.850       221
40.900       189
40.950       184
41.000       189
41.050       181
41.100       189
41.150       192
41.200       197
41.250       181
41.300       163
41.350       171
41.400       261
41.450       213
41.500       184
41.550       139
41.600       181
41.650       205
41.700       208
41.750       184
41.800       141
41.850       181
41.900       203
41.950       205
42.000       181
42.050       224
42.100       187
42.150       189
42.200       165
42.250       197
42.300       187
42.350       187
42.400       181
42.450       197
42.500       157
42.550       173
42.600       189
42.650       189
42.700       211
42.750       205
42.800       179
42.850       237
42.900       211
42.950       211
43.000       280
43.050       243
43.100       245
43.150       251
43.200       245
43.250       176
43.300       203
43.350       227
43.400       133
43.450       187
43.500       221
43.550       211
43.600       163
43.650       160
43.700       200
43.750       141
43.800       224
43.850       184
43.900       197
43.950       224
44.000       173
44.050       147
44.100       149
44.150       189
44.200       176
44.250       176
44.300       184
44.350       195
44.400       160
44.450       187
44.500       187
44.550       179
44.600       157
44.650       173
44.700       187
44.750       176
44.800       197
44.850       187
44.900       189
44.950       189
45.000       189
45.050       181
45.100       187
45.150       176
45.200       157
45.250       192
45.300       229
45.350       200
45.400       197
45.450       187
45.500       189
45.550       237
45.600       237
45.650       171
45.700       197
45.750       221
45.800       264
45.850       261
45.900       267
45.950       253
46.000       240
46.050       280
46.100       267
46.150       267
46.200       240
46.250       240
46.300       221
46.350       227
46.400       213
46.450       240
46.500       192
46.550       200
46.600       163
46.650       181
46.700       205
46.750       216
46.800       176
46.850       157
46.900       256
46.950       213
47.000       267
47.050       211
47.100       227
47.150       317
47.200       256
47.250       259
47.300       253
47.350       219
47.400       232
47.450       221
47.500       259
47.550       216
47.600       245
47.650       208
47.700       195
47.750       208
47.800       147
47.850       211
47.900       157
47.950       237
48.000       189
48.050       227
48.100       192
48.150       171
48.200       256
48.250       203
48.300       232
48.350       291
48.400       245
48.450       243
48.500       232
48.550       211
48.600       213
48.650       187
48.700       144
48.750       171
48.800       195
48.850       179
48.900       173
48.950       168
49.000       195
49.050       189
49.100       139
49.150       181
49.200       176
49.250       179
49.300       157
49.350       219
49.400       187
49.450       176
49.500       165
49.550       197
49.600       200
49.650       208
49.700       189
49.750       176
49.800       200
49.850       181
49.900       213
49.950       235
50.000       176
50.050       216
50.100       192
50.150       184
50.200       171
50.250       157
50.300       219
50.350       203
50.400       197
50.450       200
50.500       187
50.550       181
50.600       147
50.650       211
50.700       235
50.750       211
50.800       229
50.850       147
50.900       195
50.950       237
51.000       237
51.050       253
51.100       224
51.150       181
51.200       187
51.250       248
51.300       179
51.350       181
51.400       192
51.450       187
51.500       219
51.550       211
51.600       232
51.650       208
51.700       227
51.750       216
51.800       195
51.850       267
51.900       277
51.950       227
52.000       269
52.050       256
52.100       232
52.150       243
52.200       288
52.250       208
52.300       288
52.350       296
52.400       384
52.450       576
52.500      1016
52.550       989
52.600       848
52.650       938
52.700       565
52.750       432
52.800       352
52.850       259
52.900       307
52.950       264
53.000       251
53.050       235
53.100       205
53.150       229
53.200       224
53.250       259
53.300       240
53.350       232
53.400       227
53.450       203
53.500       224
53.550       240
53.600       173
53.650       275
53.700       195
53.750       216
53.800       256
53.850       200
53.900       200
53.950       192
54.000       237
54.050       176
54.100       208
54.150       205
54.200       219
54.250       211
54.300       179
54.350       168
54.400       184
54.450       205
54.500       195
54.550       176
54.600       229
54.650       227
54.700       245
54.750       256
54.800       184
54.850       219
54.900       224
54.950       147
55.000       176
55.050       189
55.100       216
55.150       179
55.200       181
55.250       179
55.300       189
55.350       152
55.400       179
55.450       181
55.500       189
55.550       187
55.600       152
55.650       171
55.700       173
55.750       184
55.800       128
55.850       203
55.900       157
55.950       141
56.000       157
56.050       152
56.100       179
56.150       149
56.200       179
56.250       155
56.300       179
56.350       181
56.400       165
56.450       189
56.500       176
56.550       203
56.600       173
56.650       173
56.700       149
56.750       144
56.800       152
56.850       179
56.900       205
56.950       147
57.000       163
57.050       149
57.100       147
57.150       173
57.200       243
57.250       179
57.300       192
57.350       173
57.400       163
57.450       211
57.500       171
57.550       160
57.600       152
57.650       141
57.700       168
57.750       171
57.800       197
57.850       152
57.900       125
57.950       165
58.000       187
58.050       165
58.100       160
58.150       136
58.200       133
58.250       163
58.300        91
58.350       160
58.400       139
58.450       184
58.500       155
58.550       123
58.600       139
58.650       115
58.700       139
58.750       149
58.800       136
58.850       112
58.900       136
58.950       165
59.000       144
59.050        93
59.100       120
59.150       120
59.200       117
59.250       112
59.300       165
59.350       144
59.400       125
59.450       144
59.500       163
59.550       128
59.600       133
59.650       144
59.700       168
59.750       125
59.800       147
59.850       165
59.900       131
59.950        35
60.000        35
