20.000        50
20.020        50
20.040        70
20.060        33
20.080        40
20.100        60
20.120        60
20.140        33
20.160        60
20.180        57
20.200        33
20.220        60
20.240        47
20.260        60
20.280        43
20.300        57
20.320        43
20.340        50
20.360        33
20.380        43
20.400        30
20.420        50
20.440        63
20.460        47
20.480        60
20.500        50
20.520        53
20.540        47
20.560        50
20.580        60
20.600        50
20.620        53
20.640        50
20.660        50
20.680        33
20.700        57
20.720        47
20.740        53
20.760        40
20.780        37
20.800        43
20.820        53
20.840        33
20.860        50
20.880        73
20.900        47
20.920        47
20.940        33
20.960        63
20.980        77
21.000        37
21.020        43
21.040        47
21.060        37
21.080        50
21.100        37
21.120        50
21.140        60
21.160        63
21.180        40
21.200        30
21.220        63
21.240        37
21.260        47
21.280        50
21.300        47
21.320        67
21.340        53
21.360        63
21.380        73
21.400        63
21.420        47
21.440        30
21.460        47
21.480        53
21.500        30
21.520        67
21.540        50
21.560        40
21.580        40
21.600        63
21.620        30
21.640        40
21.660        33
21.680        47
21.700        53
21.720        40
21.740        20
21.760        40
21.780        47
21.800        63
21.820        47
21.840        33
21.860        67
21.880        47
21.900        60
21.920        53
21.940        60
21.960        40
21.980        27
22.000        47
22.020        47
22.040        53
22.060        57
22.080        37
22.100        47
22.120        30
22.140        57
22.160        33
22.180        57
22.200        73
22.220        57
22.240        53
22.260        37
22.280        80
22.300        93
22.320        70
22.340        97
22.360        87
22.380        83
22.400       113
22.420        80
22.440        87
22.460        90
22.480        80
22.500       107
22.520        50
22.540        57
22.560        90
22.580        77
22.600        50
22.620        83
22.640        90
22.660        53
22.680        70
22.700        70
22.720        53
22.740        63
22.760        57
22.780        40
22.800        37
22.820        50
22.840        57
22.860        57
22.880        47
22.900        43
22.920        43
22.940        53
22.960        67
22.980        53
23.000        60
23.020        67
23.040        47
23.060        67
23.080        50
23.100        63
23.120        43
23.140        63
23.160        50
23.180        37
23.200        33
23.220        23
23.240        50
23.260        30
23.280        47
23.300        50
23.320        40
23.340        67
23.360        37
23.380        57
23.400        43
23.420        60
23.440        27
23.460        57
23.480        40
23.500        63
23.520        63
23.540        53
23.560        40
23.580        60
23.600        43
23.620        50
23.640        33
23.660        33
23.680        63
23.700        63
23.720        57
23.740        43
23.760        47
23.780        40
23.800        50
23.820        20
23.840        63
23.860        40
23.880        53
23.900        50
23.920        53
23.940        47
23.960        37
23.980        37
24.000        60
24.020        50
24.040        50
24.060        37
24.080        53
24.100        40
24.120        43
24.140        40
24.160        30
24.180        33
24.200        33
24.220        33
24.240        50
24.260        50
24.280        43
24.300        37
24.320        57
24.340        40
24.360        37
24.380        37
24.400        27
24.420        57
24.440        40
24.460        37
24.480        30
24.500        60
24.520        37
24.540        33
24.560        53
24.580        57
24.600        43
24.620        40
24.640        50
24.660        77
24.680        47
24.700        30
24.720        50
24.740        70
24.760        77
24.780       100
24.800       103
24.820        90
24.840        90
24.860       100
24.880        83
24.900        90
24.920       103
24.940        80
24.960        77
24.980        83
25.000        40
25.020        60
25.040        43
25.060        60
25.080        73
25.100        67
25.120        53
25.140        63
25.160        63
25.180        40
25.200        70
25.220        77
25.240        70
25.260        67
25.280        57
25.300        90
25.320        50
25.340       103
25.360       107
25.380       210
25.400       453
25.420       690
25.440      1166
25.460      1579
25.480      1863
25.500      1856
25.520      2199
25.540      1983
25.560      1759
25.580      1316
25.600      1233
25.620      1100
25.640      1233
25.660      1306
25.680      1513
25.700      1110
25.720       720
25.740       753
25.760       576
25.780       260
25.800       113
25.820        93
25.840        97
25.860        80
25.880        67
25.900        80
25.920        63
25.940        67
25.960        83
25.980        73
26.000        73
26.020        57
26.040        80
26.060        50
26.080        53
26.100        60
26.120        73
26.140        47
26.160        50
26.180        60
26.200        50
26.220        50
26.240        40
26.260        47
26.280        60
26.300        53
26.320        60
26.340        53
26.360        60
26.380        87
26.400        53
26.420        70
26.440        50
26.460        60
26.480        77
26.500        53
26.520        47
26.540        60
26.560        23
26.580        63
26.600        63
26.620        60
26.640        67
26.660        57
26.680        40
26.700        50
26.720        53
26.740        60
26.760        67
26.780        53
26.800        77
26.820        70
26.840        63
26.860        43
26.880        43
26.900        53
26.920        60
26.940        57
26.960        60
26.980        60
27.000        30
27.020        40
27.040        73
27.060        63
27.080        50
27.100        77
27.120        60
27.140        73
27.160        50
27.180        63
27.200        53
27.220        60
27.240        40
27.260        73
27.280        87
27.300        57
27.320        50
27.340        63
27.360        57
27.380        60
27.400        57
27.420        80
27.440        80
27.460        43
27.480        33
27.500        53
27.520        80
27.540        77
27.560        80
27.580        87
27.600        50
27.620        63
27.640        33
27.660        83
27.680        50
27.700        63
27.720        70
27.740        70
27.760        80
27.780        83
27.800        73
27.820        53
27.840        87
27.860        87
27.880        80
27.900        57
27.920        90
27.940        40
27.960        87
27.980        90
28.000        90
28.020        57
28.040        47
28.060        53
28.080        67
28.100        73
28.120        63
28.140        60
28.160        70
28.180        70
28.200        83
28.220        63
28.240        87
28.260        77
28.280        57
28.300        83
28.320        63
28.340        90
28.360        43
28.380        43
28.400        80
28.420        90
28.440        87
28.460        90
28.480        77
28.500        67
28.520       143
28.540        87
28.560       107
28.580       107
28.600        70
28.620       113
28.640        73
28.660        63
28.680        83
28.700        93
28.720        80
28.740        63
28.760       107
28.780        53
28.800        80
28.820        47
28.840        73
28.860       100
28.880       100
28.900       117
28.920        70
28.940        93
28.960        70
28.980       100
29.000        70
29.020        77
29.040       117
29.060        80
29.080        83
29.100        80
29.120        87
29.140        70
29.160        80
29.180       100
29.200       117
29.220       120
29.240        93
29.260       160
29.280       107
29.300       127
29.320       180
29.340       113
29.360       173
29.380       157
29.400       167
29.420       210
29.440       170
29.460       157
29.480       100
29.500       147
29.520       117
29.540        87
29.560        93
29.580       133
29.600       120
29.620        77
29.640       110
29.660        77
29.680        47
29.700        77
29.720        77
29.740        80
29.760        70
29.780       113
29.800        97
29.820        93
29.840        67
29.860        87
29.880        67
29.900        83
29.920        77
29.940       100
29.960        87
29.980        70
30.000        60
30.020        57
30.040        93
30.060       103
30.080        63
30.100       100
30.120        60
30.140        77
30.160        50
30.180        53
30.200       123
30.220        77
30.240        57
30.260        80
30.280       113
30.300       113
30.320       110
30.340        70
30.360        93
30.380        83
30.400        90
30.420       103
30.440        77
30.460        87
30.480       107
30.500        93
30.520       107
30.540        87
30.560        97
30.580        67
30.600       110
30.620        87
30.640       113
30.660       103
30.680       103
30.700        73
30.720       113
30.740        87
30.760        77
30.780       103
30.800       127
30.820       113
30.840       103
30.860       103
30.880       117
30.900        87
30.920       117
30.940       113
30.960        87
30.980        83
31.000        93
31.020       107
31.040        97
31.060        90
31.080       107
31.100        93
31.120        93
31.140        73
31.160        97
31.180       103
31.200       110
31.220       107
31.240       107
31.260       150
31.280       117
31.300        87
31.320        83
31.340       147
31.360       117
31.380       130
31.400       143
31.420        77
31.440       107
31.460       113
31.480       107
31.500       127
31.520       103
31.540        83
31.560        90
31.580        93
31.600       120
31.620       113
31.640       113
31.660       110
31.680       107
31.700       127
31.720       117
31.740       107
31.760       130
31.780       130
31.800       117
31.820       150
31.840       170
31.860       180
31.880       180
31.900       190
31.920       200
31.940       200
31.960       233
31.980       177
32.000       280
32.020       187
32.040       203
32.060       193
32.080       207
32.100       197
32.120       203
32.140       170
32.160       210
32.180       150
32.200       143
32.220       170
32.240       140
32.260       130
32.280       183
32.300       140
32.320       143
32.340       153
32.360       130
32.380       107
32.400       127
32.420       130
32.440       120
32.460       107
32.480       103
32.500       120
32.520       147
32.540        83
32.560       100
32.580        90
32.600        97
32.620        83
32.640       127
32.660       120
32.680       127
32.700        97
32.720       117
32.740        97
32.760       137
32.780       107
32.800       130
32.820        90
32.840       127
32.860        83
32.880        87
32.900       123
32.920        93
32.940        93
32.960       100
32.980        93
33.000        90
33.020        77
33.040        97
33.060       103
33.080        73
33.100        67
33.120       113
33.140        73
33.160        90
33.180        87
33.200        73
33.220        90
33.240        97
33.260        80
33.280        97
33.300        73
33.320        73
33.340        73
33.360        77
33.380        67
33.400       107
33.420        83
33.440        90
33.460        60
33.480        73
33.500        60
33.520       120
33.540        80
33.560        97
33.580       130
33.600        80
33.620       110
33.640        47
33.660        60
33.680        73
33.700        97
33.720        97
33.740        90
33.760        97
33.780        70
33.800        93
33.820        83
33.840        90
33.860        87
33.880        83
33.900        97
33.920        67
33.940        67
33.960       107
33.980       100
34.000        87
34.020        77
34.040        73
34.060        60
34.080        93
34.100       120
34.120        73
34.140        50
34.160        77
34.180        60
34.200       103
34.220        77
34.240        80
34.260       103
34.280        80
34.300        87
34.320        93
34.340        77
34.360        87
34.380        77
34.400        80
34.420        60
34.440        47
34.460        67
34.480       107
34.500        70
34.520       107
34.540        60
34.560        63
34.580        70
34.600        53
34.620        70
34.640        77
34.660        87
34.680        80
34.700        77
34.720        53
34.740        80
34.760        87
34.780        90
34.800        93
34.820        77
34.840        93
34.860        70
34.880        87
34.900        70
34.920        73
34.940        87
34.960        90
34.980        70
35.000        67
35.020        77
35.040        60
35.060        87
35.080        77
35.100        80
35.120        70
35.140       100
35.160        73
35.180       100
35.200        67
35.220        67
35.240        47
35.260        63
35.280        83
35.300       100
35.320        57
35.340        57
35.360        50
35.380        60
35.400        60
35.420        77
35.440        97
35.460        57
35.480        87
35.500        73
35.520        47
35.540        63
35.560        47
35.580        60
35.600        60
35.620        87
35.640        50
35.660        90
35.680        60
35.700        53
35.720        63
35.740        73
35.760        80
35.780        83
35.800        90
35.820        87
35.840        80
35.860        70
35.880        67
35.900        70
35.920        67
35.940        80
35.960        80
35.980        83
36.000       107
36.020        53
36.040        77
36.060        67
36.080        73
36.100        93
36.120        70
36.140        67
36.160        57
36.180        57
36.200        43
36.220        97
36.240        70
36.260        73
36.280        93
36.300        57
36.320        57
36.340        47
36.360        40
36.380        83
36.400        47
36.420        60
36.440        60
36.460        53
36.480        70
36.500        37
36.520        63
36.540        50
36.560        63
36.580        50
36.600        70
36.620        63
36.640        47
36.660        63
36.680        30
36.700        60
36.720        67
36.740        53
36.760        63
36.780        63
36.800        40
36.820        67
36.840        67
36.860        33
36.880        63
36.900        57
36.920        53
36.940        47
36.960        67
36.980        57
37.000        67
37.020        53
37.040        67
37.060        40
37.080        43
37.100        60
37.120        77
37.140        70
37.160        67
37.180        33
37.200        67
37.220        40
37.240        53
37.260        17
37.280        53
37.300        47
37.320        47
37.340        40
37.360        67
37.380        47
37.400        90
37.420        60
37.440        43
37.460        50
37.480        63
37.500        87
37.520        77
37.540        60
37.560        47
37.580        53
37.600        47
37.620        60
37.640        27
37.660        30
37.680        90
37.700        63
37.720        33
37.740        70
37.760        37
37.780        63
37.800        50
37.820        57
37.840        53
37.860        63
37.880        57
37.900        37
37.920        53
37.940        53
37.960        50
37.980        50
38.000        27
38.020        57
38.040        63
38.060        33
38.080        53
38.100        57
38.120        60
38.140        47
38.160        47
38.180        60
38.200        63
38.220        43
38.240        87
38.260        50
38.280        67
38.300        60
38.320        40
38.340        53
38.360        60
38.380        43
38.400        60
38.420        73
38.440        73
38.460        57
38.480        33
38.500        37
38.520        77
38.540        73
38.560        37
38.580        33
38.600        63
38.620        57
38.640        73
38.660        70
38.680        43
38.700        57
38.720        33
38.740        67
38.760        47
38.780        53
38.800        43
38.820        50
38.840        53
38.860        40
38.880        43
38.900        43
38.920        43
38.940        50
38.960        43
38.980        60
39.000        73
39.020        47
39.040        67
39.060        47
39.080        80
39.100        77
39.120        60
39.140        63
39.160        50
39.180        47
39.200        43
39.220        57
39.240        60
39.260        93
39.280        77
39.300        77
39.320       100
39.340        77
39.360       103
39.380       107
39.400       110
39.420       140
39.440       130
39.460       127
39.480       110
39.500        93
39.520       123
39.540        53
39.560        77
39.580       117
39.600        83
39.620        80
39.640        47
39.660        67
39.680        80
39.700        63
39.720        43
39.740        53
39.760        43
39.780        57
39.800        43
39.820        70
39.840        57
39.860        30
39.880        67
39.900        63
39.920        63
39.940        57
39.960        47
39.980        63
40.000        57
40.020        57
40.040        53
40.060        50
40.080        63
40.100        47
40.120        53
40.140        60
40.160        53
40.180        43
40.200        43
40.220        40
40.240        40
40.260        50
40.280        27
40.300        37
40.320        30
40.340        33
40.360        53
40.380        37
40.400        53
40.420        50
40.440        50
40.460        53
40.480        63
40.500        33
40.520        27
40.540        43
40.560        60
40.580        20
40.600        47
40.620        40
40.640        40
40.660        57
40.680        47
40.700        33
40.720        40
40.740        63
40.760        33
40.780        47
40.800        33
40.820        50
40.840        27
40.860        60
40.880        37
40.900        23
40.920        43
40.940        50
40.960        27
40.980        27
41.000        37
41.020        50
41.040        63
41.060        50
41.080        43
41.100        33
41.120        37
41.140        43
41.160        57
41.180        40
41.200        47
41.220        40
41.240        40
41.260        60
41.280        30
41.300        50
41.320        47
41.340        53
41.360        43
41.380        43
41.400        53
41.420        53
41.440        47
41.460        27
41.480        27
41.500        20
41.520        40
41.540        63
41.560        50
41.580        47
41.600        57
41.620        73
41.640        23
41.660        33
41.680        30
41.700        50
41.720        60
41.740        57
41.760        47
41.780        57
41.800        47
41.820        30
41.840        33
41.860        33
41.880        40
41.900        40
41.920        43
41.940        17
41.960        57
41.980        37
42.000        50
42.020        57
42.040        33
42.060        20
42.080        43
42.100        67
42.120        47
42.140        37
42.160        40
42.180        60
42.200        40
42.220        43
42.240        67
42.260        43
42.280        43
42.300        43
42.320        43
42.340        57
42.360        47
42.380        20
42.400        23
42.420        33
42.440        50
42.460        40
42.480        37
42.500        37
42.520        33
42.540        37
42.560        50
42.580        20
42.600        47
42.620        27
42.640        43
42.660        37
42.680        30
42.700        47
42.720        33
42.740        33
42.760        33
42.780        37
42.800        37
42.820        37
42.840        27
42.860        50
42.880        50
42.900        53
42.920        67
42.940        47
42.960        77
42.980        47
43.000        20
43.020        47
43.040        57
43.060        30
43.080        70
43.100        57
43.120        87
43.140        47
43.160        83
43.180        53
43.200        67
43.220        73
43.240        70
43.260        63
43.280        37
43.300        43
43.320        40
43.340        57
43.360        20
43.380        33
43.400        37
43.420        37
43.440        33
43.460        33
43.480        40
43.500        30
43.520        47
43.540        37
43.560        53
43.580        47
43.600        20
43.620        43
43.640        53
43.660        70
43.680        43
43.700        27
43.720        43
43.740        37
43.760        40
43.780        30
43.800        57
43.820        53
43.840        20
43.860        50
43.880        43
43.900        33
43.920        37
43.940        40
43.960        37
43.980        27
44.000        50
44.020        43
44.040        47
44.060        30
44.080        40
44.100        37
44.120        30
44.140        27
44.160        37
44.180        23
44.200        43
44.220        43
44.240        27
44.260        43
44.280        43
44.300        43
44.320        53
44.340        43
44.360        40
44.380        37
44.400        33
44.420        53
44.440        33
44.460        43
44.480        40
44.500        23
44.520        40
44.540        23
44.560        50
44.580        37
44.600        50
44.620        40
44.640        47
44.660        43
44.680        47
44.700        40
44.720        47
44.740        40
44.760        70
44.780        50
44.800        53
44.820        30
44.840        33
44.860        47
44.880        43
44.900        70
44.920        43
44.940        57
44.960        33
44.980        70
45.000        50
45.020        53
45.040        67
45.060        47
45.080        67
45.100        67
45.120        53
45.140        60
45.160        37
45.180        67
45.200       110
45.220        87
45.240       100
45.260        90
45.280       137
45.300       100
45.320       107
45.340       120
45.360       103
45.380       137
45.400       100
45.420        83
45.440        93
45.460       113
45.480       147
45.500       147
45.520       160
45.540       137
45.560       153
45.580       177
45.600       163
45.620       187
45.640       173
45.660       177
45.680       163
45.700       173
45.720       227
45.740       230
45.760       200
45.780       193
45.800       300
45.820       180
45.840       237
45.860       197
45.880       243
45.900       157
45.920       190
45.940       170
45.960       180
45.980       177
46.000       130
46.020       140
46.040       173
46.060       170
46.080       153
46.100       180
46.120       187
46.140       130
46.160       130
46.180       110
46.200       103
46.220       120
46.240       100
46.260       123
46.280       107
46.300       107
46.320       100
46.340        73
46.360        70
46.380        97
46.400        60
46.420        77
46.440        80
46.460        90
46.480        60
46.500        60
46.520       113
46.540        63
46.560        57
46.580        83
46.600        57
46.620        67
46.640        40
46.660        57
46.680        50
46.700        47
46.720        70
46.740        70
46.760        50
46.780        47
46.800        30
46.820        67
46.840        73
46.860        60
46.880        63
46.900        60
46.920        73
46.940        80
46.960        67
46.980        63
47.000        97
47.020        97
47.040        93
47.060       100
47.080        87
47.100       100
47.120        90
47.140       130
47.160       180
47.180       180
47.200       313
47.220       563
47.240       763
47.260       926
47.280       810
47.300       423
47.320       333
47.340       147
47.360       113
47.380       113
47.400        77
47.420       100
47.440       100
47.460       110
47.480        97
47.500       110
47.520       107
47.540       130
47.560        87
47.580        67
47.600        87
47.620       103
47.640        97
47.660        43
47.680        80
47.700        47
47.720        60
47.740        67
47.760        73
47.780        63
47.800        43
47.820        40
47.840        33
47.860        50
47.880        73
47.900        73
47.920        40
47.940        33
47.960        60
47.980        63
48.000        43
48.020        53
48.040        53
48.060        27
48.080        43
48.100        63
48.120        57
48.140        37
48.160        53
48.180        53
48.200        57
48.220        23
48.240        33
48.260        37
48.280        33
48.300        47
48.320        80
48.340        83
48.360        90
48.380       100
48.400        60
48.420        47
48.440        63
48.460        37
48.480       100
48.500        80
48.520        70
48.540        53
48.560        63
48.580        90
48.600       100
48.620        33
48.640        40
48.660        37
48.680        37
48.700        50
48.720        47
48.740        23
48.760        50
48.780        37
48.800        53
48.820        33
48.840        37
48.860        40
48.880        40
48.900        13
48.920        53
48.940        23
48.960        40
48.980        47
49.000        47
49.020        33
49.040        43
49.060        43
49.080        23
49.100        43
49.120        50
49.140        37
49.160        33
49.180        27
49.200        37
49.220        40
49.240        43
49.260        43
49.280        50
49.300        37
49.320        30
49.340        50
49.360        50
49.380        83
49.400        53
49.420        33
49.440        60
49.460        37
49.480        30
49.500        20
49.520        53
49.540        50
49.560        43
49.580        33
49.600        27
49.620        33
49.640        37
49.660        40
49.680        33
49.700        47
49.720        40
49.740        20
49.760        23
49.780        23
49.800        23
49.820        27
49.840        33
49.860        50
49.880        67
49.900        30
49.920        50
49.940        60
49.960        17
49.980        47
50.000        30
50.020        37
50.040        33
50.060        30
50.080        27
50.100        27
50.120        30
50.140        30
50.160        20
50.180        27
50.200        30
50.220        40
50.240        30
50.260        50
50.280        60
50.300        27
50.320        40
50.340        33
50.360        50
50.380        20
50.400        47
50.420        37
50.440        37
50.460        40
50.480        53
50.500        37
50.520        40
50.540        30
50.560        37
50.580        43
50.600        50
50.620        43
50.640        53
50.660        70
50.680        90
50.700        87
50.720       120
50.740       150
50.760       157
50.780       240
50.800       180
50.820       247
50.840       210
50.860       250
50.880       167
50.900       223
50.920       187
50.940       223
50.960       210
50.980       237
51.000       263
51.020       253
51.040       257
51.060       257
51.080       220
51.100       237
51.120       207
51.140       193
51.160       263
51.180       177
51.200       193
51.220       187
51.240       193
51.260       210
51.280       220
51.300       193
51.320       223
51.340       243
51.360       230
51.380       257
51.400       203
51.420       203
51.440       220
51.460       197
51.480       200
51.500       193
51.520       200
51.540       237
51.560       193
51.580       320
51.600       220
51.620       233
51.640       227
51.660       203
51.680       230
51.700       213
51.720       277
51.740       293
51.760       263
51.780       227
51.800       200
51.820       223
51.840       243
51.860       283
51.880       240
51.900       280
51.920       263
51.940       270
51.960       243
51.980       223
52.000       290
52.020       357
52.040       327
52.060       290
52.080       300
52.100       377
52.120       323
52.140       347
52.160       350
52.180       370
52.200       403
52.220       473
52.240       420
52.260       533
52.280       493
52.300       710
52.320       730
52.340       993
52.360      1436
52.380      1996
52.400      2442
52.420      3445
52.440      4202
52.460      4768
52.480      5261
52.500      5584
52.520      6324
52.540      6997
52.560      9360
52.580     14261
52.600     31887
52.620     67330
52.640     96215
52.660    103685
52.680     82757
52.700     43836
52.720     20782
52.740     21488
52.760     37222
52.780     52449
52.800     56018
52.820     42846
52.840     22258
52.860      8910
52.880      4492
52.900      2925
52.920      2019
52.940      1486
52.960      1393
52.980      1073
53.000       940
53.020       743
53.040       666
53.060       606
53.080       526
53.100       526
53.120       503
53.140       506
53.160       473
53.180       443
53.200       413
53.220       430
53.240       433
53.260       397
53.280       337
53.300       323
53.320       340
53.340       310
53.360       327
53.380       337
53.400       317
53.420       313
53.440       303
53.460       293
53.480       230
53.500       277
53.520       290
53.540       223
53.560       260
53.580       243
53.600       210
53.620       267
53.640       217
53.660       210
53.680       223
53.700       247
53.720       237
53.740       230
53.760       183
53.780       207
53.800       257
53.820       220
53.840       210
53.860       233
53.880       200
53.900       227
53.920       190
53.940       190
53.960       217
53.980       180
54.000       197
54.020       157
54.040       183
54.060       190
54.080       227
54.100       183
54.120       187
54.140       163
54.160       163
54.180       180
54.200       153
54.220       190
54.240       163
54.260       157
54.280       170
54.300       203
54.320       220
54.340       183
54.360       137
54.380       203
54.400       157
54.420       130
54.440       213
54.460       167
54.480       163
54.500       160
54.520       143
54.540       157
54.560       177
54.580       150
54.600       150
54.620       167
54.640       180
54.660       167
54.680       147
54.700       177
54.720       200
54.740       127
54.760       153
54.780       127
54.800       107
54.820       187
54.840       137
54.860       160
54.880       177
54.900       157
54.920       180
54.940       150
54.960       150
54.980       147
55.000       117
55.020       193
55.040       140
55.060       133
55.080       133
55.100       167
55.120       127
55.140       147
55.160       140
55.180       137
55.200       150
55.220       153
55.240       167
55.260       133
55.280       143
55.300       147
55.320       120
55.340       153
55.360       167
55.380       183
55.400       170
55.420       147
55.440       163
55.460       177
55.480       143
55.500       130
55.520       150
55.540       150
55.560       127
55.580       167
55.600       127
55.620       140
55.640       147
55.660       123
55.680       147
55.700       130
55.720       163
55.740       120
55.760       140
55.780       160
55.800       127
55.820       130
55.840       147
55.860       167
55.880       113
55.900       140
55.920       123
55.940       113
55.960       150
55.980        93
56.000       143
56.020       150
56.040       103
56.060       113
56.080       117
56.100       130
56.120        90
56.140        90
56.160        93
56.180       130
56.200       143
56.220       120
56.240       103
56.260       113
56.280        87
56.300       170
56.320       130
56.340        90
56.360       100
56.380       113
56.400       100
56.420       140
56.440       100
56.460       127
56.480       123
56.500        97
56.520       153
56.540       160
56.560       113
56.580       123
56.600       153
56.620       133
56.640       137
56.660       110
56.680       110
56.700       133
56.720       157
56.740       147
56.760       153
56.780       137
56.800        83
56.820       153
56.840       187
56.860       107
56.880       123
56.900       157
56.920       147
56.940       103
56.960       140
56.980       107
57.000       130
57.020       160
57.040       113
57.060       133
57.080       127
57.100       147
57.120       113
57.140       173
57.160       117
57.180       147
57.200       137
57.220       117
57.240       107
57.260       120
57.280       103
57.300       167
57.320       107
57.340       163
57.360       147
57.380       170
57.400       117
57.420       120
57.440       110
57.460        93
57.480        97
57.500       133
57.520       123
57.540       133
57.560       107
57.580       103
57.600        87
57.620       123
57.640        97
57.660        67
57.680        93
57.700       100
57.720       127
57.740       117
57.760        73
57.780       113
57.800        73
57.820        73
57.840       123
57.860        83
57.880        83
57.900       113
57.920        90
57.940        90
57.960       100
57.980       110
58.000       117
58.020       120
58.040       107
58.060       103
58.080        93
58.100        97
58.120        77
58.140       117
58.160       127
58.180        97
58.200        87
58.220        83
58.240       107
58.260       127
58.280        93
58.300        87
58.320        93
58.340        67
58.360       103
58.380        90
58.400        80
58.420        97
58.440       110
58.460        97
58.480        70
58.500       107
58.520        87
58.540        83
58.560       110
58.580        93
58.600        70
58.620       103
58.640       100
58.660        73
58.680        80
58.700        73
58.720        83
58.740        53
58.760       113
58.780       113
58.800        93
58.820        93
58.840        93
58.860       103
58.880        80
58.900        53
58.920        77
58.940        80
58.960        73
58.980       123
59.000        60
59.020        83
59.040        80
59.060       100
59.080        83
59.100        73
59.120        50
59.140        87
59.160       103
59.180       107
59.200        87
59.220        77
59.240        77
59.260        67
59.280        90
59.300        87
59.320        77
59.340        77
59.360        67
59.380        60
59.400       107
59.420       100
59.440        77
59.460        90
59.480        97
59.500        80
59.520       113
59.540        80
59.560       103
59.580        70
59.600        87
59.620        67
59.640        73
59.660       100
59.680        73
59.700        83
59.720        83
59.740        73
59.760        77
59.780        57
59.800       117
59.820        90
59.840        93
59.860        83
59.880        90
59.900        83
59.920        77
59.940        77
59.960        93
59.980        67
60.000        90
