20.000         0
20.020         0
20.040         0
20.060         0
20.080         0
20.100         0
20.120         0
20.140         0
20.160         0
20.180         0
20.200         0
20.220         0
20.240         0
20.260         0
20.280         0
20.300         0
20.320         0
20.340         0
20.360         0
20.380         0
20.400         0
20.420         7
20.440         0
20.460         0
20.480         0
20.500         0
20.520        27
20.540        73
20.560        53
20.580        40
20.600        20
20.620        40
20.640        13
20.660        47
20.680        20
20.700        73
20.720        60
20.740        47
20.760        60
20.780        47
20.800        33
20.820        33
20.840        53
20.860        47
20.880        47
20.900        53
20.920        53
20.940        73
20.960        47
20.980        53
21.000        53
21.020        40
21.040        33
21.060        87
21.080        40
21.100        47
21.120        13
21.140        40
21.160        67
21.180        40
21.200        40
21.220        80
21.240        47
21.260        67
21.280        47
21.300        73
21.320        33
21.340        53
21.360        40
21.380        33
21.400        33
21.420        67
21.440        40
21.460        60
21.480        33
21.500        40
21.520        53
21.540        40
21.560        53
21.580        33
21.600        47
21.620        67
21.640        27
21.660        40
21.680        20
21.700        33
21.720        47
21.740        27
21.760         7
21.780        40
21.800        53
21.820        33
21.840        80
21.860         0
21.880        73
21.900        40
21.920        87
21.940        33
21.960        40
21.980        60
22.000        60
22.020        80
22.040        27
22.060        47
22.080        20
22.100        27
22.120        40
22.140        60
22.160        53
22.180        27
22.200        73
22.220        60
22.240        40
22.260        53
22.280        87
22.300        33
22.320        27
22.340        67
22.360        80
22.380        27
22.400        67
22.420       107
22.440       133
22.460        67
22.480       113
22.500        93
22.520       100
22.540        93
22.560        93
22.580       127
22.600       107
22.620       160
22.640        80
22.660       173
22.680       113
22.700        87
22.720        60
22.740        87
22.760       100
22.780        67
22.800        67
22.820        53
22.840        80
22.860        47
22.880        60
22.900        40
22.920        60
22.940        47
22.960        33
22.980        40
23.000        53
23.020        40
23.040        40
23.060        87
23.080        13
23.100        47
23.120        13
23.140         7
23.160        40
23.180        27
23.200        60
23.220        40
23.240        47
23.260        33
23.280        53
23.300        33
23.320        33
23.340        13
23.360        87
23.380        47
23.400        47
23.420        60
23.440        20
23.460        27
23.480         7
23.500        27
23.520        33
23.540        47
23.560        60
23.580        40
23.600        53
23.620        53
23.640        40
23.660        13
23.680        47
23.700        33
23.720        60
23.740        27
23.760        27
23.780        53
23.800        20
23.820        20
23.840        40
23.860        60
23.880        13
23.900        33
23.920        67
23.940        20
23.960        27
23.980        27
24.000        33
24.020        53
24.040        40
24.060        67
24.080        40
24.100        47
24.120        53
24.140        53
24.160        47
24.180        33
24.200        40
24.220        53
24.240        27
24.260        40
24.280        27
24.300        60
24.320        47
24.340        33
24.360        40
24.380        33
24.400        27
24.420        40
24.440        20
24.460        60
24.480        20
24.500        20
24.520         0
24.540        27
24.560        33
24.580         7
24.600        47
24.620        60
24.640        60
24.660        27
24.680        27
24.700        20
24.720        53
24.740        33
24.760        40
24.780        27
24.800        33
24.820        53
24.840        20
24.860        33
24.880        40
24.900        40
24.920        33
24.940        33
24.960        27
24.980        27
25.000        87
25.020        27
25.040        20
25.060        67
25.080        53
25.100        20
25.120        53
25.140        27
25.160        33
25.180        40
25.200        33
25.220        40
25.240        47
25.260        53
25.280        27
25.300        27
25.320        40
25.340        53
25.360        53
25.380         7
25.400        53
25.420        33
25.440        27
25.460        27
25.480        53
25.500        27
25.520        33
25.540        40
25.560        27
25.580       127
25.600        73
25.620       107
25.640       127
25.660       100
25.680        73
25.700        67
25.720        73
25.740        20
25.760        33
25.780        53
25.800        40
25.820        47
25.840        60
25.860        47
25.880        20
25.900        27
25.920        33
25.940        27
25.960        33
25.980        73
26.000        53
26.020        20
26.040        27
26.060        20
26.080        33
26.100        20
26.120        27
26.140        33
26.160        33
26.180        33
26.200        40
26.220        53
26.240        33
26.260        40
26.280        40
26.300        33
26.320        40
26.340        53
26.360        20
26.380        33
26.400        40
26.420        60
26.440        20
26.460        53
26.480        47
26.500        27
26.520        40
26.540        40
26.560        40
26.580        33
26.600         7
26.620        40
26.640        53
26.660        27
26.680        33
26.700        47
26.720        20
26.740        47
26.760        53
26.780        80
26.800        40
26.820        33
26.840        27
26.860        80
26.880        40
26.900        27
26.920        20
26.940        20
26.960        13
26.980        53
27.000        27
27.020        60
27.040        20
27.060        20
27.080        20
27.100        27
27.120        40
27.140        40
27.160        53
27.180        47
27.200        33
27.220        20
27.240        40
27.260        20
27.280        33
27.300        20
27.320        47
27.340        27
27.360        13
27.380        53
27.400        40
27.420        33
27.440        27
27.460         7
27.480        27
27.500        40
27.520        40
27.540        40
27.560        27
27.580        13
27.600        53
27.620        27
27.640        13
27.660        40
27.680        27
27.700        20
27.720        20
27.740        47
27.760        33
27.780        40
27.800        60
27.820        20
27.840        27
27.860        20
27.880        40
27.900        40
27.920        33
27.940        33
27.960        47
27.980        13
28.000        40
28.020        40
28.040        40
28.060        27
28.080         7
28.100         7
28.120        27
28.140        33
28.160        33
28.180        53
28.200        40
28.220        60
28.240        40
28.260        40
28.280        33
28.300        40
28.320         7
28.340        53
28.360        47
28.380        47
28.400        53
28.420        53
28.440        27
28.460        27
28.480        40
28.500        20
28.520        40
28.540        40
28.560        33
28.580        27
28.600        47
28.620        27
28.640        47
28.660        27
28.680        53
28.700        20
28.720        60
28.740        73
28.760        40
28.780         7
28.800        47
28.820        20
28.840        27
28.860        33
28.880        13
28.900        40
28.920        33
28.940        60
28.960        40
28.980        27
29.000        40
29.020        20
29.040        13
29.060        20
29.080        33
29.100        73
29.120        33
29.140        40
29.160        40
29.180        33
29.200        67
29.220        67
29.240        47
29.260        40
29.280        33
29.300        33
29.320        27
29.340        20
29.360        40
29.380        47
29.400        60
29.420        20
29.440        33
29.460        27
29.480        33
29.500        27
29.520        13
29.540        53
29.560        47
29.580        47
29.600         7
29.620        27
29.640         7
29.660        67
29.680        20
29.700        20
29.720        47
29.740        47
29.760        27
29.780        33
29.800        60
29.820        40
29.840        40
29.860        60
29.880        27
29.900        40
29.920        33
29.940        20
29.960        33
29.980        27
30.000        40
30.020        20
30.040        13
30.060        47
30.080        33
30.100        33
30.120        27
30.140        20
30.160        20
30.180        40
30.200        40
30.220        40
30.240        20
30.260         7
30.280         7
30.300        13
30.320        33
30.340        13
30.360        27
30.380        27
30.400        33
30.420        20
30.440        40
30.460        27
30.480        33
30.500        27
30.520        20
30.540        47
30.560        27
30.580        53
30.600        40
30.620        33
30.640        20
30.660        33
30.680        33
30.700        47
30.720        13
30.740        33
30.760        33
30.780        33
30.800        13
30.820        13
30.840        40
30.860        27
30.880        27
30.900         7
30.920        33
30.940        13
30.960        20
30.980        20
31.000        33
31.020        27
31.040        40
31.060        27
31.080        27
31.100        13
31.120         0
31.140        27
31.160        27
31.180        33
31.200        27
31.220        27
31.240        47
31.260        40
31.280        47
31.300        47
31.320        27
31.340        40
31.360        53
31.380        33
31.400        33
31.420        27
31.440        20
31.460        40
31.480        33
31.500        33
31.520        27
31.540        40
31.560        27
31.580        13
31.600        13
31.620        40
31.640        20
31.660        20
31.680        27
31.700        27
31.720        47
31.740        33
31.760        40
31.780        13
31.800        40
31.820        33
31.840        20
31.860        33
31.880        27
31.900        47
31.920        53
31.940        13
31.960        27
31.980        33
32.000        27
32.020        33
32.040        40
32.060        33
32.080        60
32.100        47
32.120        33
32.140        73
32.160        73
32.180       107
32.200        60
32.220        87
32.240        40
32.260        60
32.280        60
32.300        53
32.320        60
32.340        60
32.360        47
32.380        33
32.400        53
32.420        53
32.440        33
32.460        20
32.480        33
32.500        67
32.520         7
32.540        13
32.560        27
32.580        20
32.600        40
32.620        40
32.640        20
32.660        27
32.680        40
32.700        20
32.720        33
32.740        53
32.760        27
32.780        20
32.800        47
32.820        67
32.840        47
32.860        47
32.880         7
32.900        27
32.920        47
32.940        40
32.960        27
32.980        33
33.000        80
33.020        47
33.040        20
33.060        33
33.080        20
33.100        40
33.120        20
33.140        27
33.160        33
33.180        20
33.200        27
33.220        27
33.240        27
33.260        27
33.280        13
33.300        40
33.320         7
33.340        33
33.360        20
33.380        47
33.400        27
33.420        20
33.440        33
33.460        13
33.480        27
33.500        20
33.520        20
33.540        33
33.560        13
33.580        20
33.600         7
33.620        13
33.640        40
33.660        27
33.680        20
33.700        13
33.720        20
33.740        60
33.760        27
33.780        27
33.800        53
33.820        33
33.840        20
33.860        60
33.880        33
33.900        27
33.920        40
33.940        20
33.960        20
33.980        20
34.000        53
34.020        27
34.040        33
34.060        20
34.080        47
34.100        60
34.120        13
34.140        33
34.160        33
34.180        13
34.200        33
34.220        27
34.240        47
34.260        27
34.280        13
34.300        33
34.320        13
34.340        33
34.360        47
34.380        40
34.400        20
34.420        33
34.440        20
34.460        60
34.480        33
34.500        20
34.520        27
34.540        53
34.560        27
34.580        33
34.600        27
34.620        20
34.640        27
34.660        40
34.680        47
34.700        13
34.720        20
34.740        40
34.760        20
34.780         7
34.800        20
34.820        27
34.840        47
34.860        33
34.880        13
34.900        47
34.920        40
34.940        33
34.960        27
34.980        33
35.000        20
35.020        53
35.040        73
35.060        40
35.080       107
35.100       100
35.120       127
35.140       227
35.160       307
35.180       533
35.200       666
35.220       526
35.240       280
35.260       307
35.280       353
35.300       273
35.320       167
35.340       140
35.360        33
35.380        20
35.400        67
35.420        27
35.440         7
35.460        47
35.480        20
35.500        33
35.520        27
35.540        40
35.560         7
35.580        40
35.600        33
35.620        47
35.640        27
35.660        13
35.680        33
35.700        13
35.720        33
35.740        27
35.760        13
35.780        60
35.800        33
35.820        40
35.840        13
35.860        13
35.880        33
35.900        40
35.920        27
35.940        20
35.960        33
35.980        13
36.000        13
36.020        33
36.040        47
36.060        33
36.080        27
36.100        67
36.120        13
36.140        20
36.160        20
36.180        47
36.200        20
36.220        60
36.240        27
36.260        40
36.280         7
36.300        27
36.320        33
36.340        27
36.360        20
36.380        47
36.400        33
36.420        53
36.440        60
36.460         7
36.480        27
36.500        20
36.520        33
36.540        20
36.560         0
36.580        27
36.600        20
36.620        27
36.640         7
36.660        33
36.680        13
36.700        47
36.720        47
36.740        27
36.760        27
36.780        33
36.800        27
36.820        33
36.840        20
36.860        53
36.880        47
36.900        40
36.920        33
36.940        20
36.960        13
36.980        20
37.000        13
37.020        33
37.040        27
37.060        33
37.080        47
37.100        20
37.120        33
37.140        13
37.160        13
37.180        20
37.200        33
37.220        27
37.240        47
37.260        20
37.280         7
37.300        20
37.320        53
37.340        33
37.360        20
37.380        40
37.400        13
37.420        33
37.440        33
37.460        40
37.480        33
37.500        40
37.520        53
37.540        20
37.560        40
37.580        20
37.600        27
37.620        47
37.640        13
37.660        27
37.680        40
37.700        53
37.720        33
37.740        47
37.760        40
37.780        87
37.800        67
37.820        53
37.840        47
37.860        40
37.880        47
37.900        40
37.920        47
37.940        27
37.960        13
37.980        13
38.000        33
38.020        27
38.040        47
38.060        13
38.080        40
38.100        20
38.120        20
38.140        20
38.160        27
38.180        60
38.200        33
38.220        40
38.240        20
38.260        13
38.280        60
38.300        20
38.320        27
38.340        33
38.360        33
38.380        33
38.400        20
38.420        27
38.440        53
38.460        33
38.480        33
38.500        33
38.520        40
38.540        33
38.560        20
38.580        33
38.600        60
38.620        40
38.640        33
38.660        20
38.680        47
38.700        40
38.720        40
38.740        47
38.760        27
38.780        20
38.800        20
38.820        40
38.840        33
38.860        47
38.880        13
38.900        33
38.920        40
38.940        33
38.960        47
38.980        20
39.000        13
39.020        20
39.040        33
39.060        33
39.080        27
39.100        47
39.120        27
39.140         0
39.160        33
39.180        47
39.200        60
39.220        13
39.240        47
39.260        33
39.280        27
39.300        53
39.320        53
39.340        47
39.360        73
39.380        27
39.400        67
39.420        27
39.440        40
39.460        80
39.480       100
39.500        80
39.520        53
39.540       120
39.560       113
39.580       167
39.600       180
39.620       200
39.640       220
39.660       200
39.680       273
39.700       227
39.720       173
39.740       253
39.760       273
39.780       193
39.800       167
39.820       273
39.840       213
39.860       147
39.880       127
39.900       127
39.920        67
39.940        93
39.960        80
39.980        93
40.000        73
40.020        60
40.040       100
40.060        73
40.080        27
40.100        13
40.120        33
40.140        40
40.160        40
40.180        27
40.200        33
40.220        20
40.240        33
40.260        20
40.280        20
40.300        20
40.320        33
40.340        33
40.360        27
40.380        33
40.400        53
40.420        27
40.440        33
40.460        60
40.480        40
40.500        47
40.520        13
40.540        33
40.560        47
40.580        33
40.600        47
40.620        13
40.640        33
40.660         7
40.680        20
40.700        13
40.720        40
40.740        27
40.760        20
40.780        27
40.800        27
40.820        47
40.840        20
40.860        40
40.880        27
40.900        13
40.920        13
40.940        33
40.960        27
40.980        73
41.000        33
41.020        27
41.040        47
41.060        33
41.080        20
41.100        20
41.120        20
41.140        33
41.160        27
41.180        27
41.200        53
41.220        47
41.240         7
41.260        20
41.280        60
41.300        40
41.320         7
41.340        47
41.360        40
41.380        47
41.400        40
41.420        33
41.440        53
41.460        47
41.480        47
41.500        53
41.520        27
41.540        13
41.560        40
41.580        27
41.600        73
41.620        53
41.640       160
41.660       187
41.680       133
41.700       220
41.720       160
41.740       113
41.760       140
41.780        87
41.800       120
41.820       100
41.840       100
41.860        53
41.880        53
41.900        13
41.920        53
41.940        40
41.960        13
41.980        33
42.000        13
42.020        13
42.040        40
42.060        13
42.080        27
42.100        33
42.120        33
42.140        20
42.160        33
42.180        33
42.200        47
42.220        27
42.240        20
42.260        33
42.280        13
42.300        13
42.320        40
42.340         7
42.360        27
42.380        13
42.400        20
42.420        20
42.440        33
42.460        27
42.480        60
42.500        33
42.520        40
42.540        33
42.560        40
42.580        20
42.600        40
42.620        27
42.640        13
42.660        33
42.680        27
42.700        47
42.720        27
42.740        67
42.760        27
42.780        33
42.800        27
42.820        40
42.840        27
42.860        33
42.880         7
42.900        33
42.920        47
42.940        33
42.960        27
42.980        13
43.000        27
43.020        27
43.040        53
43.060        40
43.080        33
43.100        53
43.120        33
43.140        33
43.160        13
43.180        27
43.200        40
43.220        27
43.240         7
43.260        27
43.280        20
43.300        73
43.320       100
43.340       127
43.360        93
43.380       100
43.400        87
43.420        27
43.440        67
43.460        67
43.480        87
43.500        60
43.520        33
43.540        13
43.560        20
43.580        27
43.600        40
43.620        73
43.640        13
43.660        13
43.680        53
43.700        27
43.720         7
43.740        27
43.760        40
43.780        20
43.800        53
43.820        13
43.840        20
43.860        13
43.880        33
43.900        33
43.920        20
43.940        47
43.960        20
43.980        13
44.000        27
44.020        27
44.040        20
44.060        27
44.080        20
44.100        33
44.120        13
44.140        33
44.160        40
44.180        53
44.200        27
44.220         7
44.240        40
44.260        20
44.280        13
44.300        20
44.320         7
44.340         0
44.360        27
44.380         7
44.400        27
44.420        40
44.440        20
44.460        20
44.480        33
44.500        13
44.520        33
44.540         7
44.560        20
44.580        27
44.600        27
44.620         7
44.640        53
44.660        27
44.680        20
44.700        20
44.720        20
44.740        27
44.760        27
44.780        40
44.800        47
44.820        20
44.840        13
44.860        33
44.880        33
44.900        40
44.920         7
44.940        33
44.960        40
44.980        20
45.000        20
45.020        27
45.040        27
45.060        53
45.080        40
45.100        33
45.120        93
45.140        27
45.160        33
45.180        27
45.200        47
45.220        33
45.240        40
45.260        33
45.280        53
45.300        40
45.320        27
45.340        27
45.360        20
45.380        33
45.400        27
45.420        40
45.440        33
45.460        33
45.480        40
45.500        40
45.520        27
45.540        20
45.560        53
45.580        47
45.600        73
45.620        67
45.640        67
45.660        27
45.680        73
45.700        60
45.720        53
45.740        80
45.760        60
45.780        93
45.800       107
45.820        93
45.840       120
45.860        60
45.880       113
45.900       173
45.920       120
45.940       173
45.960       140
45.980       200
46.000       207
46.020       187
46.040       213
46.060       233
46.080       253
46.100       233
46.120       387
46.140       273
46.160       180
46.180       253
46.200       320
46.220       407
46.240       320
46.260       280
46.280       340
46.300       287
46.320       340
46.340       333
46.360       293
46.380       260
46.400       240
46.420       227
46.440       200
46.460       213
46.480       173
46.500       180
46.520       113
46.540       107
46.560        87
46.580        80
46.600       120
46.620        60
46.640        73
46.660        67
46.680        60
46.700        13
46.720        27
46.740        53
46.760        47
46.780        60
46.800        40
46.820        20
46.840        20
46.860        47
46.880        60
46.900        33
46.920        27
46.940        27
46.960        20
46.980        27
47.000         7
47.020        40
47.040         7
47.060        20
47.080        40
47.100        33
47.120        20
47.140        33
47.160        13
47.180        33
47.200        40
47.220        33
47.240        20
47.260        20
47.280        53
47.300        60
47.320        47
47.340        47
47.360        60
47.380        20
47.400        20
47.420        27
47.440         0
47.460        27
47.480        27
47.500         7
47.520        40
47.540        13
47.560        40
47.580        13
47.600        20
47.620        40
47.640        33
47.660        20
47.680        60
47.700        27
47.720        27
47.740        27
47.760        27
47.780        13
47.800        33
47.820        13
47.840        27
47.860        13
47.880        40
47.900        20
47.920        20
47.940        27
47.960         7
47.980        20
48.000         7
48.020         7
48.040         0
48.060         7
48.080        40
48.100        60
48.120        20
48.140        20
48.160        53
48.180        27
48.200        47
48.220        13
48.240        20
48.260        20
48.280        27
48.300        40
48.320        27
48.340        20
48.360        40
48.380        40
48.400        40
48.420        20
48.440         7
48.460        33
48.480        40
48.500        27
48.520        27
48.540        13
48.560        27
48.580        27
48.600        13
48.620        13
48.640        33
48.660        33
48.680        27
48.700         7
48.720        13
48.740         0
48.760        20
48.780        13
48.800        20
48.820        20
48.840         7
48.860         7
48.880        13
48.900        20
48.920        27
48.940        13
48.960        20
48.980        20
49.000        27
49.020        33
49.040         7
49.060        20
49.080        13
49.100        27
49.120        27
49.140        33
49.160        47
49.180        13
49.200         7
49.220        20
49.240        33
49.260        20
49.280        20
49.300        27
49.320         0
49.340        13
49.360        13
49.380        20
49.400        40
49.420        13
49.440        27
49.460        27
49.480        20
49.500        20
49.520        27
49.540        13
49.560        27
49.580         7
49.600        27
49.620        13
49.640        20
49.660        20
49.680        20
49.700        33
49.720        33
49.740         0
49.760        40
49.780        27
49.800        13
49.820         7
49.840         7
49.860        13
49.880        27
49.900        33
49.920        13
49.940        20
49.960         7
49.980        47
50.000        13
50.020        27
50.040        20
50.060        13
50.080        13
50.100        20
50.120         0
50.140         0
50.160        27
50.180        20
50.200        20
50.220        33
50.240         7
50.260        20
50.280        20
50.300        13
50.320        20
50.340        20
50.360        53
50.380        27
50.400        40
50.420        27
50.440        20
50.460         7
50.480        13
50.500        13
50.520        20
50.540        40
50.560        13
50.580        13
50.600        33
50.620        20
50.640        13
50.660         7
50.680        20
50.700        47
50.720         0
50.740        20
50.760        27
50.780        13
50.800        33
50.820        60
50.840        40
50.860        20
50.880        13
50.900        20
50.920        27
50.940        27
50.960        53
50.980        40
51.000        13
51.020         7
51.040         7
51.060        33
51.080        27
51.100        27
51.120        13
51.140        27
51.160        20
51.180        20
51.200        27
51.220        47
51.240         7
51.260        13
51.280        27
51.300        33
51.320        20
51.340         7
51.360        33
51.380        20
51.400        13
51.420        20
51.440        20
51.460        13
51.480        20
51.500        33
51.520        20
51.540        20
51.560         7
51.580         7
51.600        27
51.620        13
51.640        33
51.660         7
51.680        40
51.700        27
51.720        13
51.740         0
51.760        40
51.780        33
51.800        13
51.820        27
51.840        40
51.860         7
51.880        27
51.900        20
51.920         7
51.940        20
51.960        33
51.980        20
52.000        20
52.020        40
52.040        40
52.060        13
52.080        27
52.100        13
52.120        13
52.140         7
52.160        20
52.180        20
52.200         7
52.220        13
52.240        20
52.260        33
52.280        20
52.300        13
52.320         0
52.340        13
52.360        40
52.380        33
52.400        27
52.420        27
52.440        13
52.460        27
52.480         7
52.500        60
52.520        27
52.540        73
52.560        80
52.580        73
52.600       147
52.620       107
52.640        73
52.660        33
52.680        20
52.700        33
52.720        73
52.740        40
52.760        73
52.780        27
52.800        53
52.820        20
52.840        27
52.860        33
52.880         7
52.900        33
52.920        13
52.940         7
52.960        20
52.980        33
53.000        47
53.020        20
53.040         7
53.060         7
53.080         7
53.100        27
53.120        33
53.140        13
53.160        20
53.180        40
53.200        27
53.220        27
53.240        33
53.260        27
53.280         0
53.300        20
53.320        13
53.340        20
53.360        27
53.380         7
53.400         7
53.420         7
53.440        13
53.460        13
53.480        27
53.500        33
53.520        27
53.540         7
53.560        13
53.580         7
53.600        13
53.620         7
53.640        27
53.660        13
53.680        33
53.700        13
53.720        27
53.740        13
53.760        13
53.780         7
53.800        13
53.820        20
53.840         7
53.860        40
53.880         7
53.900         0
53.920        13
53.940        27
53.960        27
53.980        27
54.000         7
54.020         0
54.040        40
54.060         7
54.080        60
54.100         7
54.120        47
54.140        20
54.160        20
54.180        20
54.200         0
54.220        13
54.240        33
54.260        40
54.280        13
54.300        27
54.320        47
54.340         7
54.360        20
54.380         7
54.400        40
54.420        27
54.440        20
54.460        27
54.480         0
54.500        40
54.520        13
54.540        27
54.560         7
54.580        27
54.600         7
54.620        20
54.640        27
54.660         7
54.680        40
54.700        20
54.720        27
54.740        13
54.760         0
54.780        27
54.800        13
54.820         7
54.840        27
54.860        13
54.880        40
54.900        13
54.920        13
54.940        20
54.960         7
54.980        13
55.000        53
55.020        13
55.040        27
55.060        20
55.080        27
55.100         7
55.120        13
55.140        13
55.160        33
55.180        13
55.200         7
55.220        40
55.240        13
55.260        40
55.280        27
55.300        13
55.320        27
55.340        13
55.360        20
55.380        33
55.400        13
55.420        13
55.440        13
55.460        27
55.480        27
55.500        27
55.520         7
55.540        33
55.560        33
55.580         7
55.600         7
55.620        13
55.640        20
55.660        27
55.680        20
55.700         7
55.720        20
55.740        27
55.760         7
55.780        13
55.800        20
55.820        27
55.840        33
55.860        13
55.880        20
55.900         0
55.920        13
55.940        27
55.960        20
55.980        20
56.000        20
56.020        33
56.040        20
56.060        27
56.080        20
56.100        33
56.120        33
56.140        27
56.160        27
56.180        33
56.200        13
56.220        13
56.240        27
56.260        27
56.280        20
56.300        13
56.320         7
56.340        13
56.360        20
56.380        47
56.400        20
56.420        20
56.440         7
56.460        13
56.480        20
56.500        40
56.520        13
56.540        20
56.560         7
56.580         0
56.600        33
56.620        20
56.640        40
56.660        33
56.680        27
56.700        20
56.720         7
56.740         7
56.760        20
56.780        20
56.800        40
56.820        13
56.840        40
56.860        20
56.880        13
56.900        33
56.920        40
56.940        33
56.960        47
56.980         7
57.000        27
57.020        13
57.040        27
57.060        40
57.080        33
57.100        60
57.120        40
57.140        93
57.160        47
57.180        60
57.200        40
57.220        87
57.240        80
57.260        87
57.280        60
57.300        87
57.320       100
57.340       100
57.360       133
57.380       100
57.400       153
57.420       113
57.440       100
57.460       173
57.480       233
57.500       213
57.520       347
57.540       367
57.560       293
57.580       220
57.600       140
57.620       160
57.640       220
57.660        93
57.680       173
57.700       167
57.720       107
57.740       113
57.760       100
57.780        60
57.800        33
57.820        80
57.840        40
57.860        13
57.880        40
57.900        40
57.920        13
57.940        27
57.960        20
57.980         7
58.000        33
58.020        27
58.040        33
58.060         7
58.080        20
58.100        27
58.120        13
58.140        33
58.160        27
58.180        27
58.200        47
58.220        20
58.240        27
58.260        20
58.280        33
58.300         7
58.320        13
58.340         7
58.360        13
58.380        40
58.400         7
58.420        33
58.440         7
58.460         7
58.480        33
58.500        27
58.520         7
58.540        13
58.560        53
58.580         0
58.600         7
58.620         0
58.640        40
58.660         7
58.680        33
58.700        33
58.720        13
58.740         7
58.760        27
58.780        27
58.800        20
58.820        27
58.840        27
58.860         0
58.880        13
58.900        47
58.920         7
58.940        27
58.960        20
58.980        20
59.000        40
59.020        13
59.040         7
59.060        33
59.080        20
59.100         7
59.120        27
59.140        27
59.160        20
59.180         7
59.200         0
59.220        13
59.240         7
59.260        27
59.280        13
59.300        27
59.320         0
59.340        13
59.360        33
59.380        13
59.400        47
59.420        27
59.440        20
59.460        27
59.480         7
59.500        13
59.520        47
59.540        20
59.560        27
59.580        40
59.600        13
59.620        27
59.640        20
59.660        20
59.680        20
59.700        27
59.720        33
59.740        40
59.760        20
59.780        27
59.800        33
59.820        40
59.840        27
59.860         7
59.880        13
59.900        27
59.920        13
59.940        13
59.960        27
59.980        13
60.000        53
