20.000         0
20.020         0
20.040        33
20.060        43
20.080        65
20.100        55
20.120        50
20.140        37
20.160        42
20.180        47
20.200        60
20.220        63
20.240        48
20.260        50
20.280        42
20.300        47
20.320        60
20.340        27
20.360        30
20.380        53
20.400        32
20.420        43
20.440        48
20.460        33
20.480        52
20.500        42
20.520        28
20.540        47
20.560        53
20.580        55
20.600        47
20.620        50
20.640        53
20.660        55
20.680        42
20.700        30
20.720        33
20.740        37
20.760        43
20.780        37
20.800        42
20.820        47
20.840        57
20.860        38
20.880        72
20.900        40
20.920        42
20.940        37
20.960        53
20.980        58
21.000        43
21.020        57
21.040        53
21.060        47
21.080        45
21.100        42
21.120        47
21.140        33
21.160        42
21.180        57
21.200        30
21.220        27
21.240        50
21.260        38
21.280        38
21.300        40
21.320        52
21.340        60
21.360        52
21.380        40
21.400        38
21.420        42
21.440        40
21.460        43
21.480        47
21.500        48
21.520        40
21.540        58
21.560        50
21.580        48
21.600        60
21.620        42
21.640        43
21.660        52
21.680        47
21.700        53
21.720        32
21.740        38
21.760        42
21.780        35
21.800        50
21.820        28
21.840        53
21.860        35
21.880        47
21.900        48
21.920        38
21.940        43
21.960        45
21.980        32
22.000        42
22.020        33
22.040        40
22.060        48
22.080        72
22.100        62
22.120        42
22.140        25
22.160        43
22.180        40
22.200        37
22.220        47
22.240        38
22.260        32
22.280        32
22.300        50
22.320        38
22.340        52
22.360        53
22.380        53
22.400        60
22.420        62
22.440        78
22.460        58
22.480        98
22.500        82
22.520       107
22.540       123
22.560       168
22.580       165
22.600       207
22.620       218
22.640       295
22.660       282
22.680       270
22.700       202
22.720       185
22.740       123
22.760       130
22.780       110
22.800        93
22.820        63
22.840        48
22.860        65
22.880        37
22.900        45
22.920        37
22.940        47
22.960        38
22.980        43
23.000        47
23.020        38
23.040        43
23.060        47
23.080        58
23.100        45
23.120        43
23.140        53
23.160        38
23.180        43
23.200        30
23.220        38
23.240        43
23.260        43
23.280        45
23.300        27
23.320        40
23.340        38
23.360        52
23.380        42
23.400        43
23.420        43
23.440        45
23.460        50
23.480        35
23.500        50
23.520        37
23.540        38
23.560        45
23.580        50
23.600        50
23.620        32
23.640        40
23.660        37
23.680        47
23.700        33
23.720        45
23.740        28
23.760        63
23.780        50
23.800        32
23.820        53
23.840        18
23.860        57
23.880        35
23.900        32
23.920        47
23.940        20
23.960        43
23.980        33
24.000        27
24.020        28
24.040        43
24.060        47
24.080        35
24.100        38
24.120        47
24.140        28
24.160        45
24.180        37
24.200        32
24.220        43
24.240        35
24.260        40
24.280        37
24.300        43
24.320        35
24.340        32
24.360        37
24.380        32
24.400        48
24.420        43
24.440        43
24.460        33
24.480        42
24.500        25
24.520        35
24.540        50
24.560        40
24.580        45
24.600        38
24.620        33
24.640        45
24.660        47
24.680        35
24.700        40
24.720        48
24.740        37
24.760        35
24.780        40
24.800        33
24.820        43
24.840        32
24.860        37
24.880        42
24.900        30
24.920        40
24.940        42
24.960        50
24.980        27
25.000        40
25.020        25
25.040        43
25.060        33
25.080        33
25.100        40
25.120        33
25.140        33
25.160        37
25.180        35
25.200        30
25.220        50
25.240        37
25.260        32
25.280        45
25.300        42
25.320        22
25.340        28
25.360        63
25.380        27
25.400        38
25.420        38
25.440        45
25.460        53
25.480        52
25.500        62
25.520        67
25.540        80
25.560       110
25.580       188
25.600       238
25.620       227
25.640       180
25.660       148
25.680       112
25.700        88
25.720        58
25.740        38
25.760        52
25.780        55
25.800        38
25.820        32
25.840        32
25.860        38
25.880        35
25.900        42
25.920        55
25.940        25
25.960        38
25.980        45
26.000        45
26.020        30
26.040        35
26.060        23
26.080        57
26.100        33
26.120        38
26.140        37
26.160        27
26.180        27
26.200        30
26.220        40
26.240        33
26.260        47
26.280        33
26.300        27
26.320        43
26.340        35
26.360        42
26.380        38
26.400        38
26.420        27
26.440        38
26.460        42
26.480        37
26.500        35
26.520        45
26.540        47
26.560        47
26.580        27
26.600        33
26.620        33
26.640        37
26.660        38
26.680        22
26.700        32
26.720        32
26.740        28
26.760        35
26.780        25
26.800        40
26.820        37
26.840        42
26.860        45
26.880        30
26.900        20
26.920        38
26.940        48
26.960        40
26.980        38
27.000        18
27.020        18
27.040        37
27.060        23
27.080        32
27.100        37
27.120        42
27.140        43
27.160        30
27.180        23
27.200        45
27.220        28
27.240        35
27.260        37
27.280        32
27.300        32
27.320        32
27.340        40
27.360        37
27.380        25
27.400        23
27.420        13
27.440        23
27.460        40
27.480        38
27.500        22
27.520        53
27.540        38
27.560        23
27.580        53
27.600        32
27.620        13
27.640        35
27.660        33
27.680        30
27.700        32
27.720        40
27.740        32
27.760        30
27.780        23
27.800        42
27.820        25
27.840        37
27.860        32
27.880        35
27.900        28
27.920        27
27.940        32
27.960        40
27.980        28
28.000        40
28.020        33
28.040        28
28.060        25
28.080        35
28.100        37
28.120        40
28.140        32
28.160        47
28.180        32
28.200        30
28.220        22
28.240        37
28.260        35
28.280        22
28.300        37
28.320        23
28.340        23
28.360        23
28.380        48
28.400        27
28.420        37
28.440        33
28.460        32
28.480        35
28.500        32
28.520        45
28.540        35
28.560        20
28.580        42
28.600        25
28.620        32
28.640        23
28.660        33
28.680        32
28.700        30
28.720        27
28.740        30
28.760        27
28.780        35
28.800        28
28.820        25
28.840        38
28.860        25
28.880        27
28.900        32
28.920        37
28.940        32
28.960        30
28.980        32
29.000        22
29.020        35
29.040        28
29.060        32
29.080        48
29.100        17
29.120        30
29.140        32
29.160        40
29.180        28
29.200        27
29.220        32
29.240        35
29.260        32
29.280        28
29.300        33
29.320        55
29.340        25
29.360        23
29.380        32
29.400        27
29.420        30
29.440        30
29.460        20
29.480        27
29.500        40
29.520        15
29.540        33
29.560        38
29.580        33
29.600        25
29.620        30
29.640        30
29.660        33
29.680        25
29.700        37
29.720        20
29.740        37
29.760        23
29.780        32
29.800        27
29.820        17
29.840        25
29.860        30
29.880        23
29.900        35
29.920        27
29.940        23
29.960        40
29.980        32
30.000        32
30.020        30
30.040        17
30.060        33
30.080        33
30.100        35
30.120        27
30.140        38
30.160        25
30.180        13
30.200        18
30.220        30
30.240        20
30.260        30
30.280        30
30.300        22
30.320        38
30.340        28
30.360        33
30.380        13
30.400        42
30.420        45
30.440        35
30.460        32
30.480        18
30.500        28
30.520        22
30.540        28
30.560        42
30.580        30
30.600        30
30.620        28
30.640        13
30.660        43
30.680        42
30.700        37
30.720        35
30.740        30
30.760        33
30.780        40
30.800        22
30.820        30
30.840        35
30.860        27
30.880         8
30.900        28
30.920        27
30.940        38
30.960        28
30.980        32
31.000        32
31.020        20
31.040        47
31.060        28
31.080        33
31.100        30
31.120        35
31.140        38
31.160        12
31.180        28
31.200        23
31.220        30
31.240        42
31.260        33
31.280        28
31.300        28
31.320        25
31.340        33
31.360        27
31.380        35
31.400        22
31.420        32
31.440        35
31.460        23
31.480        33
31.500        32
31.520        42
31.540        30
31.560        27
31.580        30
31.600        30
31.620        23
31.640        30
31.660        35
31.680        28
31.700        37
31.720        30
31.740        33
31.760        30
31.780        38
31.800        45
31.820        25
31.840        22
31.860        23
31.880        25
31.900        22
31.920        38
31.940        25
31.960        23
31.980        28
32.000        32
32.020        30
32.040        33
32.060        53
32.080        33
32.100        35
32.120        40
32.140        37
32.160        38
32.180        43
32.200        37
32.220        50
32.240        43
32.260        43
32.280        43
32.300        42
32.320        35
32.340        52
32.360        43
32.380        27
32.400        28
32.420        35
32.440        42
32.460        32
32.480        27
32.500        37
32.520        33
32.540        32
32.560        20
32.580        45
32.600        25
32.620        33
32.640        22
32.660        33
32.680        35
32.700        27
32.720        27
32.740        37
32.760        30
32.780        37
32.800        23
32.820        35
32.840        22
32.860        40
32.880        33
32.900        20
32.920        25
32.940        12
32.960        25
32.980        25
33.000        30
33.020        28
33.040        27
33.060        37
33.080        33
33.100        25
33.120        22
33.140        23
33.160        25
33.180        27
33.200        27
33.220        25
33.240        37
33.260        27
33.280        23
33.300        22
33.320        25
33.340        27
33.360        20
33.380        33
33.400        27
33.420        40
33.440        23
33.460        18
33.480        33
33.500        30
33.520        37
33.540        52
33.560        27
33.580        32
33.600        18
33.620        38
33.640        32
33.660        32
33.680        15
33.700        32
33.720        38
33.740        30
33.760        25
33.780        32
33.800        30
33.820        18
33.840        15
33.860        28
33.880        38
33.900        23
33.920        25
33.940        25
33.960        28
33.980        22
34.000        28
34.020        18
34.040        27
34.060        40
34.080        35
34.100        33
34.120        23
34.140        23
34.160        32
34.180        23
34.200        30
34.220        27
34.240        25
34.260        32
34.280        23
34.300        17
34.320        37
34.340        27
34.360        25
34.380        32
34.400        33
34.420        25
34.440        30
34.460        20
34.480        23
34.500        28
34.520        33
34.540        25
34.560        23
34.580        23
34.600        32
34.620        25
34.640        35
34.660        32
34.680        25
34.700        40
34.720        20
34.740        33
34.760        22
34.780        30
34.800        30
34.820        27
34.840        40
34.860        28
34.880        35
34.900        28
34.920        37
34.940        28
34.960        47
34.980        43
35.000        60
35.020       107
35.040       115
35.060       115
35.080        93
35.100        82
35.120        97
35.140       180
35.160       347
35.180       375
35.200       370
35.220       220
35.240       203
35.260       220
35.280       232
35.300       157
35.320       102
35.340        55
35.360        37
35.380        40
35.400        35
35.420        40
35.440        23
35.460        25
35.480        30
35.500        28
35.520        35
35.540        32
35.560        35
35.580        18
35.600        25
35.620        20
35.640        23
35.660        17
35.680        17
35.700        25
35.720        30
35.740        32
35.760        45
35.780        35
35.800        38
35.820        40
35.840        23
35.860        25
35.880        25
35.900        35
35.920        18
35.940        35
35.960        27
35.980        25
36.000        35
36.020        32
36.040        27
36.060        33
36.080        17
36.100        23
36.120         8
36.140        27
36.160        27
36.180        22
36.200        15
36.220        30
36.240        27
36.260        15
36.280        32
36.300        27
36.320        30
36.340        33
36.360        33
36.380        38
36.400        25
36.420        38
36.440        23
36.460        32
36.480        15
36.500        23
36.520        23
36.540        25
36.560        22
36.580        25
36.600        37
36.620        33
36.640        28
36.660        15
36.680        32
36.700        30
36.720        28
36.740        32
36.760        20
36.780        23
36.800        35
36.820        22
36.840        23
36.860        43
36.880        38
36.900        28
36.920        23
36.940        22
36.960        25
36.980        18
37.000        33
37.020        30
37.040        28
37.060        27
37.080        20
37.100        23
37.120        45
37.140        30
37.160        47
37.180        27
37.200        25
37.220        22
37.240        27
37.260        53
37.280        33
37.300        25
37.320        27
37.340        17
37.360        35
37.380        28
37.400         8
37.420        23
37.440        27
37.460        28
37.480        18
37.500        47
37.520        13
37.540        27
37.560        28
37.580        32
37.600        37
37.620        40
37.640        33
37.660        40
37.680        57
37.700        45
37.720        53
37.740        57
37.760        43
37.780        60
37.800        68
37.820        80
37.840        70
37.860        52
37.880        40
37.900        35
37.920        67
37.940        58
37.960        35
37.980        37
38.000        30
38.020        42
38.040        22
38.060        18
38.080        30
38.100        23
38.120        25
38.140        32
38.160        27
38.180        25
38.200        33
38.220        32
38.240        40
38.260        33
38.280        32
38.300        27
38.320        25
38.340        27
38.360        22
38.380        22
38.400        33
38.420        22
38.440        22
38.460        30
38.480        33
38.500        27
38.520        37
38.540        35
38.560        27
38.580        38
38.600        28
38.620        25
38.640        38
38.660        38
38.680        20
38.700        22
38.720        22
38.740        32
38.760        23
38.780        27
38.800        37
38.820        18
38.840        32
38.860        27
38.880        32
38.900        25
38.920        27
38.940        37
38.960        32
38.980        37
39.000        23
39.020        35
39.040        30
39.060        28
39.080        30
39.100        32
39.120        40
39.140        25
39.160        22
39.180        50
39.200        27
39.220        18
39.240        32
39.260        27
39.280        33
39.300        27
39.320        50
39.340        38
39.360        35
39.380        22
39.400        35
39.420        35
39.440        30
39.460        40
39.480        47
39.500        55
39.520        58
39.540        50
39.560        85
39.580        77
39.600        87
39.620       105
39.640       143
39.660       205
39.680       190
39.700       287
39.720       323
39.740       355
39.760       420
39.780       461
39.800       375
39.820       358
39.840       345
39.860       290
39.880       247
39.900       225
39.920       162
39.940       113
39.960       125
39.980        82
40.000        58
40.020        50
40.040        40
40.060        28
40.080        40
40.100        33
40.120        30
40.140        20
40.160        37
40.180        28
40.200        20
40.220        23
40.240        32
40.260        32
40.280        28
40.300        25
40.320        35
40.340        27
40.360        35
40.380        25
40.400        27
40.420        30
40.440        33
40.460        43
40.480        37
40.500        35
40.520        20
40.540        30
40.560        35
40.580        28
40.600        38
40.620        27
40.640        30
40.660        28
40.680        25
40.700        28
40.720        22
40.740        37
40.760        40
40.780        38
40.800        18
40.820        27
40.840        33
40.860        27
40.880        32
40.900        28
40.920        18
40.940        13
40.960        28
40.980        20
41.000        23
41.020        37
41.040        27
41.060        33
41.080        45
41.100        50
41.120        37
41.140        45
41.160        45
41.180        33
41.200        30
41.220        38
41.240        40
41.260        35
41.280        23
41.300        28
41.320        40
41.340        43
41.360        32
41.380        40
41.400        32
41.420        57
41.440        47
41.460        63
41.480        38
41.500        43
41.520        58
41.540        57
41.560        75
41.580        48
41.600        77
41.620        73
41.640        88
41.660       138
41.680       190
41.700       178
41.720       173
41.740       137
41.760        62
41.780       117
41.800       103
41.820       107
41.840        95
41.860        48
41.880        47
41.900        30
41.920        28
41.940        28
41.960        18
41.980        30
42.000        33
42.020        33
42.040        43
42.060        28
42.080        33
42.100        35
42.120        25
42.140        27
42.160        33
42.180        18
42.200        32
42.220        28
42.240        22
42.260        38
42.280        30
42.300        22
42.320        22
42.340        35
42.360        27
42.380        27
42.400        23
42.420        27
42.440        37
42.460        22
42.480        27
42.500        30
42.520        27
42.540        30
42.560        20
42.580        30
42.600        38
42.620        25
42.640        18
42.660        33
42.680        38
42.700        35
42.720        35
42.740        13
42.760        35
42.780        17
42.800        22
42.820        25
42.840        32
42.860        42
42.880        28
42.900        38
42.920        37
42.940        25
42.960        22
42.980        25
43.000        25
43.020        25
43.040        37
43.060        32
43.080        27
43.100        35
43.120        43
43.140        45
43.160        45
43.180        23
43.200        37
43.220        37
43.240        38
43.260        40
43.280        65
43.300        83
43.320       105
43.340       138
43.360       175
43.380       217
43.400       238
43.420       175
43.440       122
43.460       110
43.480       112
43.500       135
43.520       130
43.540        90
43.560        57
43.580        30
43.600        27
43.620        35
43.640        20
43.660        33
43.680        20
43.700        12
43.720        27
43.740        25
43.760        33
43.780        43
43.800        22
43.820        22
43.840        42
43.860        17
43.880        27
43.900        25
43.920        30
43.940        17
43.960        38
43.980        20
44.000        45
44.020        28
44.040        37
44.060        23
44.080        28
44.100        27
44.120        40
44.140        38
44.160        27
44.180        38
44.200        18
44.220        27
44.240        20
44.260        28
44.280        22
44.300        18
44.320        30
44.340        30
44.360        33
44.380        28
44.400        20
44.420        22
44.440        30
44.460        35
44.480        30
44.500        27
44.520        32
44.540        27
44.560        28
44.580        37
44.600        33
44.620        28
44.640        30
44.660        32
44.680        33
44.700        32
44.720        38
44.740        45
44.760        22
44.780        25
44.800        28
44.820        35
44.840        33
44.860        32
44.880        22
44.900        40
44.920        33
44.940        38
44.960        23
44.980        23
45.000        42
45.020        45
45.040        33
45.060        35
45.080        37
45.100        37
45.120        38
45.140        38
45.160        27
45.180        40
45.200        30
45.220        28
45.240        33
45.260        32
45.280        35
45.300        40
45.320        32
45.340        43
45.360        28
45.380        38
45.400        35
45.420        53
45.440        28
45.460        28
45.480        37
45.500        35
45.520        35
45.540        37
45.560        53
45.580        53
45.600        40
45.620        37
45.640        50
45.660        33
45.680        33
45.700        45
45.720        42
45.740        48
45.760        53
45.780        55
45.800        55
45.820        72
45.840        92
45.860        98
45.880       125
45.900       130
45.920       130
45.940       165
45.960       190
45.980       217
46.000       300
46.020       340
46.040       378
46.060       476
46.080       553
46.100       603
46.120       718
46.140       800
46.160       940
46.180       875
46.200       978
46.220      1043
46.240       973
46.260       943
46.280       936
46.300       946
46.320       828
46.340       690
46.360       715
46.380       628
46.400       495
46.420       395
46.440       342
46.460       282
46.480       203
46.500       198
46.520       160
46.540       138
46.560        90
46.580        88
46.600        83
46.620        62
46.640        82
46.660        55
46.680        52
46.700        37
46.720        60
46.740        63
46.760        52
46.780        27
46.800        50
46.820        42
46.840        50
46.860        43
46.880        50
46.900        47
46.920        38
46.940        43
46.960        35
46.980        35
47.000        40
47.020        30
47.040        43
47.060        40
47.080        38
47.100        30
47.120        38
47.140        37
47.160        40
47.180        47
47.200        45
47.220        37
47.240        40
47.260        42
47.280        23
47.300        40
47.320        32
47.340        35
47.360        33
47.380        32
47.400        32
47.420        35
47.440        32
47.460        43
47.480        15
47.500        45
47.520        32
47.540        38
47.560        28
47.580        27
47.600        30
47.620        28
47.640        30
47.660        33
47.680        38
47.700        33
47.720        38
47.740        45
47.760        23
47.780        30
47.800        33
47.820        28
47.840        35
47.860        28
47.880        28
47.900        18
47.920        32
47.940        25
47.960        32
47.980        47
48.000        38
48.020        22
48.040        32
48.060        22
48.080        37
48.100        32
48.120        18
48.140        30
48.160        33
48.180        37
48.200        22
48.220        23
48.240        38
48.260        33
48.280        47
48.300        23
48.320        33
48.340        35
48.360        23
48.380        38
48.400        15
48.420        20
48.440        28
48.460        38
48.480        20
48.500        25
48.520        27
48.540        23
48.560        18
48.580        35
48.600        33
48.620        23
48.640        23
48.660        27
48.680        32
48.700        22
48.720        37
48.740        20
48.760        32
48.780        22
48.800        25
48.820        13
48.840        23
48.860        25
48.880        33
48.900        23
48.920        33
48.940        33
48.960        27
48.980        15
49.000        33
49.020        27
49.040        45
49.060        42
49.080        32
49.100        23
49.120        32
49.140        17
49.160        18
49.180        25
49.200        32
49.220        33
49.240        25
49.260        18
49.280        17
49.300        25
49.320        27
49.340        33
49.360        22
49.380        32
49.400        37
49.420        25
49.440        25
49.460        20
49.480        22
49.500        48
49.520        22
49.540        32
49.560        28
49.580        25
49.600        18
49.620        32
49.640        28
49.660        13
49.680        22
49.700        23
49.720        30
49.740        28
49.760        22
49.780        18
49.800        38
49.820        35
49.840        12
49.860        30
49.880        23
49.900        25
49.920        18
49.940        30
49.960        25
49.980        28
50.000        22
50.020        10
50.040        20
50.060        15
50.080        25
50.100        22
50.120        22
50.140        20
50.160        30
50.180        33
50.200        28
50.220        20
50.240        27
50.260        37
50.280        30
50.300        15
50.320        17
50.340        20
50.360        22
50.380        17
50.400        27
50.420        32
50.440        20
50.460        18
50.480        22
50.500        20
50.520        27
50.540        17
50.560        23
50.580        18
50.600        23
50.620        35
50.640        28
50.660        22
50.680        22
50.700        17
50.720        27
50.740        28
50.760        12
50.780        18
50.800        25
50.820        23
50.840        20
50.860        32
50.880        27
50.900        20
50.920        32
50.940        18
50.960        28
50.980        30
51.000        30
51.020        18
51.040        18
51.060        18
51.080        23
51.100        25
51.120        23
51.140        28
51.160        18
51.180        18
51.200        28
51.220        28
51.240        18
51.260        33
51.280        28
51.300        18
51.320        27
51.340        25
51.360        33
51.380        30
51.400        17
51.420        22
51.440        15
51.460        25
51.480        22
51.500        38
51.520        27
51.540        32
51.560        20
51.580        17
51.600        22
51.620        28
51.640        25
51.660        30
51.680        25
51.700        18
51.720        28
51.740        23
51.760        28
51.780        18
51.800        32
51.820        17
51.840        20
51.860        15
51.880        25
51.900        25
51.920        18
51.940        30
51.960        22
51.980        23
52.000        13
52.020        30
52.040        15
52.060        23
52.080         8
52.100        25
52.120        18
52.140        22
52.160        25
52.180        22
52.200        17
52.220        20
52.240        28
52.260        28
52.280        18
52.300        28
52.320        30
52.340        25
52.360        27
52.380        37
52.400        33
52.420        32
52.440        27
52.460        30
52.480        45
52.500        70
52.520       112
52.540       147
52.560       170
52.580       252
52.600       343
52.620       280
52.640       205
52.660       125
52.680       117
52.700       105
52.720       145
52.740       168
52.760       162
52.780       130
52.800        85
52.820        43
52.840        33
52.860        28
52.880        25
52.900        37
52.920        25
52.940        18
52.960        25
52.980        25
53.000        32
53.020        25
53.040        32
53.060        27
53.080        23
53.100        23
53.120        30
53.140        18
53.160        23
53.180        27
53.200        20
53.220        30
53.240        28
53.260        23
53.280        25
53.300        18
53.320        20
53.340        17
53.360        28
53.380        20
53.400        28
53.420        20
53.440        25
53.460        20
53.480        25
53.500        10
53.520        30
53.540        18
53.560        22
53.580        25
53.600        28
53.620        15
53.640        13
53.660        20
53.680        22
53.700        22
53.720        27
53.740        15
53.760        15
53.780        25
53.800        12
53.820        18
53.840        20
53.860        38
53.880        18
53.900        27
53.920        12
53.940        20
53.960        30
53.980        23
54.000        25
54.020        18
54.040        18
54.060        17
54.080        18
54.100        15
54.120        23
54.140        20
54.160        27
54.180        23
54.200        20
54.220        23
54.240        22
54.260        17
54.280        33
54.300        10
54.320        20
54.340        18
54.360        28
54.380        22
54.400        25
54.420        28
54.440        25
54.460        22
54.480        10
54.500        18
54.520        25
54.540        22
54.560         8
54.580        22
54.600        33
54.620        22
54.640        23
54.660        20
54.680        20
54.700        28
54.720        27
54.740        18
54.760        27
54.780        20
54.800        13
54.820        27
54.840        27
54.860        30
54.880        28
54.900        28
54.920        27
54.940        25
54.960        22
54.980        25
55.000        17
55.020        17
55.040        20
55.060        15
55.080        12
55.100        27
55.120        20
55.140        22
55.160        27
55.180        22
55.200        15
55.220        33
55.240        32
55.260        28
55.280        20
55.300        27
55.320        22
55.340        15
55.360        18
55.380        13
55.400        20
55.420        23
55.440        27
55.460        18
55.480        30
55.500        20
55.520        20
55.540        20
55.560        17
55.580        12
55.600        28
55.620        27
55.640        32
55.660        28
55.680        25
55.700        15
55.720        23
55.740        25
55.760        18
55.780        28
55.800        40
55.820        28
55.840        23
55.860        22
55.880        25
55.900        23
55.920        27
55.940        22
55.960        23
55.980        25
56.000        27
56.020        20
56.040        30
56.060        22
56.080        18
56.100        28
56.120        28
56.140        13
56.160        18
56.180        17
56.200        25
56.220        13
56.240        22
56.260        15
56.280        28
56.300        18
56.320        25
56.340        20
56.360        17
56.380        22
56.400        17
56.420        18
56.440        28
56.460        17
56.480        22
56.500        22
56.520        20
56.540        13
56.560        25
56.580        18
56.600         8
56.620        40
56.640        28
56.660        35
56.680        35
56.700        20
56.720        20
56.740        28
56.760        20
56.780        17
56.800        22
56.820        18
56.840        35
56.860        22
56.880        22
56.900        25
56.920        27
56.940        32
56.960        13
56.980        18
57.000        23
57.020        23
57.040        23
57.060        38
57.080        15
57.100        43
57.120        38
57.140        30
57.160        43
57.180        25
57.200        37
57.220        42
57.240        28
57.260        40
57.280        28
57.300        50
57.320        47
57.340        72
57.360        57
57.380        73
57.400        87
57.420        83
57.440       125
57.460       152
57.480       213
57.500       233
57.520       275
57.540       240
57.560       253
57.580       262
57.600       155
57.620       165
57.640       160
57.660       140
57.680       148
57.700       168
57.720       138
57.740       122
57.760        70
57.780        58
57.800        48
57.820        57
57.840        30
57.860        38
57.880        18
57.900        23
57.920        27
57.940        25
57.960        28
57.980        27
58.000        33
58.020        17
58.040        22
58.060        28
58.080        27
58.100        15
58.120        23
58.140        15
58.160        23
58.180        22
58.200        25
58.220        25
58.240        18
58.260        18
58.280        28
58.300        17
58.320        33
58.340        20
58.360        18
58.380        13
58.400        30
58.420        22
58.440        10
58.460        22
58.480         7
58.500        23
58.520        10
58.540        17
58.560        13
58.580        12
58.600        18
58.620        20
58.640        25
58.660        28
58.680        22
58.700        12
58.720        23
58.740        30
58.760        10
58.780        23
58.800        30
58.820        32
58.840        15
58.860        25
58.880        17
58.900        23
58.920        30
58.940        23
58.960        25
58.980        22
59.000        12
59.020        23
59.040         8
59.060        20
59.080        17
59.100        22
59.120        15
59.140        22
59.160        13
59.180        17
59.200        25
59.220        18
59.240        20
59.260        17
59.280        25
59.300        17
59.320        15
59.340        22
59.360        22
59.380        20
59.400        27
59.420        15
59.440        22
59.460        25
59.480        28
59.500        27
59.520        25
59.540        22
59.560        33
59.580        15
59.600        28
59.620        22
59.640        15
59.660        32
59.680        17
59.700        25
59.720        28
59.740        22
59.760        17
59.780        27
59.800        20
59.820        25
59.840        23
59.860        15
59.880        18
59.900        17
59.920        12
59.940        18
59.960        13
59.980        17
60.000        18
