20	2093
20,05	2062
20,1	2111
20,15	2044
20,2	1961
20,25	2006
20,3	2094
20,35	2042
20,4	2023
20,45	2071
20,5	2028
20,55	1948
20,6	2061
20,65	1980
20,7	1937
20,75	2011
20,8	1975
20,85	1977
20,9	1971
20,95	1997
21	2011
21,05	1956
21,1	1989
21,15	1918
21,2	1981
21,25	1937
21,3	1896
21,35	1906
21,4	1963
21,45	1973
21,5	1909
21,55	1907
21,6	1935
21,65	1970
21,7	1958
21,75	2001
21,8	1863
21,85	1939
21,9	1965
21,95	1869
22	1922
22,05	1890
22,1	1925
22,15	1935
22,2	1926
22,25	1863
22,3	1873
22,35	1848
22,4	1857
22,45	1829
22,5	1868
22,55	1885
22,6	1976
22,65	1961
22,7	2117
22,75	2175
22,8	2114
22,85	2071
22,9	1975
22,95	1849
23	1887
23,05	1842
23,1	1822
23,15	1843
23,2	1825
23,25	1817
23,3	1845
23,35	1753
23,4	1840
23,45	1777
23,5	1848
23,55	1803
23,6	1844
23,65	1758
23,7	1831
23,75	1779
23,8	1770
23,85	1728
23,9	1829
23,95	1770
24	1760
24,05	1831
24,1	1702
24,15	1753
24,2	1815
24,25	1752
24,3	1769
24,35	1743
24,4	1783
24,45	1792
24,5	1745
24,55	1769
24,6	1735
24,65	1752
24,7	1729
24,75	1691
24,8	1737
24,85	1680
24,9	1674
24,95	1761
25	1655
25,05	1756
25,1	1629
25,15	1645
25,2	1608
25,25	1723
25,3	1681
25,35	1708
25,4	1725
25,45	1646
25,5	1713
25,55	1668
25,6	1688
25,65	1825
25,7	1982
25,75	2051
25,8	1877
25,85	1874
25,9	1696
25,95	1682
26	1662
26,05	1560
26,1	1669
26,15	1695
26,2	1645
26,25	1585
26,3	1599
26,35	1616
26,4	1580
26,45	1569
26,5	1560
26,55	1580
26,6	1589
26,65	1543
26,7	1615
26,75	1683
26,8	1623
26,85	1550
26,9	1605
26,95	1533
27	1546
27,05	1583
27,1	1567
27,15	1574
27,2	1606
27,25	1553
27,3	1549
27,35	1499
27,4	1565
27,45	1513
27,5	1568
27,55	1571
27,6	1559
27,65	1545
27,7	1514
27,75	1543
27,8	1503
27,85	1475
27,9	1541
27,95	1498
28	1546
28,05	1451
28,1	1517
28,15	1500
28,2	1470
28,25	1493
28,3	1515
28,35	1511
28,4	1487
28,45	1434
28,5	1520
28,55	1467
28,6	1455
28,65	1495
28,7	1501
28,75	1501
28,8	1464
28,85	1428
28,9	1455
28,95	1460
29	1425
29,05	1418
29,1	1439
29,15	1542
29,2	1455
29,25	1493
29,3	1557
29,35	1463
29,4	1438
29,45	1456
29,5	1396
29,55	1483
29,6	1451
29,65	1440
29,7	1446
29,75	1433
29,8	1449
29,85	1430
29,9	1396
29,95	1468
30	1348
30,05	1354
30,1	1389
30,15	1386
30,2	1382
30,25	1442
30,3	1381
30,35	1375
30,4	1299
30,45	1460
30,5	1302
30,55	1392
30,6	1339
30,65	1391
30,7	1399
30,75	1379
30,8	1329
30,85	1362
30,9	1307
30,95	1340
31	1370
31,05	1383
31,1	1374
31,15	1352
31,2	1333
31,25	1356
31,3	1345
31,35	1380
31,4	1300
31,45	1367
31,5	1380
31,55	1379
31,6	1300
31,65	1324
31,7	1348
31,75	1347
31,8	1324
31,85	1367
31,9	1379
31,95	1365
32	1322
32,05	1425
32,1	1424
32,15	1529
32,2	1664
32,25	1769
32,3	2083
32,35	1959
32,4	1955
32,45	1706
32,5	1489
32,55	1382
32,6	1368
32,65	1327
32,7	1319
32,75	1228
32,8	1320
32,85	1233
32,9	1301
32,95	1277
33	1246
33,05	1254
33,1	1315
33,15	1212
33,2	1278
33,25	1172
33,3	1273
33,35	1199
33,4	1275
33,45	1246
33,5	1258
33,55	1240
33,6	1226
33,65	1315
33,7	1172
33,75	1212
33,8	1211
33,85	1220
33,9	1273
33,95	1219
34	1212
34,05	1215
34,1	1196
34,15	1252
34,2	1267
34,25	1173
34,3	1233
34,35	1175
34,4	1217
34,45	1203
34,5	1251
34,55	1147
34,6	1196
34,65	1139
34,7	1218
34,75	1198
34,8	1198
34,85	1133
34,9	1164
34,95	1157
35	1181
35,05	1158
35,1	1254
35,15	1356
35,2	1563
35,25	2054
35,3	2545
35,35	2440
35,4	2117
35,45	1611
35,5	1269
35,55	1228
35,6	1131
35,65	1146
35,7	1168
35,75	1230
35,8	1168
35,85	1190
35,9	1253
35,95	1207
36	1198
36,05	1195
36,1	1239
36,15	1176
36,2	1138
36,25	1192
36,3	1177
36,35	1136
36,4	1143
36,45	1075
36,5	1110
36,55	1092
36,6	1161
36,65	1079
36,7	1151
36,75	1079
36,8	1070
36,85	1091
36,9	1118
36,95	1115
37	1161
37,05	1133
37,1	1112
37,15	1087
37,2	1098
37,25	1091
37,3	1073
37,35	1057
37,4	1126
37,45	1123
37,5	1130
37,55	1024
37,6	1086
37,65	1096
37,7	1076
37,75	1089
37,8	1181
37,85	1202
37,9	1327
37,95	1409
38	1243
38,05	1197
38,1	1143
38,15	1042
38,2	1130
38,25	1106
38,3	1024
38,35	1065
38,4	1073
38,45	1088
38,5	1076
38,55	1114
38,6	1048
38,65	1123
38,7	1126
38,75	1119
38,8	1121
38,85	1175
38,9	1161
38,95	1142
39	1139
39,05	1161
39,1	1165
39,15	1181
39,2	1175
39,25	1152
39,3	1248
39,35	1238
39,4	1281
39,45	1299
39,5	1340
39,55	1489
39,6	1711
39,65	2160
39,7	2880
39,75	4241
39,8	6371
39,85	9009
39,9	11361
39,95	12990
40	13260
40,05	11502
40,1	8916
40,15	6256
40,2	4218
40,25	2843
40,3	2014
40,35	1719
40,4	1544
40,45	1347
40,5	1335
40,55	1254
40,6	1230
40,65	1167
40,7	1112
40,75	1138
40,8	1162
40,85	1100
40,9	1079
40,95	1088
41	1077
41,05	973
41,1	1071
41,15	1104
41,2	1047
41,25	995
41,3	1050
41,35	1013
41,4	1031
41,45	1038
41,5	1096
41,55	983
41,6	1034
41,65	1008
41,7	1097
41,75	1105
41,8	1216
41,85	1254
41,9	1182
41,95	1116
42	1039
42,05	1013
42,1	1049
42,15	1043
42,2	994
42,25	969
42,3	919
42,35	999
42,4	952
42,45	988
42,5	907
42,55	958
42,6	960
42,65	995
42,7	990
42,75	911
42,8	900
42,85	940
42,9	929
42,95	938
43	895
43,05	901
43,1	1010
43,15	1005
43,2	917
43,25	875
43,3	938
43,35	1007
43,4	1177
43,45	1472
43,5	1697
43,55	1829
43,6	1605
43,65	1507
43,7	1182
43,75	1077
43,8	931
43,85	925
43,9	903
43,95	933
44	924
44,05	906
44,1	894
44,15	866
44,2	919
44,25	836
44,3	885
44,35	901
44,4	864
44,45	930
44,5	932
44,55	932
44,6	927
44,65	888
44,7	942
44,75	883
44,8	918
44,85	894
44,9	908
44,95	882
45	886
45,05	903
45,1	869
45,15	858
45,2	881
45,25	905
45,3	810
45,35	860
45,4	878
45,45	856
45,5	831
45,55	912
45,6	873
45,65	854
45,7	888
45,75	867
45,8	890
45,85	907
45,9	942
45,95	1005
46	1006
46,05	1071
46,1	1213
46,15	1442
46,2	1683
46,25	1954
46,3	2004
46,35	1883
46,4	1784
46,45	1490
46,5	1306
46,55	1106
46,6	1036
46,65	985
46,7	911
46,75	889
46,8	809
46,85	828
46,9	799
46,95	846
47	798
47,05	800
47,1	867
47,15	865
47,2	828
47,25	818
47,3	790
47,35	859
47,4	785
47,45	788
47,5	789
47,55	819
47,6	836
47,65	809
47,7	820
47,75	775
47,8	827
47,85	796
47,9	710
47,95	828
48	774
48,05	789
48,1	802
48,15	805
48,2	792
48,25	787
48,3	821
48,35	751
48,4	738
48,45	776
48,5	781
48,55	735
48,6	789
48,65	744
48,7	723
48,75	776
48,8	813
48,85	792
48,9	740
48,95	780
49	784
49,05	728
49,1	763
49,15	776
49,2	778
49,25	754
49,3	726
49,35	780
49,4	745
49,45	786
49,5	774
49,55	717
49,6	756
49,65	752
49,7	776
49,75	736
49,8	737
49,85	827
49,9	737
49,95	777
50	714
50,05	689
50,1	770
50,15	752
50,2	752
50,25	778
50,3	737
50,35	749
50,4	737
50,45	759
50,5	719
50,55	757
50,6	740
50,65	727
50,7	768
50,75	757
50,8	749
50,85	747
50,9	747
50,95	723
51	739
51,05	745
51,1	723
51,15	704
51,2	772
51,25	739
51,3	690
51,35	708
51,4	765
51,45	663
51,5	749
51,55	711
51,6	771
51,65	701
51,7	702
51,75	714
51,8	756
51,85	701
51,9	759
51,95	690
52	726
52,05	763
52,1	729
52,15	664
52,2	752
52,25	722
52,3	762
52,35	670
52,4	721
52,45	694
52,5	763
52,55	734
52,6	859
52,65	1014
52,7	1144
52,75	1134
52,8	993
52,85	934
52,9	883
52,95	746
53	767
53,05	711
53,1	674
53,15	696
53,2	669
53,25	697
53,3	682
53,35	660
53,4	709
53,45	687
53,5	693
53,55	675
53,6	714
53,65	676
53,7	662
53,75	709
53,8	670
53,85	677
53,9	648
53,95	669
54	663
54,05	702
54,1	642
54,15	711
54,2	677
54,25	687
54,3	629
54,35	673
54,4	693
54,45	671
54,5	669
54,55	661
54,6	670
54,65	675
54,7	709
54,75	690
54,8	615
54,85	704
54,9	640
54,95	626
55	656
55,05	674
55,1	647
55,15	657
55,2	633
55,25	707
55,3	659
55,35	601
55,4	615
55,45	671
55,5	665
55,55	637
55,6	651
55,65	649
55,7	627
55,75	630
55,8	628
55,85	656
55,9	622
55,95	710
56	637
56,05	610
56,1	626
56,15	643
56,2	621
56,25	623
56,3	674
56,35	656
56,4	648
56,45	640
56,5	624
56,55	635
56,6	630
56,65	638
56,7	673
56,75	660
56,8	649
56,85	635
56,9	586
56,95	610
57	625
57,05	569
57,1	625
57,15	675
57,2	642
57,25	646
57,3	678
57,35	777
57,4	812
57,45	809
57,5	955
57,55	1429
57,6	2030
57,65	2019
57,7	1888
57,75	1595
57,8	1292
57,85	1180
57,9	849
57,95	678
58	658
58,05	622
58,1	631
58,15	606
58,2	627
58,25	652
58,3	610
58,35	540
58,4	628
58,45	573
58,5	669
58,55	621
58,6	630
58,65	623
58,7	596
58,75	586
58,8	574
58,85	564
58,9	644
58,95	575
59	606
59,05	607
59,1	590
59,15	582
59,2	574
59,25	614
59,3	573
59,35	574
59,4	550
59,45	618
59,5	648
59,55	600
59,6	599
59,65	614
59,7	608
59,75	569
59,8	600
59,85	590
59,9	564
59,95	589
60	575
60,05	
60,1	
60,15	
60,2	
60,25	
60,3	
60,35	
60,4	
60,45	
60,5	
60,55	
60,6	
60,65	
60,7	
60,75	
60,8	
60,85	
60,9	
60,95	
61	
61,05	
61,1	
61,15	
61,2	
61,25	
61,3	
61,35	
61,4	
61,45	
61,5	
61,55	
61,6	
61,65	
61,7	
61,75	
61,8	
61,85	
61,9	
61,95	
62	
62,05	
62,1	
62,15	
62,2	
62,25	
62,3	
62,35	
62,4	
62,45	
62,5	
62,55	
62,6	
62,65	
62,7	
62,75	
62,8	
62,85	
62,9	
62,95	
63	
63,05	
63,1	
63,15	
63,2	
63,25	
63,3	
63,35	
63,4	
63,45	
63,5	
63,55	
63,6	
63,65	
63,7	
63,75	
63,8	
63,85	
63,9	
63,95	
64	
64,05	
64,1	
64,15	
64,2	
64,25	
64,3	
64,35	
64,4	
64,45	
64,5	
64,55	
64,6	
64,65	
64,7	
64,75	
64,8	
64,85	
64,9	
64,95	
65	
65,05	
65,1	
65,15	
65,2	
65,25	
65,3	
65,35	
65,4	
65,45	
65,5	
65,55	
65,6	
65,65	
65,7	
65,75	
65,8	
65,85	
65,9	
65,95	
66	
66,05	
66,1	
66,15	
66,2	
66,25	
66,3	
66,35	
66,4	
66,45	
66,5	
66,55	
66,6	
66,65	
66,7	
66,75	
66,8	
66,85	
66,9	
66,95	
67	
67,05	
67,1	
67,15	
67,2	
67,25	
67,3	
67,35	
67,4	
67,45	
67,5	
67,55	
67,6	
67,65	
67,7	
67,75	
67,8	
67,85	
67,9	
67,95	
68	
68,05	
68,1	
68,15	
68,2	
68,25	
68,3	
68,35	
68,4	
68,45	
68,5	
68,55	
68,6	
68,65	
68,7	
68,75	
68,8	
68,85	
68,9	
68,95	
69	
69,05	
69,1	
69,15	
69,2	
69,25	
69,3	
69,35	
69,4	
69,45	
69,5	
69,55	
69,6	
69,65	
69,7	
69,75	
69,8	
69,85	
69,9	
69,95	
70	
70,05	
70,1	
70,15	
70,2	
70,25	
70,3	
70,35	
70,4	
70,45	
70,5	
70,55	
70,6	
70,65	
70,7	
70,75	
70,8	
70,85	
70,9	
70,95	
71	
71,05	
71,1	
71,15	
71,2	
71,25	
71,3	
71,35	
71,4	
71,45	
71,5	
71,55	
71,6	
71,65	
71,7	
71,75	
71,8	
71,85	
71,9	
71,95	
72	
72,05	
72,1	
72,15	
72,2	
72,25	
72,3	
72,35	
72,4	
72,45	
72,5	
72,55	
72,6	
72,65	
72,7	
72,75	
72,8	
72,85	
72,9	
72,95	
73	
73,05	
73,1	
73,15	
73,2	
73,25	
73,3	
73,35	
73,4	
73,45	
73,5	
73,55	
73,6	
73,65	
73,7	
73,75	
73,8	
73,85	
73,9	
73,95	
74	
74,05	
74,1	
74,15	
74,2	
74,25	
74,3	
74,35	
74,4	
74,45	
74,5	
74,55	
74,6	
74,65	
74,7	
74,75	
74,8	
74,85	
74,9	
74,95	
75	
75,05	
75,1	
75,15	
75,2	
75,25	
75,3	
75,35	
75,4	
75,45	
75,5	
75,55	
75,6	
75,65	
75,7	
75,75	
75,8	
75,85	
75,9	
75,95	
76	
76,05	
76,1	
76,15	
76,2	
76,25	
76,3	
76,35	
76,4	
76,45	
76,5	
76,55	
76,6	
76,65	
76,7	
76,75	
76,8	
76,85	
76,9	
76,95	
77	
77,05	
77,1	
77,15	
77,2	
77,25	
77,3	
77,35	
77,4	
77,45	
77,5	
77,55	
77,6	
77,65	
77,7	
77,75	
77,8	
77,85	
77,9	
77,95	
78	
78,05	
78,1	
78,15	
78,2	
78,25	
78,3	
78,35	
78,4	
78,45	
78,5	
78,55	
78,6	
78,65	
78,7	
78,75	
78,8	
78,85	
78,9	
78,95	
79	
79,05	
79,1	
79,15	
79,2	
79,25	
79,3	
79,35	
79,4	
79,45	
79,5	
79,55	
79,6	
79,65	
79,7	
79,75	
79,8	
79,85	
79,9	
79,95	
80	
--	
--	
--	
--	