20.000        47
20.020        47
20.040        43
20.060        67
20.080        73
20.100        63
20.120        70
20.140        50
20.160        70
20.180        47
20.200        63
20.220        30
20.240        47
20.260        70
20.280        37
20.300        30
20.320        60
20.340        47
20.360        50
20.380        67
20.400        43
20.420        77
20.440        63
20.460        50
20.480        63
20.500        67
20.520        67
20.540        73
20.560        73
20.580        50
20.600        73
20.620        73
20.640        57
20.660        50
20.680        67
20.700        73
20.720        50
20.740        27
20.760        87
20.780       100
20.800        70
20.820        53
20.840        63
20.860        83
20.880        60
20.900        47
20.920        77
20.940        67
20.960        57
20.980        60
21.000        37
21.020        73
21.040        47
21.060        40
21.080        63
21.100        73
21.120        77
21.140        43
21.160        60
21.180        57
21.200        63
21.220        63
21.240        73
21.260        63
21.280        40
21.300        77
21.320        70
21.340        70
21.360        83
21.380        77
21.400        77
21.420        60
21.440        67
21.460        67
21.480        83
21.500        63
21.520        63
21.540        43
21.560        87
21.580        57
21.600        33
21.620        27
21.640        57
21.660        73
21.680        70
21.700        50
21.720        57
21.740        43
21.760        73
21.780        80
21.800        63
21.820        53
21.840        53
21.860        60
21.880        70
21.900        43
21.920        43
21.940        50
21.960        60
21.980        43
22.000        73
22.020        53
22.040        73
22.060        80
22.080        50
22.100        50
22.120        33
22.140        57
22.160        53
22.180        30
22.200        63
22.220        57
22.240        67
22.260        53
22.280        47
22.300        43
22.320        70
22.340        80
22.360        67
22.380        30
22.400        53
22.420        43
22.440        67
22.460        67
22.480        73
22.500        67
22.520        57
22.540        57
22.560        73
22.580        87
22.600        40
22.620        53
22.640        63
22.660        73
22.680        50
22.700       100
22.720        43
22.740        43
22.760        87
22.780        57
22.800        57
22.820        70
22.840        63
22.860        43
22.880        40
22.900        63
22.920        50
22.940        60
22.960        67
22.980        53
23.000        57
23.020        50
23.040        53
23.060        47
23.080        73
23.100        50
23.120        97
23.140        57
23.160        33
23.180        47
23.200        53
23.220        57
23.240        60
23.260        60
23.280        43
23.300        53
23.320        47
23.340        60
23.360        43
23.380        50
23.400        67
23.420        50
23.440        37
23.460        53
23.480        43
23.500        50
23.520        40
23.540        63
23.560        60
23.580        40
23.600        50
23.620        50
23.640        43
23.660        77
23.680        47
23.700        47
23.720        50
23.740        40
23.760        57
23.780        63
23.800        40
23.820        90
23.840        47
23.860        50
23.880        70
23.900        50
23.920        43
23.940        57
23.960        43
23.980        57
24.000        53
24.020        67
24.040        23
24.060        50
24.080        53
24.100        43
24.120        40
24.140        50
24.160        37
24.180        40
24.200        37
24.220        50
24.240        40
24.260        60
24.280        67
24.300        33
24.320        40
24.340        37
24.360        43
24.380        30
24.400        40
24.420        50
24.440        60
24.460        30
24.480        40
24.500        40
24.520        47
24.540        63
24.560        23
24.580        77
24.600        50
24.620        40
24.640        43
24.660        43
24.680        43
24.700        60
24.720        67
24.740        57
24.760        70
24.780        57
24.800        47
24.820        70
24.840        80
24.860        90
24.880       100
24.900        47
24.920        57
24.940        37
24.960        47
24.980        70
25.000        33
25.020        67
25.040        57
25.060        53
25.080        60
25.100        33
25.120        40
25.140        83
25.160        47
25.180        53
25.200        60
25.220        53
25.240        47
25.260        37
25.280        50
25.300        40
25.320        37
25.340        47
25.360        37
25.380        43
25.400        43
25.420        47
25.440        27
25.460        40
25.480        40
25.500        50
25.520        57
25.540        33
25.560        23
25.580        43
25.600        40
25.620        53
25.640        37
25.660        57
25.680        27
25.700        47
25.720        33
25.740        30
25.760        40
25.780        30
25.800        30
25.820        43
25.840        50
25.860        53
25.880        47
25.900        60
25.920        60
25.940        27
25.960        37
25.980        57
26.000        40
26.020        33
26.040        57
26.060        47
26.080        73
26.100        40
26.120        37
26.140        40
26.160        53
26.180        43
26.200        33
26.220        17
26.240        43
26.260        33
26.280        47
26.300        60
26.320        40
26.340        47
26.360        37
26.380        27
26.400        40
26.420        30
26.440        40
26.460        40
26.480        43
26.500        57
26.520        43
26.540        23
26.560        33
26.580        33
26.600        33
26.620        30
26.640        53
26.660        67
26.680        30
26.700        50
26.720        43
26.740        37
26.760        30
26.780        43
26.800        37
26.820        47
26.840        50
26.860        37
26.880        50
26.900        40
26.920        60
26.940        47
26.960        50
26.980        53
27.000        47
27.020        40
27.040        50
27.060        37
27.080        47
27.100        43
27.120        50
27.140        50
27.160        47
27.180        37
27.200        20
27.220        37
27.240        40
27.260        23
27.280        13
27.300        47
27.320        43
27.340        70
27.360        30
27.380        43
27.400        47
27.420        27
27.440        47
27.460        30
27.480        37
27.500        43
27.520        47
27.540        13
27.560        37
27.580        37
27.600        50
27.620        53
27.640        27
27.660        30
27.680        40
27.700        37
27.720        40
27.740        33
27.760        37
27.780        37
27.800        53
27.820        47
27.840        30
27.860        47
27.880        13
27.900        53
27.920        17
27.940        20
27.960        30
27.980        33
28.000        37
28.020        47
28.040        33
28.060        30
28.080        30
28.100        17
28.120        47
28.140        37
28.160        50
28.180        13
28.200        37
28.220        27
28.240        40
28.260        37
28.280        53
28.300        37
28.320        60
28.340        30
28.360        53
28.380        47
28.400        30
28.420        43
28.440        40
28.460        33
28.480        43
28.500        63
28.520        37
28.540        33
28.560        37
28.580        43
28.600        37
28.620        10
28.640        37
28.660        27
28.680        23
28.700        37
28.720        13
28.740        37
28.760        90
28.780        27
28.800        20
28.820        13
28.840        37
28.860        33
28.880        33
28.900        20
28.920        47
28.940        50
28.960        57
28.980        10
29.000        33
29.020        50
29.040        33
29.060        50
29.080        27
29.100        33
29.120        47
29.140        33
29.160        60
29.180        53
29.200        60
29.220        77
29.240        67
29.260        50
29.280        90
29.300        73
29.320       117
29.340       110
29.360       123
29.380        97
29.400       100
29.420        93
29.440        67
29.460        73
29.480        60
29.500        37
29.520        40
29.540        30
29.560        33
29.580        13
29.600        20
29.620        43
29.640        47
29.660        33
29.680        37
29.700        50
29.720        27
29.740        30
29.760        20
29.780        23
29.800        37
29.820        37
29.840        30
29.860        37
29.880        27
29.900        40
29.920        37
29.940        17
29.960        43
29.980        47
30.000        27
30.020        57
30.040        27
30.060        27
30.080        37
30.100        37
30.120        30
30.140        27
30.160        23
30.180        40
30.200        27
30.220        40
30.240        37
30.260        27
30.280        30
30.300        30
30.320        27
30.340        37
30.360        30
30.380        40
30.400        47
30.420        20
30.440        40
30.460        37
30.480        13
30.500        30
30.520        33
30.540        17
30.560        50
30.580        17
30.600        23
30.620        27
30.640        20
30.660        33
30.680        40
30.700        23
30.720        33
30.740        63
30.760        33
30.780        33
30.800        40
30.820        43
30.840        27
30.860        40
30.880        37
30.900        37
30.920        37
30.940        23
30.960        40
30.980        33
31.000        23
31.020        37
31.040        37
31.060        40
31.080        37
31.100        37
31.120        30
31.140        27
31.160        27
31.180        30
31.200        40
31.220        20
31.240        23
31.260        40
31.280        43
31.300        37
31.320        37
31.340        23
31.360        30
31.380        20
31.400        30
31.420        27
31.440        57
31.460        47
31.480        27
31.500        40
31.520        23
31.540        40
31.560        23
31.580        37
31.600        33
31.620        20
31.640        47
31.660        40
31.680        47
31.700        23
31.720        30
31.740        33
31.760        27
31.780        20
31.800        33
31.820        17
31.840        40
31.860        33
31.880        53
31.900        30
31.920        40
31.940        27
31.960        40
31.980        40
32.000        53
32.020        50
32.040        53
32.060        47
32.080        63
32.100        63
32.120        63
32.140        57
32.160        77
32.180        73
32.200        77
32.220        87
32.240        80
32.260        87
32.280        90
32.300        70
32.320        40
32.340        53
32.360        60
32.380        60
32.400        50
32.420        23
32.440        43
32.460        13
32.480        37
32.500        23
32.520        20
32.540        33
32.560        20
32.580        27
32.600        37
32.620        33
32.640        17
32.660        17
32.680        27
32.700        33
32.720        20
32.740        23
32.760         7
32.780        27
32.800        10
32.820        33
32.840        30
32.860        37
32.880        30
32.900        30
32.920        33
32.940        33
32.960        33
32.980        37
33.000        47
33.020        27
33.040        47
33.060        30
33.080        50
33.100        53
33.120        30
33.140        43
33.160        23
33.180        23
33.200        33
33.220        40
33.240        17
33.260        20
33.280        17
33.300        27
33.320        47
33.340        33
33.360        27
33.380        27
33.400        40
33.420        37
33.440        37
33.460        27
33.480        17
33.500        33
33.520        47
33.540        50
33.560        50
33.580        27
33.600        20
33.620        23
33.640        40
33.660        40
33.680        17
33.700        23
33.720        20
33.740        13
33.760        10
33.780        30
33.800        27
33.820        40
33.840        30
33.860        30
33.880        43
33.900        23
33.920        37
33.940        30
33.960        40
33.980        37
34.000        17
34.020        43
34.040        33
34.060        23
34.080        47
34.100        33
34.120        40
34.140        30
34.160        23
34.180        43
34.200        43
34.220        37
34.240        30
34.260        40
34.280        37
34.300        47
34.320        63
34.340        67
34.360        50
34.380        57
34.400        90
34.420        73
34.440        83
34.460        97
34.480       120
34.500        73
34.520        80
34.540        73
34.560        70
34.580        63
34.600        60
34.620        53
34.640        33
34.660        43
34.680        37
34.700        30
34.720        47
34.740        43
34.760        60
34.780        27
34.800        43
34.820        23
34.840        40
34.860        30
34.880        20
34.900        57
34.920        37
34.940        30
34.960        27
34.980        53
35.000        37
35.020        63
35.040        37
35.060        53
35.080        50
35.100        60
35.120        47
35.140        77
35.160       100
35.180       173
35.200       160
35.220       130
35.240        90
35.260        87
35.280       117
35.300        93
35.320        77
35.340        67
35.360        43
35.380        47
35.400        60
35.420        67
35.440        53
35.460        37
35.480        50
35.500        37
35.520        30
35.540        53
35.560        30
35.580        33
35.600        30
35.620        30
35.640        37
35.660        23
35.680        40
35.700        30
35.720        53
35.740        53
35.760        53
35.780        43
35.800        53
35.820        60
35.840        37
35.860        40
35.880        73
35.900        33
35.920        33
35.940        43
35.960        33
35.980        40
36.000        27
36.020        40
36.040        40
36.060        43
36.080        33
36.100        37
36.120        37
36.140        40
36.160        30
36.180        27
36.200        87
36.220        57
36.240        33
36.260        50
36.280        47
36.300        40
36.320        17
36.340        20
36.360        40
36.380        43
36.400        43
36.420        30
36.440        47
36.460        43
36.480        40
36.500        33
36.520        40
36.540        37
36.560        37
36.580        37
36.600        53
36.620        60
36.640        63
36.660        47
36.680        47
36.700        37
36.720        40
36.740        37
36.760        60
36.780        53
36.800        67
36.820        40
36.840        40
36.860        40
36.880        50
36.900        53
36.920        43
36.940       110
36.960        63
36.980        67
37.000        67
37.020        60
37.040       103
37.060        90
37.080       110
37.100        80
37.120        87
37.140        60
37.160       107
37.180        87
37.200        90
37.220        83
37.240        60
37.260        93
37.280        97
37.300       137
37.320        60
37.340       110
37.360        93
37.380       103
37.400        87
37.420       140
37.440        93
37.460        97
37.480        90
37.500       127
37.520       133
37.540       103
37.560       120
37.580       113
37.600       113
37.620       183
37.640       123
37.660       170
37.680       147
37.700       123
37.720       143
37.740       217
37.760       177
37.780       250
37.800       213
37.820       247
37.840       277
37.860       333
37.880       307
37.900       387
37.920       383
37.940       456
37.960       450
37.980       533
38.000       643
38.020       763
38.040       936
38.060      1130
38.080      1423
38.100      1716
38.120      2026
38.140      2629
38.160      3385
38.180      4008
38.200      4918
38.220      6317
38.240      7204
38.260      8597
38.280      9110
38.300      9486
38.320      9649
38.340      9676
38.360      8610
38.380      8030
38.400      7157
38.420      6131
38.440      5081
38.460      4308
38.480      3662
38.500      2759
38.520      2189
38.540      1906
38.560      1493
38.580      1133
38.600       980
38.620       796
38.640       746
38.660       683
38.680       553
38.700       377
38.720       377
38.740       383
38.760       383
38.780       287
38.800       297
38.820       293
38.840       273
38.860       217
38.880       210
38.900       160
38.920       220
38.940       230
38.960       237
38.980       170
39.000       203
39.020       163
39.040       157
39.060       173
39.080       160
39.100       113
39.120       127
39.140       163
39.160       147
39.180       140
39.200       147
39.220       157
39.240       137
39.260       180
39.280       127
39.300       133
39.320       150
39.340       163
39.360       153
39.380       133
39.400       180
39.420       190
39.440       157
39.460       183
39.480       243
39.500       270
39.520       307
39.540       373
39.560       426
39.580       580
39.600       696
39.620       923
39.640      1173
39.660      1569
39.680      2296
39.700      2529
39.720      3192
39.740      3589
39.760      3739
39.780      3192
39.800      2772
39.820      2439
39.840      2169
39.860      1763
39.880      1549
39.900      1140
39.920       730
39.940       560
39.960       410
39.980       257
40.000       240
40.020       240
40.040       140
40.060       157
40.080        73
40.100       137
40.120       127
40.140        93
40.160       107
40.180        73
40.200        80
40.220        93
40.240        57
40.260        90
40.280        87
40.300        57
40.320        87
40.340        83
40.360        93
40.380        83
40.400        90
40.420        50
40.440        50
40.460        83
40.480        97
40.500        77
40.520        73
40.540        73
40.560        63
40.580        57
40.600        73
40.620        60
40.640        87
40.660        70
40.680        67
40.700       100
40.720        53
40.740        80
40.760        57
40.780        47
40.800        80
40.820        60
40.840        67
40.860        77
40.880        43
40.900        63
40.920        63
40.940        73
40.960        50
40.980        80
41.000        30
41.020        67
41.040        67
41.060        80
41.080        63
41.100        53
41.120        40
41.140        73
41.160        77
41.180        53
41.200        47
41.220        50
41.240        63
41.260        67
41.280        77
41.300        63
41.320        73
41.340        53
41.360        67
41.380        63
41.400        70
41.420        63
41.440        43
41.460        37
41.480        40
41.500        57
41.520        53
41.540        67
41.560        67
41.580        90
41.600       100
41.620        93
41.640        83
41.660       140
41.680        90
41.700       117
41.720       117
41.740       167
41.760       113
41.780       103
41.800        87
41.820        87
41.840        90
41.860        77
41.880        60
41.900        80
41.920        43
41.940        60
41.960        27
41.980        67
42.000        67
42.020        30
42.040        60
42.060        57
42.080        47
42.100        43
42.120        33
42.140        37
42.160        30
42.180        53
42.200        33
42.220        50
42.240        40
42.260        50
42.280        67
42.300        23
42.320        40
42.340        63
42.360        60
42.380        63
42.400        70
42.420        60
42.440        37
42.460        53
42.480        30
42.500        40
42.520        40
42.540        47
42.560        83
42.580        60
42.600        43
42.620        50
42.640        50
42.660        50
42.680        47
42.700        40
42.720        43
42.740        27
42.760        50
42.780        37
42.800        50
42.820        57
42.840        67
42.860        50
42.880        60
42.900        53
42.920        63
42.940        63
42.960        67
42.980        50
43.000        33
43.020        53
43.040        67
43.060        50
43.080        63
43.100        50
43.120        60
43.140        30
43.160        47
43.180        27
43.200        67
43.220        40
43.240        60
43.260        63
43.280        33
43.300        57
43.320        50
43.340        53
43.360        83
43.380        80
43.400        97
43.420       107
43.440        87
43.460       100
43.480        70
43.500        50
43.520        80
43.540        73
43.560        93
43.580        57
43.600        57
43.620        53
43.640        47
43.660        53
43.680        63
43.700        60
43.720        47
43.740        63
43.760        57
43.780        50
43.800        33
43.820        30
43.840        57
43.860        43
43.880        53
43.900        63
43.920        73
43.940        40
43.960        50
43.980        33
44.000        43
44.020        37
44.040        57
44.060        60
44.080        57
44.100        43
44.120        47
44.140        53
44.160        37
44.180        53
44.200        57
44.220        47
44.240        70
44.260        37
44.280        47
44.300        90
44.320        33
44.340        33
44.360        30
44.380        40
44.400        53
44.420        50
44.440        40
44.460        37
44.480        57
44.500        30
44.520        43
44.540        40
44.560        40
44.580        47
44.600        53
44.620        50
44.640        40
44.660        57
44.680        83
44.700        40
44.720        50
44.740        60
44.760        50
44.780        43
44.800        37
44.820        70
44.840        53
44.860        53
44.880        40
44.900        57
44.920        43
44.940        80
44.960        43
44.980        40
45.000        43
45.020        37
45.040        27
45.060        40
45.080        37
45.100        43
45.120        33
45.140        47
45.160        47
45.180        43
45.200        50
45.220        33
45.240        33
45.260        30
45.280        50
45.300        47
45.320        47
45.340        47
45.360        27
45.380        23
45.400        37
45.420        57
45.440        33
45.460        43
45.480        27
45.500        30
45.520        33
45.540        40
45.560        30
45.580        53
45.600        53
45.620        33
45.640        57
45.660        47
45.680        43
45.700        37
45.720        63
45.740        53
45.760        37
45.780        47
45.800        37
45.820        27
45.840        43
45.860        43
45.880        43
45.900        50
45.920        60
45.940        60
45.960        57
45.980        60
46.000        30
46.020        60
46.040        70
46.060        70
46.080        70
46.100        80
46.120        50
46.140        70
46.160        63
46.180        83
46.200        60
46.220        83
46.240        70
46.260        50
46.280        57
46.300        47
46.320        33
46.340        70
46.360        40
46.380        27
46.400        30
46.420        40
46.440        50
46.460        47
46.480        30
46.500        33
46.520        27
46.540        43
46.560        33
46.580        30
46.600        30
46.620        27
46.640        37
46.660        37
46.680        17
46.700        57
46.720        27
46.740        67
46.760        20
46.780        23
46.800        47
46.820        47
46.840        57
46.860        33
46.880        47
46.900        33
46.920        17
46.940        33
46.960        33
46.980        10
47.000        23
47.020        40
47.040        40
47.060        30
47.080        17
47.100        37
47.120        57
47.140        43
47.160        33
47.180        20
47.200        37
47.220        40
47.240        40
47.260        40
47.280        43
47.300        37
47.320        37
47.340        33
47.360        43
47.380        43
47.400        27
47.420        50
47.440        43
47.460        33
47.480        47
47.500        40
47.520        37
47.540        27
47.560        40
47.580        53
47.600        30
47.620        33
47.640        27
47.660        17
47.680        33
47.700        63
47.720        30
47.740        20
47.760        37
47.780        40
47.800        40
47.820        37
47.840        33
47.860        53
47.880        43
47.900        23
47.920        27
47.940        30
47.960        40
47.980        37
48.000        53
48.020        40
48.040        30
48.060        10
48.080        20
48.100        40
48.120        23
48.140        37
48.160        33
48.180        37
48.200        30
48.220        27
48.240        43
48.260        50
48.280        27
48.300        37
48.320        30
48.340        27
48.360        33
48.380        23
48.400        20
48.420        17
48.440        33
48.460        17
48.480        27
48.500        13
48.520        40
48.540        27
48.560        27
48.580        23
48.600        33
48.620        20
48.640        23
48.660        37
48.680        27
48.700        27
48.720        23
48.740        23
48.760        20
48.780        53
48.800        33
48.820        50
48.840        27
48.860        30
48.880        37
48.900        13
48.920        40
48.940        27
48.960        43
48.980        27
49.000        33
49.020        33
49.040        27
49.060        37
49.080        43
49.100        23
49.120        37
49.140        33
49.160        30
49.180         3
49.200        30
49.220        47
49.240        27
49.260        33
49.280        23
49.300        30
49.320        23
49.340        33
49.360        33
49.380        13
49.400        13
49.420        33
49.440        27
49.460        40
49.480        20
49.500        33
49.520        37
49.540        43
49.560        40
49.580        37
49.600        20
49.620        23
49.640        20
49.660        33
49.680        27
49.700        37
49.720        30
49.740        30
49.760        17
49.780        30
49.800        37
49.820        37
49.840        17
49.860        37
49.880        47
49.900        47
49.920        30
49.940        33
49.960        20
49.980        20
50.000        30
50.020        20
50.040        13
50.060        33
50.080        27
50.100        30
50.120        37
50.140        30
50.160        13
50.180        37
50.200        17
50.220        17
50.240        27
50.260        40
50.280        10
50.300        10
50.320        40
50.340        23
50.360        27
50.380        37
50.400        27
50.420        57
50.440        27
50.460        23
50.480        20
50.500        23
50.520        17
50.540        13
50.560        33
50.580        37
50.600        30
50.620        47
50.640        13
50.660         7
50.680        30
50.700        30
50.720        27
50.740        37
50.760        30
50.780        30
50.800        23
50.820        30
50.840        27
50.860        23
50.880        23
50.900        33
50.920        30
50.940        13
50.960        20
50.980        17
51.000        27
51.020        20
51.040        30
51.060        27
51.080        37
51.100        33
51.120        30
51.140        20
51.160        30
51.180        13
51.200        20
51.220        13
51.240        27
51.260        27
51.280        23
51.300        10
51.320        33
51.340        27
51.360        17
51.380        17
51.400         7
51.420        17
51.440        23
51.460        17
51.480         7
51.500        30
51.520        33
51.540        23
51.560        50
51.580        23
51.600        30
51.620        37
51.640        30
51.660        23
51.680        10
51.700        13
51.720        30
51.740        17
51.760        17
51.780        23
51.800        20
51.820        33
51.840        27
51.860        27
51.880        20
51.900        37
51.920        13
51.940        10
51.960        33
51.980        23
52.000        30
52.020        30
52.040        33
52.060        23
52.080        33
52.100        27
52.120        37
52.140        30
52.160        17
52.180        13
52.200        27
52.220        17
52.240        17
52.260        13
52.280        30
52.300        20
52.320        17
52.340        27
52.360        50
52.380        20
52.400        17
52.420        17
52.440        43
52.460        20
52.480        33
52.500        33
52.520        27
52.540        33
52.560        40
52.580        13
52.600        50
52.620        43
52.640        37
52.660        40
52.680        27
52.700        40
52.720        30
52.740        13
52.760        37
52.780        33
52.800        23
52.820        13
52.840        33
52.860        23
52.880        20
52.900        20
52.920        10
52.940        13
52.960        27
52.980        37
53.000        33
53.020        23
53.040        27
53.060        23
53.080        40
53.100         3
53.120        30
53.140        13
53.160        17
53.180        27
53.200        17
53.220        10
53.240        17
53.260        30
53.280        53
53.300        27
53.320        20
53.340        13
53.360        10
53.380        33
53.400        23
53.420        33
53.440        27
53.460        27
53.480        17
53.500        27
53.520        30
53.540        17
53.560        13
53.580        23
53.600        20
53.620        27
53.640        27
53.660        17
53.680        13
53.700        17
53.720        27
53.740        20
53.760        20
53.780        33
53.800        17
53.820        33
53.840        30
53.860        10
53.880        13
53.900        20
53.920        23
53.940        27
53.960        20
53.980        27
54.000        27
54.020        27
54.040        23
54.060        10
54.080        27
54.100        23
54.120        37
54.140        33
54.160        13
54.180        10
54.200        23
54.220         7
54.240        10
54.260         3
54.280        13
54.300        17
54.320        27
54.340        33
54.360        23
54.380        27
54.400        37
54.420        17
54.440        33
54.460        23
54.480        17
54.500        20
54.520        10
54.540        23
54.560        20
54.580        27
54.600        40
54.620        30
54.640        13
54.660        30
54.680        20
54.700        10
54.720        30
54.740        23
54.760        13
54.780        17
54.800        20
54.820        27
54.840        17
54.860        33
54.880        23
54.900        37
54.920        23
54.940        17
54.960        33
54.980        17
55.000        37
55.020        13
55.040        30
55.060        10
55.080        27
55.100        17
55.120        13
55.140        27
55.160        37
55.180        33
55.200        13
55.220        10
55.240        37
55.260        23
55.280        10
55.300        20
55.320        17
55.340        23
55.360        30
55.380        23
55.400        17
55.420        23
55.440        47
55.460        10
55.480        17
55.500        13
55.520        27
55.540        13
55.560        10
55.580        20
55.600        10
55.620        30
55.640        30
55.660        13
55.680        23
55.700        17
55.720        20
55.740        10
55.760        20
55.780        23
55.800        10
55.820        20
55.840         7
55.860        17
55.880        20
55.900        40
55.920        10
55.940        17
55.960        30
55.980        17
56.000        20
56.020        17
56.040        47
56.060        10
56.080        17
56.100        20
56.120        27
56.140        37
56.160        10
56.180        37
56.200        13
56.220        20
56.240         7
56.260        17
56.280        23
56.300        27
56.320        20
56.340        23
56.360        20
56.380        13
56.400        10
56.420        30
56.440        37
56.460        27
56.480        13
56.500        37
56.520        17
56.540         0
56.560        23
56.580        13
56.600        23
56.620        33
56.640        17
56.660        20
56.680        30
56.700        27
56.720        40
56.740        27
56.760        13
56.780        13
56.800        10
56.820         7
56.840        30
56.860        27
56.880        20
56.900        13
56.920        17
56.940        33
56.960        30
56.980        43
57.000        33
57.020        23
57.040        27
57.060        23
57.080        37
57.100        17
57.120        33
57.140        23
57.160        23
57.180        33
57.200        33
57.220        33
57.240        63
57.260        43
57.280        60
57.300        60
57.320        77
57.340        60
57.360        80
57.380        60
57.400        70
57.420        63
57.440        97
57.460        93
57.480       107
57.500       113
57.520       180
57.540       263
57.560       240
57.580       250
57.600       213
57.620       110
57.640       100
57.660        73
57.680        87
57.700       103
57.720       150
57.740       133
57.760        63
57.780        50
57.800        23
57.820        43
57.840        40
57.860        37
57.880        33
57.900        17
57.920        17
57.940        30
57.960        20
57.980        27
58.000        17
58.020        23
58.040        30
58.060        10
58.080        17
58.100        20
58.120        23
58.140        17
58.160        17
58.180        27
58.200        23
58.220        13
58.240        20
58.260        10
58.280        17
58.300        13
58.320        20
58.340        23
58.360        10
58.380        30
58.400        20
58.420        43
58.440        10
58.460        10
58.480        33
58.500        10
58.520        23
58.540        13
58.560        40
58.580        27
58.600        13
58.620        17
58.640        17
58.660        17
58.680        10
58.700        17
58.720        10
58.740        10
58.760         3
58.780        27
58.800        33
58.820        30
58.840        13
58.860        27
58.880        17
58.900        17
58.920        27
58.940        30
58.960        13
58.980        20
59.000        17
59.020        13
59.040        10
59.060        23
59.080        23
59.100         3
59.120        30
59.140        17
59.160        17
59.180        10
59.200        17
59.220        10
59.240        10
59.260        23
59.280        13
59.300        10
59.320        27
59.340        23
59.360        13
59.380        17
59.400        30
59.420        10
59.440        17
59.460        13
59.480        27
59.500        17
59.520        27
59.540        23
59.560        27
59.580        43
59.600        20
59.620        30
59.640        23
59.660        27
59.680        20
59.700        20
59.720        33
59.740        33
59.760        20
59.780        17
59.800        30
59.820        23
59.840        10
59.860         7
59.880        33
59.900        13
59.920        17
59.940        10
59.960        33
59.980        20
60.000        10
