20.000        83
20.020        67
20.040        37
20.060        60
20.080        67
20.100        73
20.120        53
20.140        63
20.160        73
20.180        87
20.200        40
20.220        33
20.240        63
20.260        63
20.280        80
20.300        70
20.320        33
20.340        73
20.360        57
20.380        80
20.400        63
20.420        47
20.440        63
20.460        57
20.480        67
20.500        47
20.520        77
20.540        50
20.560        47
20.580        83
20.600        70
20.620        47
20.640        60
20.660        80
20.680        47
20.700        33
20.720        70
20.740        70
20.760        67
20.780        67
20.800        60
20.820        43
20.840        60
20.860        40
20.880        37
20.900        60
20.920        33
20.940        53
20.960        40
20.980        47
21.000        73
21.020        57
21.040        80
21.060        53
21.080        43
21.100        80
21.120        90
21.140        90
21.160        70
21.180        57
21.200        63
21.220        53
21.240        57
21.260        37
21.280        70
21.300        57
21.320        43
21.340        53
21.360        50
21.380        40
21.400        53
21.420        80
21.440        80
21.460        67
21.480        80
21.500        57
21.520        57
21.540        50
21.560        73
21.580        60
21.600        43
21.620        40
21.640        43
21.660        73
21.680        50
21.700        60
21.720        70
21.740        43
21.760        67
21.780        60
21.800        60
21.820        50
21.840        60
21.860        67
21.880        70
21.900        63
21.920        60
21.940        60
21.960        47
21.980        43
22.000        70
22.020        87
22.040        53
22.060        47
22.080        63
22.100        57
22.120        63
22.140        47
22.160        60
22.180        60
22.200        87
22.220        57
22.240        60
22.260        53
22.280        57
22.300        43
22.320        93
22.340        40
22.360        67
22.380        47
22.400        67
22.420        63
22.440        67
22.460        67
22.480        80
22.500        60
22.520        67
22.540        87
22.560        93
22.580        87
22.600       123
22.620        97
22.640       120
22.660       110
22.680        87
22.700        73
22.720       103
22.740        67
22.760        57
22.780        83
22.800        37
22.820        60
22.840        40
22.860        57
22.880        53
22.900        43
22.920        77
22.940        60
22.960        47
22.980        70
23.000        53
23.020        40
23.040        67
23.060        50
23.080        60
23.100        93
23.120        33
23.140        77
23.160        43
23.180        53
23.200        53
23.220        43
23.240        47
23.260        23
23.280        63
23.300        37
23.320        53
23.340        53
23.360        47
23.380        47
23.400        73
23.420        47
23.440        47
23.460        40
23.480        50
23.500        37
23.520        47
23.540        47
23.560        40
23.580        50
23.600        47
23.620        50
23.640        47
23.660        70
23.680        40
23.700        30
23.720        43
23.740        47
23.760        80
23.780        67
23.800        63
23.820        37
23.840        50
23.860        50
23.880        63
23.900        47
23.920        33
23.940        77
23.960        63
23.980        73
24.000        50
24.020        53
24.040        57
24.060        57
24.080        40
24.100        47
24.120        37
24.140        27
24.160        47
24.180        47
24.200        23
24.220        67
24.240        73
24.260        83
24.280        43
24.300        50
24.320        37
24.340        50
24.360        40
24.380        60
24.400        33
24.420        60
24.440        63
24.460        47
24.480        50
24.500        30
24.520        47
24.540        43
24.560        43
24.580        37
24.600        47
24.620        50
24.640        43
24.660        33
24.680        73
24.700        37
24.720        53
24.740        37
24.760        57
24.780        60
24.800        53
24.820        47
24.840        50
24.860        47
24.880        43
24.900        53
24.920        60
24.940        30
24.960        30
24.980        43
25.000        30
25.020        50
25.040        40
25.060        43
25.080        47
25.100        53
25.120        23
25.140        37
25.160        53
25.180        53
25.200        57
25.220        57
25.240        47
25.260        57
25.280        63
25.300        63
25.320        63
25.340        57
25.360        43
25.380        53
25.400        53
25.420        53
25.440        40
25.460        40
25.480        80
25.500        57
25.520        53
25.540       127
25.560        80
25.580       210
25.600       253
25.620       290
25.640       280
25.660       230
25.680       177
25.700       187
25.720       120
25.740        73
25.760        77
25.780        50
25.800        30
25.820        40
25.840        83
25.860        37
25.880        33
25.900        67
25.920        57
25.940        40
25.960        37
25.980        53
26.000        57
26.020        60
26.040        63
26.060        57
26.080        30
26.100        67
26.120        40
26.140        57
26.160        27
26.180        47
26.200        43
26.220        47
26.240        50
26.260        47
26.280        70
26.300        47
26.320        37
26.340        57
26.360        43
26.380        47
26.400        50
26.420        43
26.440        50
26.460        43
26.480        47
26.500        50
26.520        27
26.540        40
26.560        43
26.580        37
26.600        43
26.620        40
26.640        23
26.660        73
26.680        37
26.700        57
26.720        43
26.740        43
26.760        30
26.780        50
26.800        20
26.820        47
26.840        30
26.860        33
26.880        30
26.900        50
26.920        43
26.940        40
26.960        27
26.980        47
27.000        53
27.020        33
27.040        43
27.060        23
27.080        37
27.100        47
27.120        47
27.140        53
27.160        23
27.180        40
27.200        37
27.220        50
27.240        23
27.260        20
27.280        47
27.300        50
27.320        50
27.340        57
27.360        43
27.380        17
27.400        47
27.420        47
27.440        53
27.460        43
27.480        43
27.500        63
27.520        37
27.540        17
27.560        53
27.580        33
27.600        27
27.620        27
27.640        53
27.660        37
27.680        30
27.700        50
27.720        30
27.740        40
27.760        37
27.780        53
27.800        27
27.820        57
27.840        43
27.860        43
27.880        30
27.900        43
27.920        27
27.940        30
27.960        27
27.980        37
28.000        43
28.020        30
28.040        30
28.060        43
28.080        30
28.100        37
28.120        30
28.140        37
28.160        53
28.180        37
28.200        40
28.220        50
28.240        40
28.260        40
28.280        43
28.300        43
28.320        53
28.340        43
28.360        40
28.380        33
28.400        37
28.420        53
28.440        47
28.460        57
28.480        50
28.500        37
28.520        40
28.540        27
28.560        23
28.580        47
28.600        50
28.620        17
28.640        67
28.660        37
28.680        17
28.700        43
28.720        37
28.740        27
28.760        33
28.780        30
28.800        53
28.820        47
28.840        43
28.860        50
28.880        57
28.900        43
28.920        50
28.940        37
28.960        73
28.980        33
29.000        50
29.020        47
29.040        60
29.060        37
29.080        50
29.100        33
29.120        53
29.140        60
29.160        63
29.180        43
29.200        47
29.220        53
29.240        43
29.260        53
29.280        77
29.300        70
29.320        27
29.340        67
29.360        33
29.380        33
29.400        40
29.420        67
29.440        47
29.460        43
29.480        33
29.500        40
29.520        43
29.540        37
29.560        57
29.580        33
29.600        57
29.620        30
29.640        20
29.660        43
29.680        33
29.700        47
29.720        23
29.740        50
29.760        43
29.780        43
29.800        20
29.820        47
29.840        40
29.860        13
29.880        40
29.900        50
29.920        40
29.940        33
29.960        40
29.980        50
30.000        43
30.020        43
30.040        30
30.060        33
30.080        67
30.100        37
30.120        43
30.140        40
30.160        27
30.180        33
30.200        50
30.220        33
30.240        63
30.260        23
30.280        37
30.300        17
30.320        43
30.340        37
30.360        33
30.380        33
30.400        47
30.420        50
30.440        17
30.460        70
30.480        40
30.500        37
30.520        37
30.540        20
30.560        30
30.580        40
30.600        43
30.620        40
30.640        20
30.660        43
30.680        47
30.700        37
30.720        20
30.740        30
30.760        53
30.780        40
30.800        30
30.820        37
30.840        30
30.860        37
30.880        37
30.900        40
30.920        40
30.940        47
30.960        37
30.980        50
31.000        43
31.020        43
31.040        27
31.060        20
31.080        27
31.100        57
31.120        47
31.140        27
31.160        47
31.180        30
31.200        23
31.220        17
31.240        30
31.260        43
31.280        23
31.300        27
31.320        40
31.340        27
31.360        43
31.380        47
31.400        40
31.420        50
31.440        53
31.460        17
31.480        33
31.500        20
31.520        23
31.540        47
31.560        23
31.580        27
31.600        30
31.620        17
31.640        43
31.660        13
31.680        43
31.700        43
31.720        40
31.740        40
31.760        50
31.780        33
31.800        40
31.820        33
31.840        47
31.860        33
31.880        33
31.900        40
31.920        47
31.940        43
31.960        43
31.980        43
32.000        70
32.020        80
32.040        67
32.060        83
32.080       110
32.100       123
32.120       153
32.140       140
32.160       170
32.180       157
32.200       167
32.220       203
32.240       163
32.260       193
32.280       213
32.300       110
32.320       103
32.340        90
32.360        73
32.380        93
32.400        60
32.420        47
32.440        70
32.460        47
32.480        47
32.500        47
32.520        47
32.540        33
32.560        30
32.580        33
32.600        37
32.620        33
32.640        50
32.660        43
32.680        13
32.700        37
32.720        33
32.740        37
32.760        40
32.780        40
32.800        37
32.820        40
32.840        30
32.860        33
32.880        33
32.900        53
32.920        40
32.940        40
32.960        50
32.980        40
33.000        37
33.020        43
33.040        40
33.060        33
33.080        43
33.100        47
33.120        27
33.140        33
33.160        37
33.180        37
33.200        47
33.220        20
33.240        33
33.260        40
33.280        27
33.300        40
33.320        33
33.340        43
33.360        23
33.380        30
33.400        43
33.420        33
33.440        27
33.460        30
33.480        27
33.500        27
33.520        43
33.540        20
33.560        30
33.580        50
33.600        33
33.620        40
33.640        40
33.660        23
33.680        37
33.700        43
33.720        47
33.740        63
33.760        43
33.780        37
33.800        47
33.820        30
33.840        40
33.860        30
33.880        30
33.900        40
33.920        40
33.940        20
33.960        33
33.980        37
34.000        37
34.020        57
34.040        37
34.060        40
34.080        27
34.100        27
34.120        30
34.140        23
34.160        20
34.180        43
34.200        53
34.220        23
34.240        27
34.260        17
34.280        30
34.300        33
34.320        27
34.340        33
34.360        37
34.380        17
34.400        27
34.420        30
34.440        20
34.460        23
34.480        13
34.500        40
34.520        57
34.540        33
34.560        20
34.580        33
34.600        23
34.620        13
34.640        33
34.660        47
34.680        37
34.700        33
34.720        40
34.740        33
34.760        27
34.780        23
34.800        23
34.820        43
34.840        23
34.860        27
34.880        17
34.900        47
34.920        40
34.940        37
34.960        63
34.980        47
35.000        67
35.020        63
35.040        53
35.060        70
35.080       120
35.100       130
35.120       203
35.140       237
35.160       263
35.180       270
35.200       250
35.220       200
35.240       133
35.260       150
35.280       133
35.300       110
35.320       110
35.340        43
35.360        33
35.380        47
35.400        27
35.420        50
35.440        20
35.460        37
35.480        33
35.500        53
35.520        17
35.540        50
35.560        53
35.580        63
35.600        37
35.620        50
35.640        47
35.660        23
35.680        37
35.700        53
35.720        47
35.740        57
35.760        60
35.780        67
35.800        67
35.820        50
35.840        77
35.860        53
35.880        70
35.900        87
35.920        87
35.940        73
35.960        53
35.980        43
36.000        57
36.020        47
36.040        50
36.060        50
36.080        37
36.100        50
36.120        23
36.140        40
36.160        27
36.180        33
36.200        50
36.220        43
36.240        37
36.260        40
36.280        30
36.300        43
36.320        30
36.340        40
36.360        37
36.380        47
36.400        20
36.420        30
36.440        23
36.460        37
36.480        40
36.500        47
36.520        47
36.540        37
36.560        53
36.580        30
36.600        40
36.620        37
36.640        40
36.660        33
36.680        33
36.700        47
36.720        60
36.740        30
36.760        43
36.780        30
36.800        37
36.820        37
36.840        47
36.860        53
36.880        33
36.900        33
36.920        43
36.940        30
36.960        47
36.980        40
37.000        33
37.020        33
37.040        23
37.060        23
37.080        13
37.100        27
37.120        20
37.140        40
37.160        27
37.180        10
37.200        27
37.220        40
37.240        30
37.260        20
37.280        43
37.300        50
37.320        20
37.340        30
37.360        13
37.380        33
37.400        50
37.420        27
37.440        37
37.460        43
37.480        40
37.500        37
37.520        40
37.540        20
37.560        33
37.580        43
37.600        30
37.620        47
37.640        30
37.660        33
37.680        33
37.700        60
37.720        70
37.740        50
37.760       103
37.780        73
37.800        90
37.820        73
37.840        77
37.860        73
37.880        70
37.900        60
37.920        60
37.940        53
37.960        37
37.980        30
38.000        27
38.020        17
38.040        37
38.060        53
38.080        37
38.100        33
38.120        43
38.140        43
38.160        40
38.180        50
38.200        53
38.220        23
38.240        40
38.260        20
38.280        33
38.300        50
38.320        27
38.340        53
38.360        33
38.380        57
38.400        47
38.420        53
38.440        73
38.460        57
38.480        63
38.500        50
38.520        80
38.540        93
38.560        67
38.580        57
38.600        57
38.620        77
38.640        70
38.660        27
38.680        57
38.700        57
38.720        83
38.740        67
38.760        80
38.780        67
38.800        70
38.820        70
38.840        77
38.860        83
38.880        80
38.900        90
38.920        90
38.940        87
38.960        90
38.980        73
39.000        90
39.020       110
39.040        90
39.060        77
39.080        90
39.100        73
39.120        80
39.140        77
39.160       117
39.180       133
39.200        83
39.220       133
39.240        87
39.260        90
39.280       107
39.300       130
39.320       123
39.340       153
39.360       167
39.380       147
39.400       160
39.420       160
39.440       210
39.460       207
39.480       190
39.500       303
39.520       293
39.540       330
39.560       510
39.580       490
39.600       600
39.620       726
39.640       886
39.660      1193
39.680      1549
39.700      1726
39.720      2582
39.740      2886
39.760      3142
39.780      3689
39.800      4362
39.820      4818
39.840      5531
39.860      5648
39.880      5421
39.900      5185
39.920      4751
39.940      4368
39.960      3812
39.980      3382
40.000      2816
40.020      2199
40.040      1793
40.060      1516
40.080      1106
40.100       763
40.120       686
40.140       506
40.160       490
40.180       397
40.200       307
40.220       247
40.240       273
40.260       230
40.280       187
40.300       167
40.320       217
40.340       137
40.360       160
40.380       157
40.400        83
40.420       117
40.440       127
40.460       103
40.480        73
40.500        93
40.520        90
40.540       103
40.560       100
40.580       117
40.600        97
40.620        97
40.640       100
40.660        77
40.680        93
40.700        60
40.720        53
40.740        67
40.760        97
40.780        77
40.800        63
40.820        70
40.840        80
40.860        73
40.880        87
40.900        67
40.920        57
40.940        70
40.960        57
40.980        77
41.000        63
41.020        57
41.040        70
41.060        87
41.080        53
41.100        53
41.120        37
41.140        53
41.160        67
41.180        80
41.200        63
41.220        37
41.240        47
41.260        43
41.280        63
41.300        50
41.320        63
41.340        60
41.360        60
41.380        50
41.400        53
41.420        60
41.440        33
41.460        47
41.480        47
41.500        57
41.520        67
41.540        43
41.560        37
41.580        23
41.600        63
41.620        63
41.640        57
41.660        73
41.680       103
41.700        97
41.720       100
41.740        80
41.760       103
41.780        70
41.800        60
41.820        67
41.840        73
41.860        53
41.880        37
41.900        37
41.920        37
41.940        33
41.960        47
41.980        43
42.000        37
42.020        50
42.040        30
42.060        40
42.080        37
42.100        50
42.120        50
42.140        63
42.160        30
42.180        57
42.200        20
42.220        37
42.240        43
42.260        37
42.280        57
42.300        47
42.320        30
42.340        37
42.360        37
42.380        47
42.400        43
42.420        30
42.440        47
42.460        37
42.480        47
42.500        27
42.520        30
42.540        43
42.560        47
42.580        20
42.600        50
42.620        40
42.640        60
42.660        47
42.680        43
42.700        60
42.720        43
42.740        50
42.760        37
42.780        27
42.800        33
42.820        30
42.840        30
42.860        33
42.880        17
42.900        37
42.920        57
42.940        27
42.960        37
42.980        50
43.000        27
43.020        50
43.040        37
43.060        43
43.080        30
43.100        63
43.120        40
43.140        70
43.160        47
43.180        60
43.200        40
43.220        50
43.240        43
43.260        73
43.280        83
43.300        90
43.320       127
43.340       220
43.360       297
43.380       300
43.400       263
43.420       277
43.440       213
43.460       183
43.480       117
43.500       193
43.520       183
43.540       120
43.560       103
43.580        97
43.600        47
43.620        33
43.640        43
43.660        23
43.680        53
43.700        57
43.720        40
43.740        43
43.760        50
43.780        43
43.800        43
43.820        40
43.840        37
43.860        20
43.880        43
43.900        27
43.920        47
43.940        37
43.960        43
43.980        37
44.000        50
44.020        30
44.040        67
44.060        27
44.080        30
44.100        60
44.120        33
44.140        50
44.160        33
44.180        40
44.200        40
44.220        50
44.240        50
44.260        27
44.280        37
44.300        50
44.320        37
44.340        57
44.360        33
44.380        30
44.400        30
44.420        50
44.440        27
44.460        40
44.480        30
44.500        33
44.520        47
44.540        27
44.560        40
44.580        43
44.600        23
44.620        33
44.640        13
44.660        37
44.680        20
44.700        37
44.720        30
44.740        13
44.760        37
44.780        37
44.800        23
44.820        43
44.840        33
44.860        27
44.880        27
44.900        50
44.920        50
44.940        27
44.960        30
44.980        10
45.000        23
45.020        33
45.040        30
45.060        27
45.080        33
45.100        20
45.120        17
45.140        23
45.160        27
45.180        23
45.200        33
45.220        50
45.240        23
45.260        37
45.280        33
45.300        17
45.320        23
45.340        50
45.360        47
45.380        37
45.400        40
45.420        40
45.440        27
45.460        30
45.480        37
45.500        40
45.520        37
45.540        50
45.560        43
45.580        30
45.600        47
45.620        27
45.640        50
45.660        50
45.680        17
45.700        50
45.720        60
45.740        47
45.760        43
45.780        43
45.800        73
45.820        33
45.840        53
45.860        60
45.880        57
45.900        70
45.920        87
45.940        87
45.960        80
45.980        93
46.000       137
46.020       120
46.040       150
46.060       160
46.080       177
46.100       177
46.120       220
46.140       223
46.160       223
46.180       233
46.200       140
46.220       187
46.240       140
46.260       193
46.280       187
46.300       167
46.320       190
46.340       137
46.360       113
46.380       107
46.400       110
46.420        87
46.440        97
46.460        90
46.480        63
46.500        73
46.520        53
46.540        33
46.560        47
46.580        63
46.600        40
46.620        50
46.640        37
46.660        37
46.680        40
46.700        33
46.720        43
46.740        27
46.760        40
46.780        47
46.800        27
46.820        13
46.840        40
46.860        40
46.880        50
46.900        43
46.920        17
46.940        13
46.960        37
46.980        40
47.000        40
47.020        33
47.040        40
47.060        43
47.080        30
47.100        43
47.120        40
47.140        27
47.160        40
47.180        20
47.200        37
47.220        43
47.240        50
47.260        37
47.280        33
47.300        40
47.320        50
47.340        23
47.360        27
47.380        33
47.400        50
47.420        33
47.440        50
47.460        43
47.480        37
47.500        33
47.520        47
47.540        27
47.560        27
47.580        33
47.600        27
47.620        23
47.640        47
47.660        17
47.680        30
47.700        30
47.720        23
47.740        20
47.760        40
47.780        30
47.800        33
47.820        27
47.840        20
47.860        17
47.880        20
47.900        27
47.920        10
47.940        33
47.960        20
47.980        27
48.000        23
48.020        20
48.040        30
48.060        37
48.080        23
48.100        27
48.120        47
48.140        23
48.160        30
48.180        23
48.200        20
48.220        27
48.240        27
48.260        23
48.280        47
48.300        47
48.320        33
48.340        37
48.360        20
48.380        37
48.400        27
48.420        37
48.440        40
48.460        37
48.480        43
48.500        37
48.520        30
48.540        17
48.560        17
48.580        40
48.600        20
48.620        47
48.640        13
48.660        23
48.680        10
48.700        30
48.720        33
48.740        10
48.760        37
48.780        27
48.800        33
48.820        23
48.840        27
48.860        27
48.880         7
48.900        30
48.920        23
48.940        23
48.960        17
48.980        20
49.000        33
49.020        17
49.040        20
49.060        13
49.080        17
49.100        30
49.120        30
49.140        20
49.160        20
49.180        30
49.200        20
49.220        20
49.240        23
49.260        40
49.280        20
49.300        40
49.320        17
49.340        17
49.360        10
49.380         7
49.400        30
49.420        30
49.440        27
49.460        23
49.480        30
49.500        40
49.520        33
49.540        20
49.560        23
49.580        23
49.600        13
49.620        23
49.640        27
49.660        50
49.680        13
49.700        27
49.720         7
49.740        23
49.760        20
49.780        27
49.800        27
49.820        20
49.840        33
49.860        27
49.880        43
49.900        20
49.920        13
49.940        33
49.960        13
49.980        33
50.000        40
50.020        20
50.040        10
50.060        27
50.080        23
50.100        27
50.120        13
50.140        23
50.160        20
50.180        17
50.200        37
50.220        23
50.240        13
50.260        40
50.280        20
50.300        27
50.320        33
50.340        33
50.360        20
50.380        27
50.400        20
50.420        27
50.440        23
50.460        30
50.480        13
50.500        23
50.520        40
50.540        30
50.560        23
50.580        17
50.600        10
50.620        20
50.640        33
50.660        37
50.680        23
50.700         3
50.720         3
50.740        10
50.760        17
50.780        13
50.800        23
50.820        20
50.840        20
50.860        27
50.880        20
50.900        33
50.920        13
50.940        17
50.960        47
50.980        23
51.000        20
51.020        30
51.040         7
51.060        20
51.080        13
51.100        30
51.120        23
51.140        17
51.160        20
51.180        30
51.200        27
51.220        30
51.240        37
51.260        20
51.280        17
51.300        20
51.320        23
51.340        23
51.360        20
51.380        23
51.400        27
51.420        10
51.440        23
51.460        40
51.480        30
51.500        23
51.520        23
51.540        30
51.560        33
51.580        27
51.600        17
51.620        23
51.640        33
51.660        13
51.680        13
51.700        27
51.720        27
51.740        13
51.760        23
51.780        37
51.800        27
51.820         7
51.840        17
51.860        17
51.880        17
51.900        17
51.920        17
51.940        13
51.960        27
51.980        27
52.000        17
52.020        17
52.040        10
52.060        17
52.080        27
52.100        37
52.120        17
52.140         7
52.160        27
52.180        13
52.200        13
52.220        30
52.240        20
52.260        30
52.280        10
52.300        23
52.320        30
52.340        13
52.360        13
52.380        37
52.400        10
52.420        23
52.440        23
52.460        20
52.480        23
52.500        47
52.520        90
52.540        80
52.560        93
52.580       117
52.600       123
52.620        97
52.640        63
52.660        63
52.680        43
52.700        50
52.720        63
52.740        67
52.760        67
52.780        40
52.800        43
52.820        23
52.840        20
52.860        27
52.880        17
52.900         7
52.920        13
52.940        30
52.960        17
52.980        13
53.000         7
53.020        20
53.040        17
53.060        17
53.080        27
53.100         7
53.120        20
53.140        20
53.160        23
53.180        20
53.200        33
53.220        23
53.240        13
53.260        30
53.280        27
53.300        13
53.320        33
53.340        13
53.360        13
53.380        17
53.400        20
53.420        17
53.440        20
53.460        17
53.480        27
53.500        10
53.520        17
53.540        20
53.560        40
53.580        27
53.600        40
53.620        23
53.640        27
53.660        27
53.680        23
53.700        17
53.720        17
53.740        20
53.760        13
53.780        13
53.800        23
53.820        13
53.840        27
53.860        23
53.880        23
53.900        30
53.920        23
53.940        20
53.960        10
53.980        13
54.000        13
54.020        40
54.040        13
54.060        33
54.080         7
54.100        23
54.120        17
54.140        20
54.160        27
54.180        23
54.200        20
54.220        23
54.240        17
54.260        23
54.280        10
54.300        17
54.320        13
54.340        20
54.360        23
54.380        10
54.400        20
54.420        33
54.440        17
54.460        17
54.480        17
54.500        13
54.520        17
54.540        30
54.560        10
54.580        13
54.600        17
54.620        20
54.640        10
54.660        23
54.680        10
54.700        23
54.720        20
54.740        27
54.760        23
54.780        17
54.800        20
54.820        27
54.840        20
54.860        13
54.880        13
54.900        27
54.920        20
54.940        17
54.960        23
54.980        27
55.000        17
55.020        20
55.040         7
55.060        13
55.080        23
55.100        20
55.120        17
55.140        23
55.160        17
55.180        17
55.200        13
55.220        10
55.240        43
55.260        10
55.280        33
55.300        17
55.320        17
55.340        13
55.360        30
55.380        20
55.400        20
55.420        27
55.440        20
55.460         7
55.480        23
55.500        17
55.520        20
55.540        20
55.560        20
55.580        13
55.600         7
55.620        10
55.640        10
55.660        27
55.680        17
55.700        10
55.720        13
55.740        43
55.760        40
55.780        13
55.800        27
55.820        27
55.840        17
55.860        30
55.880         7
55.900        13
55.920        17
55.940        17
55.960        23
55.980        23
56.000        33
56.020        33
56.040        43
56.060        33
56.080        23
56.100         7
56.120        30
56.140        30
56.160        17
56.180        30
56.200        10
56.220        27
56.240        17
56.260        23
56.280        20
56.300        13
56.320        20
56.340        20
56.360        20
56.380        13
56.400        17
56.420        30
56.440        30
56.460        17
56.480        23
56.500        27
56.520        33
56.540        17
56.560        27
56.580        10
56.600        20
56.620        23
56.640        23
56.660        13
56.680        27
56.700        40
56.720        17
56.740        23
56.760        20
56.780        17
56.800        27
56.820        27
56.840        13
56.860        20
56.880        27
56.900        30
56.920        23
56.940        10
56.960        33
56.980        27
57.000        20
57.020        23
57.040        33
57.060        23
57.080        43
57.100        23
57.120        33
57.140        27
57.160        33
57.180        40
57.200        43
57.220        50
57.240        60
57.260        37
57.280        77
57.300        70
57.320       130
57.340        53
57.360       113
57.380       117
57.400       117
57.420       127
57.440       130
57.460       150
57.480       190
57.500       230
57.520       227
57.540       237
57.560       297
57.580       167
57.600       170
57.620       147
57.640       110
57.660       127
57.680       153
57.700       137
57.720       117
57.740       103
57.760        83
57.780        50
57.800        47
57.820        53
57.840        30
57.860        33
57.880        20
57.900        33
57.920        27
57.940        30
57.960        53
57.980        20
58.000        20
58.020        30
58.040        23
58.060        10
58.080        10
58.100        17
58.120        17
58.140        10
58.160        23
58.180        20
58.200        33
58.220        10
58.240         7
58.260        27
58.280        30
58.300        23
58.320        27
58.340        17
58.360        20
58.380        17
58.400        43
58.420        13
58.440        13
58.460        17
58.480        17
58.500        27
58.520        20
58.540        13
58.560        20
58.580         7
58.600         7
58.620        20
58.640        10
58.660        13
58.680        37
58.700        10
58.720        27
58.740        17
58.760        17
58.780        17
58.800        33
58.820        13
58.840        20
58.860        27
58.880        13
58.900        10
58.920        13
58.940        47
58.960        30
58.980        23
59.000        17
59.020        17
59.040        30
59.060         7
59.080        20
59.100        17
59.120        20
59.140        13
59.160         7
59.180        13
59.200        23
59.220        20
59.240        20
59.260        27
59.280        13
59.300        23
59.320        23
59.340        17
59.360        23
59.380        17
59.400        17
59.420        23
59.440        30
59.460        23
59.480        17
59.500        20
59.520        17
59.540        23
59.560        20
59.580        17
59.600        20
59.620        17
59.640        17
59.660        17
59.680        10
59.700        10
59.720         0
59.740         0
59.760         0
59.780         0
59.800         0
59.820         0
59.840         3
59.860         0
59.880         0
59.900         0
59.920         0
59.940         0
59.960         0
59.980         0
60.000         0
