20.000        53
20.020        67
20.040        67
20.060        73
20.080        73
20.100        60
20.120        47
20.140        40
20.160        47
20.180        47
20.200        47
20.220        47
20.240        27
20.260        73
20.280        60
20.300        27
20.320        87
20.340        47
20.360        93
20.380        93
20.400        47
20.420        60
20.440        47
20.460        20
20.480        20
20.500        33
20.520        47
20.540        67
20.560        87
20.580        33
20.600        73
20.620        47
20.640        40
20.660        67
20.680        60
20.700        20
20.720        53
20.740        53
20.760        60
20.780        60
20.800        67
20.820        40
20.840        60
20.860        53
20.880        53
20.900        60
20.920        60
20.940        73
20.960        53
20.980       107
21.000        67
21.020        73
21.040        60
21.060        60
21.080        53
21.100        87
21.120        67
21.140        53
21.160        67
21.180        93
21.200        53
21.220        53
21.240        60
21.260        40
21.280        73
21.300        33
21.320        27
21.340        80
21.360        47
21.380        40
21.400        40
21.420        13
21.440        73
21.460        33
21.480        67
21.500        67
21.520        40
21.540        47
21.560       100
21.580       100
21.600        60
21.620        53
21.640        27
21.660        20
21.680        73
21.700        53
21.720        13
21.740        53
21.760        47
21.780        60
21.800        53
21.820       107
21.840        60
21.860        47
21.880        47
21.900        80
21.920        40
21.940        73
21.960        47
21.980        27
22.000        53
22.020        67
22.040        13
22.060        80
22.080        47
22.100        73
22.120        73
22.140        40
22.160        60
22.180       107
22.200        67
22.220        60
22.240        93
22.260        33
22.280       113
22.300        80
22.320        67
22.340        80
22.360        87
22.380        67
22.400        47
22.420        47
22.440        73
22.460        80
22.480        80
22.500        40
22.520        40
22.540        27
22.560        33
22.580        33
22.600        47
22.620        27
22.640        73
22.660        60
22.680        47
22.700        27
22.720        27
22.740        47
22.760        87
22.780        53
22.800        80
22.820        60
22.840        40
22.860        53
22.880        47
22.900        67
22.920        53
22.940        53
22.960        47
22.980        87
23.000        33
23.020        60
23.040        40
23.060        40
23.080        47
23.100        40
23.120        40
23.140        60
23.160        60
23.180        40
23.200        27
23.220        60
23.240        27
23.260        80
23.280        13
23.300        67
23.320        47
23.340        53
23.360        53
23.380        67
23.400        33
23.420        60
23.440        53
23.460        73
23.480        60
23.500        47
23.520        40
23.540        73
23.560        53
23.580        67
23.600        67
23.620        40
23.640        40
23.660        13
23.680        13
23.700        47
23.720         7
23.740        33
23.760        60
23.780        67
23.800        53
23.820        20
23.840        40
23.860        27
23.880        27
23.900        27
23.920        87
23.940        20
23.960        53
23.980        33
24.000        67
24.020        40
24.040        73
24.060        13
24.080        13
24.100        87
24.120        40
24.140        40
24.160        60
24.180        67
24.200        53
24.220        47
24.240        60
24.260        53
24.280        40
24.300        67
24.320        40
24.340        40
24.360        53
24.380        27
24.400        67
24.420        33
24.440        27
24.460        47
24.480        20
24.500        33
24.520        60
24.540        67
24.560        27
24.580        47
24.600        47
24.620        33
24.640        60
24.660        73
24.680        33
24.700        33
24.720        87
24.740        40
24.760        60
24.780        60
24.800        40
24.820        33
24.840        27
24.860        53
24.880        40
24.900        47
24.920        20
24.940        73
24.960        67
24.980        33
25.000        27
25.020        33
25.040        13
25.060        33
25.080        40
25.100        47
25.120        33
25.140        33
25.160        40
25.180        27
25.200        53
25.220        20
25.240        60
25.260        60
25.280        53
25.300        53
25.320        40
25.340        40
25.360        67
25.380        47
25.400        27
25.420        60
25.440        33
25.460        20
25.480        47
25.500        53
25.520        67
25.540        47
25.560        60
25.580        80
25.600        40
25.620        27
25.640        40
25.660        73
25.680        40
25.700        20
25.720        40
25.740         7
25.760        20
25.780        80
25.800        47
25.820        47
25.840        53
25.860        73
25.880        47
25.900        27
25.920        27
25.940        47
25.960        60
25.980        27
26.000        13
26.020        80
26.040        27
26.060        33
26.080        20
26.100        33
26.120        47
26.140        40
26.160        60
26.180        13
26.200         7
26.220        47
26.240        47
26.260        33
26.280        40
26.300        40
26.320        53
26.340        20
26.360        33
26.380        47
26.400        53
26.420        80
26.440        13
26.460        47
26.480        27
26.500        53
26.520        47
26.540        13
26.560        33
26.580        40
26.600        47
26.620        33
26.640        27
26.660        20
26.680        27
26.700        53
26.720        33
26.740        40
26.760        33
26.780        27
26.800        80
26.820        40
26.840        27
26.860        33
26.880        27
26.900        20
26.920        47
26.940        53
26.960        53
26.980        33
27.000        53
27.020        40
27.040        20
27.060        60
27.080        60
27.100        40
27.120        27
27.140        27
27.160        73
27.180        20
27.200        73
27.220        53
27.240        47
27.260         7
27.280         7
27.300        40
27.320        20
27.340        47
27.360        40
27.380        33
27.400        27
27.420        20
27.440        27
27.460        33
27.480        40
27.500        60
27.520        40
27.540        53
27.560        67
27.580        40
27.600        20
27.620        47
27.640        33
27.660        13
27.680        40
27.700        53
27.720        27
27.740        60
27.760         7
27.780        27
27.800        40
27.820        20
27.840        80
27.860        20
27.880        33
27.900        40
27.920        73
27.940        13
27.960        20
27.980        20
28.000        27
28.020        20
28.040        13
28.060        60
28.080        53
28.100        87
28.120        40
28.140        47
28.160        33
28.180        20
28.200        73
28.220        40
28.240        40
28.260        47
28.280        87
28.300        33
28.320        40
28.340        27
28.360        33
28.380        27
28.400        60
28.420        33
28.440        27
28.460        53
28.480        20
28.500        33
28.520        67
28.540        20
28.560        33
28.580        47
28.600        20
28.620        33
28.640        67
28.660        33
28.680        20
28.700        33
28.720        27
28.740        60
28.760        20
28.780        20
28.800        40
28.820        20
28.840        27
28.860        40
28.880        13
28.900        27
28.920        40
28.940        40
28.960        27
28.980        33
29.000        20
29.020        33
29.040        13
29.060        27
29.080        53
29.100        33
29.120        40
29.140        53
29.160        80
29.180        53
29.200        67
29.220        47
29.240        47
29.260        27
29.280        60
29.300        47
29.320        33
29.340        53
29.360        47
29.380        40
29.400        33
29.420        13
29.440        67
29.460        13
29.480         0
29.500        33
29.520        27
29.540        33
29.560        20
29.580        53
29.600        13
29.620        47
29.640        53
29.660         7
29.680        27
29.700        27
29.720        13
29.740        33
29.760        40
29.780        33
29.800        33
29.820        53
29.840        40
29.860        20
29.880        40
29.900        47
29.920        47
29.940        33
29.960        53
29.980        27
30.000        13
30.020        20
30.040        47
30.060        67
30.080        33
30.100        53
30.120        13
30.140        40
30.160        33
30.180        27
30.200        33
30.220         7
30.240        40
30.260        40
30.280         7
30.300        40
30.320        27
30.340        20
30.360        40
30.380        53
30.400        60
30.420        53
30.440        20
30.460        47
30.480        40
30.500        33
30.520        33
30.540        13
30.560        27
30.580        27
30.600        67
30.620        47
30.640        33
30.660        40
30.680        33
30.700        60
30.720        67
30.740        13
30.760        40
30.780        13
30.800        13
30.820        33
30.840        33
30.860        33
30.880        33
30.900        27
30.920        33
30.940        13
30.960        27
30.980        33
31.000        20
31.020        20
31.040        40
31.060        40
31.080        33
31.100        40
31.120        27
31.140        20
31.160        27
31.180        33
31.200        33
31.220         7
31.240        40
31.260        20
31.280        53
31.300        47
31.320        40
31.340        40
31.360        20
31.380        27
31.400        27
31.420        60
31.440        40
31.460        53
31.480        40
31.500        47
31.520        47
31.540        60
31.560        47
31.580        67
31.600        47
31.620        60
31.640        53
31.660       113
31.680        93
31.700        53
31.720        47
31.740        93
31.760        93
31.780        53
31.800       147
31.820       140
31.840        93
31.860        73
31.880       113
31.900       120
31.920       100
31.940       180
31.960        80
31.980       107
32.000       120
32.020       100
32.040        67
32.060        80
32.080        60
32.100        73
32.120        40
32.140        53
32.160        20
32.180        27
32.200        60
32.220        67
32.240        53
32.260        33
32.280        20
32.300        53
32.320        53
32.340        33
32.360        40
32.380        33
32.400        60
32.420        27
32.440        13
32.460        33
32.480        27
32.500        47
32.520        47
32.540        33
32.560        53
32.580        40
32.600        20
32.620        13
32.640        33
32.660        40
32.680        40
32.700        40
32.720        13
32.740        33
32.760        27
32.780        53
32.800         7
32.820        33
32.840         7
32.860        33
32.880        27
32.900        27
32.920        20
32.940         7
32.960        27
32.980        20
33.000        20
33.020        60
33.040        47
33.060        40
33.080         0
33.100        27
33.120        27
33.140        33
33.160        40
33.180        13
33.200        47
33.220        33
33.240        53
33.260        20
33.280        13
33.300        20
33.320        27
33.340        13
33.360        40
33.380        27
33.400        27
33.420        20
33.440        27
33.460        20
33.480        27
33.500        40
33.520        33
33.540        40
33.560        20
33.580        33
33.600        20
33.620        33
33.640        40
33.660        13
33.680        13
33.700        20
33.720        27
33.740        27
33.760        20
33.780        27
33.800        20
33.820        20
33.840        27
33.860        40
33.880        40
33.900        20
33.920        33
33.940        33
33.960        40
33.980        27
34.000        27
34.020        47
34.040        40
34.060        53
34.080        47
34.100        40
34.120        20
34.140        27
34.160        27
34.180        13
34.200        47
34.220        47
34.240        47
34.260        47
34.280        40
34.300        47
34.320        53
34.340        33
34.360        33
34.380        73
34.400        67
34.420        73
34.440       100
34.460       100
34.480        80
34.500        67
34.520        53
34.540        60
34.560        33
34.580        80
34.600        53
34.620        27
34.640        47
34.660        20
34.680        53
34.700        27
34.720        20
34.740        33
34.760        40
34.780        53
34.800        80
34.820        47
34.840        40
34.860        53
34.880        40
34.900        40
34.920        60
34.940        40
34.960        40
34.980        47
35.000        27
35.020        33
35.040        53
35.060        40
35.080        60
35.100        13
35.120       140
35.140       120
35.160       140
35.180        73
35.200        33
35.220        67
35.240        67
35.260        87
35.280        33
35.300        47
35.320        47
35.340        40
35.360        40
35.380        20
35.400        27
35.420        53
35.440        27
35.460        27
35.480        27
35.500        40
35.520        60
35.540        27
35.560        20
35.580        40
35.600        20
35.620        73
35.640        27
35.660        53
35.680        40
35.700        13
35.720        40
35.740        27
35.760        33
35.780        40
35.800         0
35.820        33
35.840        13
35.860        33
35.880        33
35.900        27
35.920         7
35.940         7
35.960        20
35.980        47
36.000        73
36.020        20
36.040        47
36.060        73
36.080        20
36.100        13
36.120        33
36.140        33
36.160        33
36.180        13
36.200        33
36.220        20
36.240        13
36.260        33
36.280        33
36.300        40
36.320        33
36.340        27
36.360        53
36.380        53
36.400        20
36.420        20
36.440        67
36.460        47
36.480        33
36.500        47
36.520        20
36.540        40
36.560        27
36.580        40
36.600        33
36.620        27
36.640        33
36.660        33
36.680        13
36.700        27
36.720        40
36.740        87
36.760        40
36.780        60
36.800        20
36.820        20
36.840        53
36.860        80
36.880        80
36.900       113
36.920        67
36.940        60
36.960        93
36.980        53
37.000        80
37.020       100
37.040        67
37.060        80
37.080       120
37.100       120
37.120        53
37.140        40
37.160        93
37.180        80
37.200       107
37.220        80
37.240       100
37.260        73
37.280       133
37.300       100
37.320       107
37.340        93
37.360       140
37.380       120
37.400       153
37.420       100
37.440       113
37.460       100
37.480        73
37.500       140
37.520       113
37.540       147
37.560       187
37.580       107
37.600       240
37.620       113
37.640       173
37.660       160
37.680       173
37.700       180
37.720       207
37.740       187
37.760       200
37.780       227
37.800       233
37.820       173
37.840       273
37.860       253
37.880       240
37.900       313
37.920       247
37.940       446
37.960       400
37.980       513
38.000       713
38.020       766
38.040       960
38.060      1246
38.080      1353
38.100      1593
38.120      2439
38.140      3059
38.160      3918
38.180      4845
38.200      5911
38.220      7037
38.240      8617
38.260      8737
38.280      9609
38.300     10562
38.320     10109
38.340      9330
38.360      8923
38.380      8530
38.400      7097
38.420      6184
38.440      4938
38.460      4178
38.480      3685
38.500      2672
38.520      2132
38.540      1739
38.560      1446
38.580      1253
38.600       920
38.620       806
38.640       686
38.660       453
38.680       486
38.700       493
38.720       353
38.740       433
38.760       220
38.780       413
38.800       300
38.820       373
38.840       240
38.860       260
38.880       187
38.900       260
38.920       233
38.940       193
38.960       240
38.980       220
39.000       167
39.020       227
39.040       207
39.060       200
39.080       227
39.100       147
39.120       207
39.140       293
39.160       220
39.180       300
39.200       253
39.220       333
39.240       360
39.260       420
39.280       546
39.300       600
39.320       620
39.340       780
39.360      1113
39.380      1193
39.400      1413
39.420      1693
39.440      1693
39.460      1966
39.480      2019
39.500      2073
39.520      1826
39.540      1539
39.560      1386
39.580      1406
39.600      1073
39.620       793
39.640       806
39.660       553
39.680       593
39.700       440
39.720       313
39.740       353
39.760       300
39.780       280
39.800       240
39.820       187
39.840       213
39.860       207
39.880       140
39.900       120
39.920       133
39.940       207
39.960        87
39.980       140
40.000       113
40.020       187
40.040       107
40.060       100
40.080       100
40.100       160
40.120       120
40.140        73
40.160       100
40.180       100
40.200       140
40.220        87
40.240       133
40.260       133
40.280        87
40.300        93
40.320       127
40.340       107
40.360        80
40.380       100
40.400        93
40.420        87
40.440        73
40.460        53
40.480        93
40.500        27
40.520        53
40.540        53
40.560       107
40.580        60
40.600        53
40.620       100
40.640        67
40.660        93
40.680        60
40.700        80
40.720        67
40.740        47
40.760        73
40.780        40
40.800        60
40.820        80
40.840        33
40.860       100
40.880        93
40.900        87
40.920        53
40.940        93
40.960        20
40.980        40
41.000        60
41.020        53
41.040        27
41.060        87
41.080        27
41.100       100
41.120        93
41.140        53
41.160        73
41.180        67
41.200        73
41.220        33
41.240        40
41.260        80
41.280        40
41.300        27
41.320       100
41.340        27
41.360        53
41.380        60
41.400        67
41.420        87
41.440        53
41.460        67
41.480        67
41.500        53
41.520        60
41.540        60
41.560        27
41.580       113
41.600        80
41.620       113
41.640       153
41.660       147
41.680       220
41.700       140
41.720       120
41.740        73
41.760       113
41.780        67
41.800        87
41.820        93
41.840        67
41.860        80
41.880        40
41.900       107
41.920        47
41.940        33
41.960        60
41.980        33
42.000        40
42.020        27
42.040        67
42.060        80
42.080        67
42.100        20
42.120        40
42.140        60
42.160        67
42.180        33
42.200        60
42.220        20
42.240        53
42.260        33
42.280        33
42.300        60
42.320        47
42.340        40
42.360        47
42.380        60
42.400        20
42.420        33
42.440        67
42.460        47
42.480        60
42.500        67
42.520        33
42.540        33
42.560        27
42.580        27
42.600        67
42.620        53
42.640        40
42.660        67
42.680        60
42.700        40
42.720        40
42.740        73
42.760        53
42.780        53
42.800        40
42.820        33
42.840        93
42.860        47
42.880        67
42.900        80
42.920        47
42.940        47
42.960        53
42.980        20
43.000        53
43.020        40
43.040        47
43.060        47
43.080        40
43.100        47
43.120        53
43.140        73
43.160        87
43.180        47
43.200        33
43.220        53
43.240        47
43.260        60
43.280        67
43.300        80
43.320        87
43.340        53
43.360        93
43.380        60
43.400        73
43.420        67
43.440        80
43.460        67
43.480        13
43.500        60
43.520        40
43.540        20
43.560        80
43.580        33
43.600        47
43.620        27
43.640        27
43.660        33
43.680        53
43.700        33
43.720        20
43.740        47
43.760        33
43.780        53
43.800        27
43.820        73
43.840        93
43.860        53
43.880        20
43.900        67
43.920        73
43.940        20
43.960        67
43.980        20
44.000        40
44.020        40
44.040        47
44.060        47
44.080        27
44.100        20
44.120        13
44.140        13
44.160        33
44.180        27
44.200        47
44.220        53
44.240        40
44.260        47
44.280        73
44.300        40
44.320        73
44.340        53
44.360        53
44.380        27
44.400        33
44.420        47
44.440        47
44.460        47
44.480        33
44.500        33
44.520        47
44.540        13
44.560        33
44.580        47
44.600        40
44.620        47
44.640        33
44.660        33
44.680        27
44.700        40
44.720        27
44.740        67
44.760        33
44.780        53
44.800        60
44.820        60
44.840        47
44.860        40
44.880        67
44.900        47
44.920        53
44.940        33
44.960        80
44.980        20
45.000        33
45.020        47
45.040        53
45.060        33
45.080        33
45.100        40
45.120        87
45.140        73
45.160        27
45.180        67
45.200        73
45.220        80
45.240        73
45.260        53
45.280        53
45.300        87
45.320       127
45.340        80
45.360        67
45.380       107
45.400       160
45.420       140
45.440       120
45.460        80
45.480        73
45.500       100
45.520        87
45.540        93
45.560       127
45.580       127
45.600        87
45.620        73
45.640       147
45.660       107
45.680       107
45.700        93
45.720        80
45.740        73
45.760        93
45.780       113
45.800        67
45.820        80
45.840        93
45.860        53
45.880        73
45.900        80
45.920        67
45.940        87
45.960       100
45.980       107
46.000        53
46.020        87
46.040        53
46.060        80
46.080        60
46.100        67
46.120        40
46.140        20
46.160        47
46.180        87
46.200        53
46.220        67
46.240        53
46.260        33
46.280        40
46.300        53
46.320        33
46.340        47
46.360        47
46.380        27
46.400        33
46.420        47
46.440        40
46.460        60
46.480        40
46.500         7
46.520        33
46.540        40
46.560        47
46.580        40
46.600        40
46.620        33
46.640        40
46.660        20
46.680        67
46.700        27
46.720        20
46.740        60
46.760        20
46.780        20
46.800        40
46.820        47
46.840        27
46.860        27
46.880        47
46.900        47
46.920        33
46.940        33
46.960        27
46.980        73
47.000        47
47.020        47
47.040        40
47.060        40
47.080        27
47.100        40
47.120        27
47.140        27
47.160        27
47.180        20
47.200        27
47.220        73
47.240        13
47.260        60
47.280        47
47.300        33
47.320        40
47.340        60
47.360        40
47.380        53
47.400        47
47.420        20
47.440        67
47.460        27
47.480        20
47.500        47
47.520        27
47.540        40
47.560        40
47.580        27
47.600        20
47.620        40
47.640        47
47.660        27
47.680        13
47.700        27
47.720        27
47.740        20
47.760        27
47.780        40
47.800        13
47.820        20
47.840        40
47.860         7
47.880        20
47.900        13
47.920        40
47.940        60
47.960         7
47.980        33
48.000        20
48.020        53
48.040        27
48.060        20
48.080        27
48.100        53
48.120        47
48.140        20
48.160        13
48.180        13
48.200        40
48.220        33
48.240        33
48.260        27
48.280        40
48.300        47
48.320        73
48.340        47
48.360        33
48.380         7
48.400        20
48.420        40
48.440        33
48.460        67
48.480        67
48.500        53
48.520        67
48.540        47
48.560        20
48.580        73
48.600        40
48.620        20
48.640        47
48.660        27
48.680        40
48.700        27
48.720        27
48.740        33
48.760        13
48.780        20
48.800        53
48.820        13
48.840        33
48.860         0
48.880        13
48.900        67
48.920         7
48.940        13
48.960        60
48.980        47
49.000        40
49.020        27
49.040        27
49.060        13
49.080        40
49.100        33
49.120        27
49.140        20
49.160        33
49.180         7
49.200        27
49.220        13
49.240        27
49.260        27
49.280        13
49.300        20
49.320        27
49.340         7
49.360        20
49.380        40
49.400        13
49.420        13
49.440         7
49.460         0
49.480        27
49.500        33
49.520        20
49.540        13
49.560        20
49.580        20
49.600        13
49.620        13
49.640        47
49.660        13
49.680        40
49.700        20
49.720        27
49.740        20
49.760        27
49.780         7
49.800        13
49.820        27
49.840        47
49.860        13
49.880        20
49.900        40
49.920        27
49.940        27
49.960         7
49.980        27
50.000        40
50.020        33
50.040         7
50.060        20
50.080        40
50.100        33
50.120        27
50.140        27
50.160        40
50.180        27
50.200        13
50.220        33
50.240        33
50.260        27
50.280         7
50.300        33
50.320        20
50.340         0
50.360         0
50.380        40
50.400        20
50.420        27
50.440        20
50.460        40
50.480        27
50.500        13
50.520         7
50.540        27
50.560        27
50.580         0
50.600        53
50.620        20
50.640        13
50.660        33
50.680        20
50.700        13
50.720        40
50.740        27
50.760        53
50.780        20
50.800        47
50.820        20
50.840        20
50.860         7
50.880        40
50.900        13
50.920        27
50.940        13
50.960        20
50.980        47
51.000        13
51.020        27
51.040        33
51.060        40
51.080        13
51.100        20
51.120        13
51.140         0
51.160        27
51.180        27
51.200        33
51.220        20
51.240         7
51.260        40
51.280        40
51.300        27
51.320        27
51.340        40
51.360        27
51.380        40
51.400         7
51.420         7
51.440        13
51.460        47
51.480        20
51.500        13
51.520        20
51.540        20
51.560        27
51.580        13
51.600        40
51.620        33
51.640        33
51.660        20
51.680        20
51.700         7
51.720        13
51.740        27
51.760        20
51.780         7
51.800         0
51.820        27
51.840        33
51.860        20
51.880        40
51.900        13
51.920        13
51.940        47
51.960        27
51.980         7
52.000        40
52.020        13
52.040        33
52.060        40
52.080        13
52.100        20
52.120        33
52.140        20
52.160        20
52.180        20
52.200        27
52.220        20
52.240        13
52.260        40
52.280        33
52.300        20
52.320        40
52.340        33
52.360         0
52.380        27
52.400        33
52.420         7
52.440        33
52.460         7
52.480         7
52.500        20
52.520        33
52.540        33
52.560        20
52.580        40
52.600         7
52.620        13
52.640        20
52.660        20
52.680        47
52.700        27
52.720        27
52.740        27
52.760        20
52.780        20
52.800        27
52.820        33
52.840        27
52.860        13
52.880        20
52.900        27
52.920        40
52.940        20
52.960         7
52.980        27
53.000        13
53.020        20
53.040        20
53.060        13
53.080        40
53.100        27
53.120        13
53.140        13
53.160        47
53.180         7
53.200        20
53.220        13
53.240        13
53.260         7
53.280         0
53.300        20
53.320         7
53.340        13
53.360        33
53.380        27
53.400        20
53.420        13
53.440        33
53.460        40
53.480         7
53.500        20
53.520        20
53.540        13
53.560         7
53.580        60
53.600         0
53.620        13
53.640         7
53.660        27
53.680        20
53.700        33
53.720        20
53.740        27
53.760        40
53.780        13
53.800        20
53.820        20
53.840        33
53.860        27
53.880        33
53.900        27
53.920        13
53.940        20
53.960        20
53.980         7
54.000        40
54.020         7
54.040        13
54.060        13
54.080        13
54.100        13
54.120        27
54.140        13
54.160        13
54.180        27
54.200        13
54.220        33
54.240        20
54.260        20
54.280        20
54.300        20
54.320        13
54.340        27
54.360        27
54.380        27
54.400        20
54.420        20
54.440        27
54.460        20
54.480         7
54.500        13
54.520        20
54.540        13
54.560        33
54.580        33
54.600        33
54.620        40
54.640        13
54.660        20
54.680        20
54.700        33
54.720        20
54.740        27
54.760        20
54.780        33
54.800        27
54.820        27
54.840        27
54.860        13
54.880         0
54.900        13
54.920        20
54.940        13
54.960         0
54.980         7
55.000        13
55.020        20
55.040        27
55.060         0
55.080         7
55.100        20
55.120        13
55.140        13
55.160        33
55.180        13
55.200        47
55.220        20
55.240        40
55.260        40
55.280        13
55.300        13
55.320        13
55.340        20
55.360        27
55.380        13
55.400        20
55.420        33
55.440        33
55.460        13
55.480        20
55.500        20
55.520        47
55.540        47
55.560        13
55.580        20
55.600         7
55.620        40
55.640        13
55.660        20
55.680        13
55.700        27
55.720        40
55.740        27
55.760        27
55.780        20
55.800        40
55.820        20
55.840        13
55.860        20
55.880        27
55.900        13
55.920        13
55.940        33
55.960        20
55.980         7
56.000        13
56.020         7
56.040        13
56.060         0
56.080        33
56.100        13
56.120        33
56.140        13
56.160        13
56.180        13
56.200        27
56.220        20
56.240        40
56.260        20
56.280        13
56.300        33
56.320        40
56.340        53
56.360        53
56.380        13
56.400        40
56.420        40
56.440        40
56.460         0
56.480        27
56.500        27
56.520        33
56.540        33
56.560        33
56.580        27
56.600        20
56.620        13
56.640        60
56.660        13
56.680        33
56.700        33
56.720        60
56.740        27
56.760        47
56.780        73
56.800        60
56.820        67
56.840        33
56.860        33
56.880        67
56.900        40
56.920        47
56.940        47
56.960        40
56.980        27
57.000        60
57.020        67
57.040        33
57.060        40
57.080        40
57.100        47
57.120        20
57.140        27
57.160        47
57.180        13
57.200        53
57.220        40
57.240        60
57.260        40
57.280        27
57.300        60
57.320        40
57.340        60
57.360        60
57.380        47
57.400        67
57.420        60
57.440        40
57.460       113
57.480        53
57.500       107
57.520       107
57.540        40
57.560        47
57.580        40
57.600        40
57.620        53
57.640        47
57.660        73
57.680        67
57.700        73
57.720        20
57.740        13
57.760        47
57.780        40
57.800        13
57.820        13
57.840        20
57.860        13
57.880        27
57.900        40
57.920        20
57.940        13
57.960        20
57.980        13
58.000        27
58.020        20
58.040        20
58.060        40
58.080        13
58.100        27
58.120        27
58.140        27
58.160        13
58.180        20
58.200         7
58.220        13
58.240         7
58.260        20
58.280        33
58.300        20
58.320        40
58.340        40
58.360        20
58.380         7
58.400         7
58.420        13
58.440        40
58.460         7
58.480        40
58.500         0
58.520        33
58.540        13
58.560        20
58.580        33
58.600        13
58.620         0
58.640        27
58.660        13
58.680        27
58.700        27
58.720         7
58.740         7
58.760        13
58.780        20
58.800        20
58.820        13
58.840        27
58.860         7
58.880        13
58.900        33
58.920         7
58.940         7
58.960        13
58.980        13
59.000         7
59.020         7
59.040        13
59.060        13
59.080        20
59.100        20
59.120        13
59.140        20
59.160        27
59.180        27
59.200        13
59.220        33
59.240         7
59.260        13
59.280         0
59.300        20
59.320         7
59.340        13
59.360        13
59.380        27
59.400         7
59.420         0
59.440        13
59.460        13
59.480         7
59.500         7
59.520         0
59.540         0
59.560         0
59.580         0
59.600         0
59.620         0
59.640         0
59.660         0
59.680         0
59.700         0
59.720         0
59.740         0
59.760         0
59.780         0
59.800         0
59.820         0
59.840         0
59.860         0
59.880         0
59.900         0
59.920         0
59.940         0
59.960         0
59.980         0
60.000         0
