20.000         0
20.010         0
20.020        13
20.030        40
20.040        40
20.050       107
20.060        40
20.070        80
20.080        53
20.090        40
20.100        13
20.110        40
20.120        80
20.130        53
20.140        67
20.150        67
20.160        53
20.170        80
20.180        53
20.190        93
20.200        80
20.210        40
20.220        80
20.230        80
20.240        27
20.250        13
20.260        53
20.270         0
20.280        40
20.290        13
20.300        67
20.310        40
20.320        27
20.330        53
20.340        13
20.350        80
20.360        40
20.370        53
20.380        93
20.390        53
20.400        53
20.410        40
20.420        93
20.430        13
20.440        53
20.450        27
20.460        40
20.470        53
20.480        13
20.490       107
20.500        27
20.510        13
20.520        80
20.530        93
20.540        40
20.550        40
20.560        67
20.570       107
20.580        27
20.590       107
20.600        53
20.610        13
20.620        53
20.630         0
20.640        93
20.650       120
20.660        53
20.670        53
20.680        40
20.690        67
20.700        93
20.710        53
20.720        40
20.730        67
20.740        13
20.750        53
20.760        67
20.770        40
20.780        27
20.790        27
20.800        93
20.810        13
20.820        40
20.830        53
20.840        13
20.850        27
20.860        67
20.870        53
20.880        13
20.890         0
20.900        80
20.910        40
20.920        67
20.930       107
20.940        80
20.950        27
20.960        27
20.970        53
20.980        80
20.990        53
21.000        13
21.010        67
21.020        80
21.030        27
21.040        40
21.050        53
21.060        40
21.070        40
21.080        67
21.090        27
21.100        53
21.110        80
21.120        40
21.130        27
21.140        40
21.150        40
21.160        53
21.170        27
21.180        13
21.190        27
21.200        13
21.210        13
21.220        53
21.230        53
21.240        40
21.250        53
21.260        27
21.270        53
21.280        53
21.290        27
21.300         0
21.310        27
21.320        27
21.330        67
21.340         0
21.350        53
21.360        53
21.370        67
21.380        53
21.390        40
21.400         0
21.410        40
21.420        40
21.430        53
21.440        27
21.450        40
21.460        13
21.470        80
21.480        13
21.490        40
21.500        53
21.510        27
21.520       107
21.530        13
21.540        40
21.550        53
21.560         0
21.570        13
21.580        40
21.590        27
21.600        13
21.610        40
21.620        67
21.630        53
21.640        53
21.650        27
21.660        53
21.670        40
21.680        40
21.690         0
21.700        40
21.710        27
21.720        53
21.730        27
21.740        80
21.750        80
21.760        67
21.770        67
21.780        40
21.790        27
21.800        53
21.810        13
21.820        27
21.830        40
21.840        53
21.850        53
21.860       107
21.870        40
21.880        27
21.890        40
21.900        27
21.910        67
21.920        40
21.930        13
21.940        80
21.950        53
21.960        27
21.970        27
21.980        27
21.990        40
22.000        13
22.010        67
22.020        27
22.030        53
22.040        40
22.050        40
22.060        40
22.070        53
22.080        27
22.090        53
22.100        40
22.110        53
22.120        13
22.130        13
22.140        53
22.150        13
22.160        80
22.170        40
22.180        27
22.190        93
22.200       120
22.210        27
22.220        53
22.230        67
22.240        53
22.250        80
22.260        80
22.270        53
22.280        93
22.290        67
22.300        40
22.310        40
22.320        40
22.330        53
22.340        40
22.350        53
22.360        93
22.370        67
22.380        80
22.390        93
22.400        13
22.410        13
22.420        27
22.430        53
22.440        53
22.450        80
22.460        93
22.470        40
22.480        93
22.490        67
22.500       107
22.510       160
22.520        80
22.530        67
22.540        93
22.550       227
22.560        93
22.570       147
22.580       120
22.590       107
22.600        80
22.610       107
22.620        93
22.630       107
22.640       160
22.650        93
22.660        27
22.670        67
22.680        67
22.690        27
22.700        40
22.710       147
22.720        53
22.730       107
22.740        80
22.750        53
22.760        53
22.770        93
22.780       147
22.790       147
22.800        67
22.810        53
22.820        53
22.830        40
22.840        27
22.850        80
22.860        93
22.870        53
22.880         0
22.890        27
22.900        67
22.910        67
22.920        53
22.930        40
22.940        67
22.950        67
22.960        53
22.970        27
22.980        67
22.990        67
23.000        27
23.010        67
23.020         0
23.030        27
23.040        40
23.050        93
23.060        80
23.070        40
23.080        80
23.090        40
23.100        40
23.110        27
23.120        53
23.130        53
23.140        53
23.150        53
23.160        27
23.170        53
23.180       107
23.190        53
23.200        53
23.210        13
23.220        13
23.230        53
23.240        27
23.250        80
23.260        13
23.270        27
23.280        40
23.290        53
23.300        27
23.310        67
23.320        67
23.330        53
23.340        13
23.350        53
23.360        13
23.370        80
23.380        27
23.390        13
23.400        67
23.410        40
23.420        13
23.430        80
23.440         0
23.450        53
23.460        53
23.470        67
23.480        27
23.490        40
23.500        67
23.510        53
23.520        53
23.530        27
23.540        53
23.550        53
23.560        40
23.570        27
23.580        27
23.590        80
23.600        40
23.610        27
23.620        67
23.630        27
23.640        13
23.650        13
23.660        27
23.670        40
23.680        53
23.690        40
23.700        13
23.710         0
23.720        27
23.730        40
23.740        53
23.750        13
23.760        27
23.770        13
23.780        67
23.790        53
23.800        93
23.810        13
23.820        13
23.830        27
23.840        27
23.850        40
23.860        27
23.870       107
23.880        67
23.890        53
23.900        67
23.910        27
23.920        40
23.930        13
23.940        40
23.950        80
23.960         0
23.970        40
23.980        40
23.990        40
24.000        53
24.010        13
24.020        53
24.030        67
24.040        27
24.050        13
24.060        40
24.070        13
24.080        27
24.090        40
24.100        80
24.110        80
24.120        13
24.130        67
24.140        27
24.150        40
24.160        27
24.170        27
24.180        67
24.190        80
24.200        13
24.210        53
24.220         0
24.230         0
24.240        27
24.250        67
24.260        40
24.270        40
24.280         0
24.290        67
24.300        13
24.310        53
24.320       107
24.330        40
24.340        13
24.350        13
24.360        93
24.370         0
24.380        40
24.390        93
24.400        53
24.410        40
24.420        80
24.430        53
24.440        53
24.450        40
24.460        27
24.470        80
24.480        27
24.490        67
24.500        80
24.510        27
24.520        80
24.530        13
24.540        27
24.550        67
24.560        67
24.570        93
24.580        80
24.590        80
24.600        80
24.610        40
24.620        13
24.630        27
24.640        40
24.650        27
24.660        67
24.670       120
24.680        40
24.690        40
24.700        40
24.710        27
24.720        67
24.730        40
24.740        40
24.750        53
24.760        53
24.770        40
24.780        13
24.790        53
24.800        27
24.810        67
24.820        40
24.830        67
24.840         0
24.850        67
24.860        93
24.870        40
24.880        53
24.890        93
24.900        13
24.910        27
24.920        27
24.930        13
24.940        53
24.950        67
24.960        27
24.970        40
24.980         0
24.990        13
25.000        27
25.010        53
25.020        13
25.030        27
25.040        27
25.050        27
25.060        13
25.070       107
25.080        40
25.090        53
25.100        27
25.110        13
25.120        27
25.130        53
25.140        53
25.150        53
25.160        40
25.170        27
25.180        13
25.190        80
25.200        40
25.210        67
25.220        67
25.230        13
25.240        13
25.250        67
25.260        67
25.270        27
25.280        27
25.290        27
25.300        27
25.310        93
25.320        53
25.330        53
25.340        27
25.350        13
25.360         0
25.370        40
25.380        40
25.390        53
25.400        40
25.410        80
25.420        13
25.430        53
25.440        13
25.450        53
25.460        27
25.470        13
25.480        53
25.490        40
25.500        67
25.510        27
25.520       120
25.530       133
25.540        40
25.550        80
25.560       147
25.570        80
25.580        80
25.590       147
25.600       200
25.610        93
25.620       107
25.630        80
25.640        67
25.650        40
25.660        67
25.670        80
25.680        27
25.690        27
25.700        67
25.710        67
25.720        67
25.730        27
25.740        93
25.750        27
25.760        67
25.770        27
25.780         0
25.790        13
25.800        13
25.810        40
25.820        53
25.830        53
25.840        27
25.850        13
25.860        80
25.870        27
25.880        53
25.890        13
25.900        80
25.910        67
25.920         0
25.930        27
25.940        40
25.950        13
25.960        53
25.970        40
25.980        13
25.990        40
26.000        40
26.010        53
26.020        40
26.030        13
26.040        53
26.050        53
26.060        27
26.070        27
26.080        13
26.090        67
26.100        67
26.110        13
26.120        40
26.130        13
26.140        27
26.150        53
26.160        67
26.170        27
26.180        40
26.190         0
26.200        93
26.210        53
26.220        40
26.230        40
26.240        40
26.250        40
26.260        27
26.270        53
26.280        40
26.290        13
26.300         0
26.310        53
26.320        40
26.330        27
26.340        40
26.350        53
26.360        13
26.370        53
26.380        80
26.390        40
26.400        13
26.410        40
26.420        13
26.430        53
26.440        53
26.450        93
26.460        13
26.470        40
26.480        27
26.490        53
26.500        53
26.510        13
26.520        27
26.530        27
26.540        53
26.550        40
26.560        27
26.570        13
26.580        67
26.590        13
26.600        40
26.610        13
26.620        53
26.630        40
26.640        53
26.650        40
26.660        27
26.670        53
26.680        40
26.690         0
26.700        53
26.710        53
26.720        27
26.730        53
26.740        53
26.750         0
26.760        27
26.770        27
26.780         0
26.790        27
26.800        13
26.810        67
26.820        27
26.830        13
26.840        53
26.850        40
26.860        13
26.870        53
26.880        27
26.890        67
26.900        53
26.910        13
26.920        13
26.930        53
26.940        13
26.950        27
26.960        40
26.970        53
26.980        40
26.990        13
27.000        27
27.010        27
27.020        53
27.030       107
27.040        27
27.050        40
27.060        53
27.070        13
27.080        13
27.090        13
27.100        13
27.110        27
27.120        27
27.130        13
27.140         0
27.150        53
27.160        13
27.170        27
27.180        53
27.190        40
27.200        13
27.210        40
27.220        53
27.230        27
27.240        53
27.250         0
27.260        53
27.270        53
27.280        27
27.290        27
27.300        13
27.310        13
27.320        40
27.330        67
27.340        67
27.350         0
27.360        67
27.370        40
27.380        27
27.390        27
27.400        40
27.410        27
27.420        13
27.430        27
27.440        67
27.450        53
27.460        40
27.470        40
27.480        27
27.490        67
27.500        27
27.510        27
27.520        40
27.530        13
27.540        40
27.550        13
27.560        40
27.570        53
27.580        13
27.590        13
27.600        27
27.610        13
27.620        40
27.630        40
27.640        13
27.650         0
27.660        40
27.670        40
27.680         0
27.690        27
27.700        40
27.710        27
27.720        27
27.730        27
27.740        27
27.750        27
27.760        53
27.770        80
27.780        67
27.790        27
27.800        27
27.810        27
27.820        13
27.830        53
27.840        13
27.850        53
27.860         0
27.870        27
27.880        67
27.890        27
27.900        13
27.910        53
27.920        27
27.930        40
27.940        53
27.950        27
27.960        13
27.970       107
27.980        40
27.990        27
28.000        13
28.010        13
28.020        40
28.030        67
28.040        40
28.050         0
28.060        27
28.070        40
28.080        40
28.090        53
28.100        53
28.110        13
28.120        53
28.130        53
28.140        53
28.150         0
28.160        13
28.170        67
28.180        53
28.190        40
28.200        40
28.210        13
28.220        40
28.230        13
28.240        13
28.250        27
28.260        13
28.270        67
28.280        27
28.290        13
28.300        27
28.310        27
28.320        53
28.330        13
28.340        27
28.350        40
28.360        40
28.370        13
28.380         0
28.390         0
28.400        27
28.410        13
28.420        40
28.430        27
28.440        13
28.450        67
28.460        27
28.470        53
28.480        27
28.490        27
28.500        40
28.510        27
28.520        40
28.530        13
28.540        40
28.550        13
28.560        40
28.570        13
28.580         0
28.590        53
28.600        40
28.610        13
28.620        80
28.630         0
28.640        27
28.650        40
28.660        27
28.670        13
28.680        13
28.690        27
28.700        67
28.710        13
28.720        27
28.730        40
28.740        27
28.750        40
28.760        13
28.770        13
28.780        40
28.790        13
28.800        27
28.810        80
28.820        80
28.830        13
28.840        40
28.850        27
28.860        13
28.870        53
28.880         0
28.890        27
28.900        53
28.910         0
28.920        13
28.930        27
28.940        27
28.950        27
28.960        40
28.970        67
28.980        13
28.990        40
29.000        13
29.010         0
29.020        13
29.030        27
29.040        27
29.050        27
29.060        40
29.070        53
29.080        13
29.090        67
29.100        40
29.110        40
29.120        40
29.130         0
29.140        67
29.150        13
29.160        40
29.170         0
29.180        67
29.190        40
29.200        53
29.210         0
29.220        27
29.230         0
29.240        27
29.250        40
29.260        40
29.270        40
29.280        13
29.290        27
29.300        27
29.310        67
29.320        40
29.330        13
29.340        13
29.350        27
29.360        13
29.370        13
29.380        13
29.390        53
29.400        40
29.410        40
29.420        40
29.430        40
29.440        27
29.450        27
29.460        27
29.470         0
29.480         0
29.490        13
29.500        27
29.510        13
29.520        40
29.530        13
29.540        27
29.550        80
29.560        53
29.570        27
29.580         0
29.590        27
29.600         0
29.610        13
29.620        40
29.630         0
29.640        40
29.650        13
29.660        13
29.670        40
29.680        27
29.690        27
29.700        67
29.710        27
29.720        40
29.730        40
29.740        40
29.750        27
29.760        27
29.770        27
29.780        27
29.790        13
29.800        27
29.810        40
29.820        67
29.830         0
29.840        53
29.850        40
29.860        13
29.870        27
29.880         0
29.890        13
29.900        40
29.910        13
29.920        13
29.930        27
29.940        53
29.950        27
29.960        13
29.970         0
29.980         0
29.990        80
30.000        27
30.010        27
30.020        27
30.030        53
30.040        13
30.050        53
30.060        40
30.070        67
30.080        93
30.090        13
30.100        13
30.110        13
30.120        40
30.130         0
30.140        40
30.150        27
30.160        40
30.170        13
30.180        40
30.190        13
30.200        40
30.210        13
30.220        13
30.230        13
30.240        53
30.250        13
30.260        13
30.270         0
30.280        13
30.290        27
30.300        93
30.310        13
30.320        27
30.330        27
30.340        53
30.350        40
30.360        13
30.370        67
30.380         0
30.390        13
30.400        13
30.410        13
30.420        53
30.430         0
30.440        27
30.450         0
30.460        40
30.470        53
30.480         0
30.490        40
30.500        53
30.510        13
30.520        40
30.530        40
30.540        13
30.550        40
30.560        27
30.570        27
30.580        13
30.590        13
30.600        27
30.610        13
30.620        27
30.630        40
30.640        13
30.650         0
30.660        27
30.670        27
30.680        40
30.690        27
30.700        40
30.710        27
30.720        27
30.730        93
30.740        27
30.750        53
30.760        27
30.770        13
30.780        40
30.790        27
30.800        13
30.810         0
30.820        40
30.830        40
30.840        27
30.850        13
30.860        53
30.870        40
30.880        40
30.890         0
30.900        27
30.910        40
30.920        40
30.930        67
30.940        27
30.950        40
30.960        40
30.970        40
30.980        53
30.990        13
31.000        13
31.010        67
31.020         0
31.030        13
31.040        53
31.050        13
31.060        13
31.070        67
31.080        27
31.090        27
31.100         0
31.110        27
31.120         0
31.130        13
31.140        40
31.150        27
31.160         0
31.170        53
31.180        53
31.190        27
31.200        67
31.210        67
31.220        40
31.230        13
31.240         0
31.250        27
31.260        13
31.270        13
31.280        13
31.290        27
31.300        80
31.310         0
31.320        27
31.330        53
31.340        53
31.350        53
31.360        13
31.370        27
31.380        53
31.390        27
31.400        80
31.410        53
31.420        53
31.430        53
31.440        53
31.450        27
31.460        40
31.470         0
31.480        53
31.490        40
31.500        27
31.510        27
31.520        40
31.530        13
31.540        27
31.550        40
31.560        27
31.570        67
31.580        13
31.590        13
31.600         0
31.610        13
31.620        27
31.630        13
31.640        27
31.650        40
31.660        27
31.670        53
31.680        53
31.690        40
31.700         0
31.710        40
31.720        53
31.730        27
31.740        53
31.750        40
31.760        13
31.770        13
31.780        13
31.790        13
31.800        13
31.810        40
31.820         0
31.830        40
31.840        40
31.850        27
31.860        13
31.870        13
31.880        27
31.890        13
31.900         0
31.910         0
31.920        53
31.930        40
31.940        53
31.950        40
31.960        13
31.970        27
31.980        67
31.990       107
32.000        27
32.010        53
32.020        27
32.030        13
32.040        27
32.050        13
32.060        67
32.070        80
32.080        27
32.090        27
32.100        27
32.110       107
32.120        40
32.130        93
32.140        67
32.150       133
32.160        67
32.170       147
32.180        80
32.190        80
32.200        67
32.210        67
32.220        67
32.230        67
32.240        80
32.250        80
32.260        27
32.270        27
32.280        93
32.290        40
32.300        40
32.310       107
32.320        53
32.330        53
32.340        27
32.350        40
32.360        67
32.370        67
32.380        53
32.390        27
32.400        40
32.410        53
32.420        27
32.430        40
32.440         0
32.450        13
32.460        40
32.470        53
32.480        40
32.490        13
32.500        80
32.510        13
32.520        40
32.530        27
32.540         0
32.550        40
32.560        53
32.570        53
32.580         0
32.590        13
32.600        13
32.610        13
32.620        53
32.630        27
32.640        27
32.650        27
32.660        13
32.670        27
32.680        67
32.690        13
32.700        27
32.710        13
32.720        13
32.730        27
32.740        53
32.750        13
32.760        27
32.770        27
32.780        27
32.790        13
32.800        40
32.810         0
32.820        27
32.830        27
32.840        13
32.850        40
32.860        53
32.870        27
32.880         0
32.890        27
32.900        13
32.910        13
32.920        27
32.930        27
32.940        13
32.950        27
32.960        13
32.970         0
32.980        13
32.990        53
33.000        27
33.010        27
33.020        13
33.030        13
33.040         0
33.050        40
33.060        40
33.070        27
33.080         0
33.090        13
33.100        40
33.110        40
33.120        27
33.130         0
33.140        27
33.150         0
33.160        27
33.170        27
33.180        13
33.190        40
33.200         0
33.210         0
33.220        40
33.230        27
33.240        13
33.250         0
33.260        40
33.270        27
33.280        27
33.290        40
33.300        53
33.310        13
33.320         0
33.330         0
33.340        53
33.350        13
33.360        13
33.370        13
33.380         0
33.390        13
33.400        27
33.410         0
33.420        13
33.430        27
33.440        13
33.450         0
33.460        27
33.470        40
33.480        13
33.490         0
33.500        53
33.510        13
33.520        40
33.530        13
33.540        40
33.550         0
33.560        53
33.570        13
33.580        40
33.590        13
33.600         0
33.610        53
33.620         0
33.630        27
33.640        13
33.650        13
33.660        40
33.670         0
33.680        13
33.690        67
33.700        27
33.710        27
33.720        13
33.730        13
33.740        13
33.750         0
33.760        27
33.770        53
33.780        27
33.790        13
33.800        27
33.810        27
33.820        13
33.830        40
33.840        13
33.850         0
33.860        40
33.870        40
33.880         0
33.890        13
33.900        27
33.910        13
33.920        27
33.930        13
33.940        13
33.950        27
33.960        27
33.970         0
33.980        53
33.990        13
34.000        40
34.010         0
34.020         0
34.030        53
34.040        27
34.050        13
34.060        40
34.070        27
34.080         0
34.090        13
34.100        27
34.110        40
34.120         0
34.130        40
34.140        13
34.150        27
34.160        27
34.170         0
34.180        53
34.190         0
34.200        53
34.210        27
34.220        40
34.230        13
34.240        27
34.250         0
34.260        27
34.270         0
34.280        27
34.290        13
34.300        40
34.310        13
34.320        27
34.330        13
34.340         0
34.350         0
34.360         0
34.370        93
34.380        13
34.390        27
34.400        27
34.410         0
34.420        53
34.430        27
34.440        67
34.450        27
34.460        13
34.470        27
34.480        27
34.490        13
34.500        13
34.510        27
34.520         0
34.530         0
34.540        13
34.550        67
34.560        53
34.570        27
34.580        27
34.590        13
34.600        13
34.610         0
34.620        67
34.630        13
34.640        40
34.650        13
34.660         0
34.670        27
34.680        13
34.690        67
34.700        40
34.710        53
34.720        13
34.730        27
34.740        40
34.750        13
34.760        13
34.770        13
34.780         0
34.790        27
34.800        13
34.810        27
34.820        40
34.830        13
34.840        13
34.850        27
34.860        13
34.870        13
34.880         0
34.890        13
34.900        53
34.910        13
34.920        27
34.930        40
34.940        27
34.950        40
34.960        13
34.970        40
34.980        27
34.990        27
35.000        27
35.010        13
35.020        27
35.030        80
35.040        80
35.050       120
35.060       120
35.070        53
35.080       107
35.090       107
35.100        40
35.110       107
35.120        80
35.130       147
35.140       187
35.150       227
35.160       213
35.170       213
35.180       360
35.190       400
35.200       413
35.210       440
35.220       400
35.230       586
35.240       387
35.250       240
35.260       227
35.270       307
35.280       213
35.290       187
35.300       227
35.310       280
35.320       187
35.330       213
35.340       120
35.350        93
35.360        67
35.370         0
35.380        40
35.390        53
35.400        27
35.410        13
35.420        13
35.430         0
35.440        13
35.450         0
35.460        80
35.470         0
35.480        13
35.490        13
35.500        27
35.510        13
35.520        27
35.530        53
35.540        40
35.550        27
35.560        40
35.570        27
35.580        80
35.590        53
35.600        13
35.610        27
35.620         0
35.630        27
35.640        67
35.650        40
35.660        40
35.670        13
35.680        80
35.690        27
35.700       107
35.710        27
35.720        53
35.730        27
35.740        53
35.750        40
35.760        80
35.770        27
35.780        27
35.790        40
35.800        40
35.810        40
35.820        13
35.830        53
35.840        53
35.850        80
35.860        67
35.870        67
35.880        67
35.890        67
35.900        67
35.910        40
35.920        27
35.930        80
35.940        27
35.950        27
35.960        13
35.970        13
35.980        53
35.990        27
36.000        40
36.010        27
36.020        13
36.030        27
36.040        53
36.050        27
36.060        27
36.070        40
36.080        53
36.090        13
36.100        40
36.110        53
36.120        40
36.130        40
36.140        27
36.150        67
36.160        27
36.170        40
36.180        13
36.190        13
36.200        13
36.210        27
36.220        13
36.230        27
36.240        13
36.250        40
36.260        13
36.270        53
36.280        40
36.290        53
36.300        27
36.310        13
36.320        40
36.330        13
36.340        40
36.350        67
36.360        27
36.370        40
36.380         0
36.390        40
36.400        27
36.410        40
36.420        53
36.430        27
36.440         0
36.450        27
36.460        53
36.470        40
36.480        13
36.490        27
36.500        13
36.510        27
36.520        40
36.530        53
36.540        40
36.550        40
36.560        13
36.570        27
36.580        40
36.590        13
36.600        13
36.610        40
36.620         0
36.630        27
36.640        27
36.650        13
36.660        13
36.670        40
36.680         0
36.690        27
36.700        13
36.710        13
36.720         0
36.730        13
36.740         0
36.750        27
36.760        27
36.770        53
36.780        13
36.790        27
36.800        13
36.810        13
36.820        27
36.830        13
36.840        27
36.850         0
36.860        40
36.870        27
36.880        13
36.890        13
36.900        27
36.910        40
36.920        27
36.930        67
36.940        27
36.950        27
36.960        27
36.970        13
36.980        27
36.990        13
37.000        53
37.010        27
37.020        53
37.030        13
37.040        13
37.050        40
37.060        13
37.070        40
37.080         0
37.090        67
37.100        40
37.110        40
37.120        27
37.130         0
37.140        53
37.150         0
37.160        13
37.170        13
37.180         0
37.190        27
37.200         0
37.210        13
37.220        27
37.230        27
37.240        13
37.250         0
37.260        13
37.270         0
37.280        27
37.290        13
37.300         0
37.310        53
37.320        13
37.330        40
37.340        40
37.350        27
37.360        27
37.370        27
37.380        40
37.390        53
37.400        27
37.410        40
37.420        13
37.430        27
37.440        13
37.450        13
37.460         0
37.470        13
37.480        40
37.490        40
37.500        27
37.510        13
37.520         0
37.530        13
37.540        27
37.550        67
37.560         0
37.570        13
37.580        40
37.590        27
37.600        67
37.610        13
37.620        27
37.630        40
37.640        27
37.650        53
37.660        80
37.670        13
37.680        13
37.690        40
37.700        67
37.710         0
37.720        53
37.730        67
37.740        27
37.750        53
37.760        27
37.770        93
37.780        67
37.790       107
37.800        27
37.810        80
37.820        80
37.830       160
37.840        53
37.850       160
37.860       187
37.870        93
37.880       173
37.890        93
37.900        53
37.910        80
37.920        53
37.930       120
37.940        40
37.950        13
37.960        53
37.970        53
37.980        67
37.990        53
38.000        53
38.010        40
38.020        40
38.030         0
38.040        40
38.050        40
38.060        27
38.070        27
38.080        27
38.090        13
38.100        40
38.110        27
38.120        13
38.130        27
38.140        13
38.150        40
38.160         0
38.170        27
38.180        13
38.190        27
38.200        40
38.210        40
38.220        27
38.230        13
38.240        27
38.250        27
38.260        13
38.270        53
38.280        27
38.290        40
38.300        27
38.310        27
38.320        67
38.330        13
38.340        27
38.350        13
38.360        67
38.370        40
38.380        27
38.390         0
38.400        13
38.410        40
38.420        53
38.430        40
38.440        27
38.450        67
38.460        93
38.470        80
38.480        67
38.490        53
38.500        80
38.510        40
38.520        67
38.530        53
38.540        40
38.550        67
38.560        27
38.570        27
38.580        67
38.590        93
38.600        40
38.610        80
38.620        93
38.630        40
38.640        67
38.650        53
38.660        80
38.670        93
38.680        53
38.690        67
38.700        93
38.710        67
38.720        40
38.730        53
38.740        13
38.750       107
38.760        80
38.770        80
38.780        67
38.790        40
38.800        67
38.810        80
38.820        67
38.830        27
38.840        27
38.850        93
38.860        53
38.870        53
38.880        80
38.890        67
38.900        67
38.910        80
38.920        67
38.930        53
38.940       120
38.950        67
38.960        67
38.970        93
38.980        53
38.990        80
39.000        80
39.010        80
39.020        67
39.030        80
39.040       107
39.050        93
39.060       120
39.070        67
39.080        80
39.090       133
39.100       147
39.110        80
39.120       107
39.130       120
39.140        13
39.150        67
39.160        93
39.170        80
39.180        67
39.190        67
39.200        80
39.210        80
39.220        93
39.230        67
39.240       107
39.250       120
39.260       133
39.270        67
39.280       120
39.290        93
39.300       133
39.310       187
39.320        93
39.330       133
39.340        93
39.350       200
39.360       187
39.370       173
39.380       133
39.390       213
39.400       147
39.410       240
39.420       240
39.430       307
39.440       293
39.450       267
39.460       400
39.470       400
39.480       360
39.490       533
39.500       347
39.510       426
39.520       560
39.530       533
39.540       680
39.550       640
39.560       800
39.570       986
39.580       746
39.590      1146
39.600      1493
39.610      1200
39.620      1453
39.630      1453
39.640      1533
39.650      1906
39.660      1866
39.670      1853
39.680      2186
39.690      2079
39.700      2692
39.710      2506
39.720      2945
39.730      3265
39.740      3505
39.750      3492
39.760      4065
39.770      4452
39.780      4492
39.790      5211
39.800      5211
39.810      5118
39.820      5385
39.830      6078
39.840      5611
39.850      5544
39.860      6651
39.870      6304
39.880      5758
39.890      5598
39.900      5718
39.910      5758
39.920      5704
39.930      5145
39.940      4825
39.950      4372
39.960      4172
39.970      3892
39.980      3892
39.990      3385
40.000      3252
40.010      2652
40.020      2412
40.030      2292
40.040      1986
40.050      1679
40.060      1213
40.070      1559
40.080      1279
40.090      1146
40.100       933
40.110      1026
40.120       946
40.130       640
40.140       760
40.150       573
40.160       546
40.170       426
40.180       560
40.190       546
40.200       293
40.210       333
40.220       333
40.230       307
40.240       320
40.250       280
40.260       293
40.270       307
40.280       187
40.290       213
40.300       160
40.310       240
40.320       213
40.330       173
40.340       200
40.350       147
40.360       160
40.370       147
40.380       147
40.390       120
40.400       107
40.410        80
40.420       187
40.430       227
40.440       160
40.450       120
40.460       120
40.470        40
40.480        80
40.490        53
40.500       200
40.510       107
40.520       107
40.530        80
40.540       147
40.550        80
40.560        67
40.570        80
40.580        93
40.590       120
40.600        53
40.610       107
40.620        27
40.630        93
40.640       147
40.650       107
40.660        93
40.670        27
40.680        53
40.690        67
40.700        67
40.710        27
40.720        27
40.730        40
40.740        53
40.750        27
40.760       120
40.770        53
40.780        40
40.790        67
40.800        53
40.810        67
40.820        67
40.830        53
40.840        53
40.850        53
40.860        67
40.870        80
40.880        53
40.890       107
40.900        27
40.910        80
40.920        67
40.930        67
40.940        53
40.950        93
40.960       120
40.970        40
40.980        27
40.990        27
41.000        27
41.010        53
41.020        67
41.030        53
41.040        53
41.050       133
41.060        53
41.070        53
41.080        80
41.090        53
41.100        67
41.110        40
41.120        53
41.130        27
41.140        40
41.150        53
41.160        80
41.170        53
41.180        53
41.190        67
41.200        40
41.210        80
41.220        40
41.230        53
41.240        27
41.250        53
41.260        67
41.270        53
41.280        67
41.290        53
41.300        27
41.310        40
41.320       120
41.330        40
41.340       107
41.350        27
41.360        53
41.370        53
41.380        67
41.390        67
41.400        67
41.410        40
41.420        53
41.430       107
41.440        13
41.450        53
41.460        67
41.470        27
41.480        40
41.490        40
41.500         0
41.510        80
41.520        80
41.530        53
41.540        93
41.550        93
41.560        40
41.570        53
41.580        53
41.590        80
41.600        53
41.610        27
41.620        53
41.630        53
41.640        40
41.650        53
41.660        53
41.670        40
41.680       107
41.690       120
41.700       120
41.710        27
41.720       160
41.730       147
41.740       120
41.750       160
41.760       120
41.770       133
41.780       133
41.790        93
41.800        80
41.810        93
41.820        53
41.830        40
41.840       107
41.850        67
41.860        93
41.870       160
41.880        93
41.890        53
41.900        53
41.910        27
41.920        67
41.930        40
41.940        53
41.950        13
41.960       120
41.970        53
41.980        40
41.990        27
42.000        40
42.010         0
42.020        13
42.030        40
42.040        40
42.050        53
42.060        27
42.070        40
42.080        13
42.090        27
42.100        13
42.110        40
42.120        27
42.130        27
42.140        13
42.150        53
42.160        27
42.170        27
42.180        67
42.190        13
42.200        13
42.210         0
42.220        27
42.230        67
42.240        40
42.250        27
42.260        80
42.270        53
42.280        27
42.290        40
42.300         0
42.310        93
42.320        67
42.330        67
42.340        53
42.350        27
42.360        27
42.370        40
42.380        27
42.390        27
42.400        40
42.410        67
42.420        53
42.430        40
42.440        40
42.450        13
42.460        40
42.470        27
42.480        27
42.490        40
42.500        53
42.510        40
42.520        53
42.530        27
42.540         0
42.550        53
42.560        53
42.570        27
42.580        93
42.590        53
42.600        40
42.610        13
42.620        67
42.630        13
42.640        27
42.650        40
42.660        67
42.670        53
42.680        40
42.690        27
42.700        13
42.710        27
42.720        67
42.730        53
42.740        27
42.750        53
42.760        53
42.770        40
42.780        40
42.790        80
42.800        27
42.810        40
42.820        13
42.830         0
42.840        40
42.850        40
42.860        13
42.870        40
42.880        27
42.890        13
42.900        27
42.910        53
42.920        40
42.930        40
42.940        13
42.950        53
42.960        40
42.970        80
42.980        27
42.990        13
43.000         0
43.010        40
43.020        13
43.030        40
43.040        40
43.050        27
43.060        53
43.070        13
43.080        40
43.090        27
43.100        40
43.110        13
43.120        67
43.130        27
43.140        27
43.150        67
43.160        93
43.170        27
43.180        13
43.190        80
43.200         0
43.210        53
43.220        27
43.230        53
43.240        53
43.250        27
43.260        67
43.270        53
43.280        40
43.290        13
43.300       107
43.310        67
43.320        80
43.330        40
43.340        80
43.350       120
43.360       147
43.370       107
43.380       147
43.390       133
43.400       253
43.410       293
43.420       293
43.430       360
43.440       453
43.450       480
43.460       400
43.470       387
43.480       267
43.490       200
43.500       133
43.510        40
43.520       133
43.530       280
43.540       280
43.550       253
43.560       187
43.570       267
43.580       173
43.590       107
43.600        93
43.610       120
43.620        67
43.630        27
43.640        67
43.650        67
43.660        80
43.670         0
43.680        67
43.690         0
43.700        13
43.710        67
43.720        40
43.730        53
43.740        40
43.750         0
43.760        27
43.770        40
43.780        53
43.790        40
43.800        53
43.810        27
43.820        53
43.830        67
43.840        40
43.850        67
43.860        13
43.870        13
43.880        27
43.890        27
43.900        40
43.910         0
43.920         0
43.930        27
43.940        53
43.950        67
43.960        13
43.970        67
43.980         0
43.990        27
44.000        27
44.010        53
44.020        40
44.030        13
44.040        40
44.050        40
44.060        13
44.070        13
44.080        40
44.090        53
44.100        53
44.110        27
44.120        13
44.130        13
44.140        13
44.150        13
44.160        13
44.170        40
44.180        40
44.190        53
44.200        53
44.210         0
44.220        13
44.230        40
44.240        27
44.250        13
44.260        40
44.270        27
44.280         0
44.290        27
44.300        13
44.310        27
44.320        27
44.330        40
44.340        13
44.350        67
44.360        27
44.370        80
44.380         0
44.390        40
44.400        13
44.410        53
44.420        27
44.430        67
44.440        27
44.450        13
44.460        40
44.470        27
44.480       107
44.490        27
44.500        27
44.510        13
44.520         0
44.530        80
44.540        13
44.550        53
44.560        13
44.570        40
44.580        53
44.590         0
44.600        13
44.610        27
44.620        27
44.630        40
44.640        27
44.650        27
44.660        27
44.670        40
44.680        13
44.690        40
44.700        13
44.710        40
44.720        27
44.730        13
44.740        13
44.750        40
44.760        27
44.770        40
44.780        40
44.790        13
44.800        27
44.810        27
44.820        27
44.830        13
44.840         0
44.850        13
44.860        13
44.870        13
44.880        13
44.890        13
44.900        40
44.910        53
44.920        13
44.930        13
44.940        27
44.950        40
44.960        27
44.970        13
44.980        53
44.990        40
45.000        40
45.010        80
45.020        27
45.030        13
45.040        53
45.050        27
45.060        27
45.070        40
45.080        67
45.090        13
45.100        27
45.110        27
45.120        80
45.130        27
45.140        80
45.150        13
45.160        27
45.170        53
45.180        67
45.190        13
45.200        13
45.210        27
45.220        67
45.230        13
45.240        13
45.250        40
45.260        27
45.270        13
45.280        40
45.290        27
45.300        53
45.310        13
45.320        27
45.330        13
45.340        27
45.350        40
45.360         0
45.370        13
45.380         0
45.390        27
45.400        40
45.410         0
45.420        40
45.430        40
45.440        13
45.450        27
45.460        53
45.470        67
45.480        93
45.490        40
45.500        27
45.510        13
45.520        13
45.530        80
45.540        53
45.550        93
45.560        67
45.570         0
45.580        67
45.590        67
45.600        53
45.610        27
45.620        13
45.630        40
45.640        80
45.650        53
45.660        67
45.670        40
45.680        93
45.690        27
45.700        67
45.710        67
45.720        80
45.730       107
45.740        67
45.750        67
45.760       107
45.770        53
45.780        93
45.790       107
45.800       173
45.810        93
45.820        67
45.830        80
45.840       107
45.850        80
45.860       173
45.870       133
45.880       133
45.890       173
45.900       187
45.910       227
45.920       187
45.930       187
45.940       120
45.950       147
45.960       213
45.970       133
45.980       147
45.990       187
46.000       107
46.010       187
46.020       213
46.030       160
46.040       173
46.050       213
46.060       200
46.070       240
46.080       253
46.090       253
46.100       173
46.110       213
46.120       200
46.130       240
46.140       373
46.150       387
46.160       253
46.170       333
46.180       307
46.190       200
46.200       280
46.210       307
46.220       213
46.230       240
46.240       253
46.250       293
46.260       307
46.270       173
46.280       160
46.290       267
46.300       160
46.310       240
46.320       187
46.330       173
46.340       173
46.350       240
46.360       253
46.370       213
46.380       253
46.390       147
46.400       160
46.410       107
46.420        67
46.430        27
46.440       147
46.450       133
46.460       160
46.470        67
46.480       160
46.490        67
46.500       133
46.510        67
46.520        93
46.530       160
46.540       133
46.550       160
46.560        80
46.570        40
46.580        93
46.590        67
46.600        40
46.610        53
46.620        40
46.630        67
46.640        93
46.650        40
46.660       133
46.670         0
46.680        67
46.690        53
46.700        53
46.710        53
46.720        40
46.730        40
46.740        27
46.750        93
46.760         0
46.770        93
46.780        40
46.790         0
46.800        40
46.810        53
46.820        80
46.830        13
46.840        27
46.850        53
46.860        67
46.870        13
46.880       107
46.890        27
46.900        53
46.910        53
46.920        40
46.930         0
46.940        27
46.950        13
46.960        53
46.970        40
46.980        13
46.990        13
47.000        27
47.010        40
47.020        53
47.030        40
47.040        80
47.050        13
47.060        40
47.070        40
47.080        27
47.090        80
47.100        40
47.110        40
47.120        13
47.130        13
47.140        67
47.150        27
47.160        27
47.170        13
47.180        13
47.190        53
47.200        40
47.210         0
47.220        27
47.230        27
47.240        27
47.250        27
47.260        27
47.270        13
47.280        13
47.290        67
47.300        27
47.310         0
47.320        40
47.330        13
47.340        27
47.350        13
47.360        80
47.370        40
47.380        40
47.390        27
47.400        40
47.410         0
47.420        27
47.430        13
47.440        67
47.450        27
47.460        27
47.470        40
47.480        40
47.490         0
47.500         0
47.510        27
47.520        53
47.530        27
47.540        53
47.550        40
47.560        40
47.570        27
47.580        27
47.590        67
47.600        13
47.610        13
47.620        27
47.630        27
47.640         0
47.650        40
47.660        40
47.670        53
47.680        13
47.690        27
47.700        53
47.710        53
47.720        27
47.730        13
47.740         0
47.750        53
47.760        13
47.770        53
47.780        27
47.790        40
47.800        27
47.810         0
47.820        13
47.830        40
47.840        40
47.850        27
47.860         0
47.870        13
47.880        53
47.890        53
47.900        13
47.910        13
47.920        27
47.930        13
47.940         0
47.950        67
47.960        67
47.970         0
47.980        40
47.990        13
48.000        13
48.010        13
48.020         0
48.030        27
48.040         0
48.050         0
48.060        13
48.070        27
48.080        27
48.090        27
48.100        27
48.110        40
48.120        27
48.130         0
48.140        27
48.150        13
48.160        13
48.170        13
48.180        27
48.190        40
48.200        40
48.210        40
48.220        27
48.230        40
48.240        13
48.250        27
48.260         0
48.270        53
48.280        13
48.290        13
48.300        27
48.310         0
48.320        40
48.330        13
48.340        53
48.350         0
48.360        13
48.370         0
48.380        27
48.390        13
48.400        40
48.410         0
48.420        13
48.430        13
48.440         0
48.450        27
48.460        27
48.470        40
48.480        27
48.490        40
48.500        27
48.510        53
48.520        40
48.530        13
48.540        27
48.550        27
48.560        27
48.570        27
48.580        13
48.590        27
48.600        13
48.610         0
48.620        27
48.630        27
48.640        13
48.650        13
48.660        13
48.670        40
48.680        67
48.690         0
48.700        13
48.710        27
48.720        13
48.730        40
48.740        53
48.750        13
48.760        40
48.770        40
48.780        27
48.790        13
48.800         0
48.810        67
48.820        53
48.830        13
48.840        53
48.850        27
48.860         0
48.870        27
48.880         0
48.890        40
48.900         0
48.910        27
48.920        27
48.930        80
48.940        27
48.950        27
48.960        13
48.970        13
48.980        13
48.990        13
49.000        40
49.010        27
49.020        13
49.030        13
49.040        13
49.050        13
49.060        13
49.070        40
49.080        40
49.090         0
49.100        13
49.110        13
49.120        13
49.130        13
49.140        13
49.150        27
49.160         0
49.170        67
49.180        40
49.190        27
49.200        67
49.210        13
49.220        27
49.230        27
49.240        13
49.250        27
49.260        27
49.270        13
49.280        53
49.290        13
49.300         0
49.310        27
49.320        27
49.330        67
49.340        27
49.350        27
49.360        13
49.370        27
49.380        13
49.390        13
49.400         0
49.410        27
49.420        27
49.430        40
49.440        40
49.450        13
49.460        53
49.470        53
49.480        27
49.490        13
49.500        27
49.510        53
49.520        13
49.530        13
49.540        27
49.550        27
49.560        13
49.570        40
49.580        27
49.590        27
49.600         0
49.610        13
49.620        53
49.630        27
49.640        53
49.650         0
49.660        27
49.670         0
49.680        13
49.690         0
49.700        13
49.710        13
49.720        13
49.730        27
49.740        13
49.750        40
49.760        40
49.770        40
49.780        13
49.790        40
49.800         0
49.810        40
49.820        13
49.830        27
49.840        27
49.850        13
49.860         0
49.870        80
49.880         0
49.890         0
49.900        40
49.910        53
49.920        53
49.930        13
49.940        13
49.950         0
49.960         0
49.970        13
49.980         0
49.990        13
50.000        27
50.010        53
50.020        67
50.030        27
50.040        13
50.050         0
50.060        13
50.070         0
50.080        53
50.090        13
50.100        13
50.110        13
50.120        13
50.130        13
50.140        13
50.150        27
50.160         0
50.170        27
50.180        13
50.190        27
50.200        27
50.210         0
50.220        13
50.230        40
50.240        53
50.250        27
50.260        27
50.270        13
50.280        27
50.290        13
50.300         0
50.310        40
50.320        27
50.330         0
50.340        27
50.350        13
50.360        40
50.370        27
50.380        13
50.390         0
50.400        13
50.410        13
50.420        27
50.430        40
50.440         0
50.450        40
50.460        53
50.470         0
50.480         0
50.490         0
50.500        40
50.510        27
50.520        13
50.530        27
50.540         0
50.550        13
50.560        40
50.570        13
50.580         0
50.590        27
50.600        13
50.610        13
50.620        27
50.630        13
50.640        13
50.650        13
50.660         0
50.670         0
50.680        27
50.690        53
50.700        13
50.710        13
50.720        13
50.730        40
50.740        13
50.750        53
50.760        13
50.770        13
50.780        27
50.790        13
50.800         0
50.810        40
50.820        27
50.830        13
50.840         0
50.850        53
50.860        40
50.870        27
50.880        40
50.890        13
50.900         0
50.910        13
50.920        53
50.930         0
50.940        40
50.950        13
50.960        27
50.970         0
50.980        40
50.990        27
51.000        40
51.010        27
51.020        40
51.030        40
51.040        13
51.050        40
51.060        27
51.070        13
51.080        13
51.090        13
51.100        13
51.110         0
51.120         0
51.130         0
51.140        13
51.150         0
51.160        13
51.170        40
51.180        53
51.190        27
51.200        13
51.210        13
51.220        27
51.230         0
51.240        67
51.250        40
51.260        53
51.270         0
51.280         0
51.290        13
51.300        13
51.310        27
51.320        40
51.330        27
51.340        13
51.350         0
51.360         0
51.370        27
51.380         0
51.390        27
51.400        13
51.410        40
51.420        13
51.430         0
51.440         0
51.450         0
51.460        13
51.470        27
51.480        40
51.490        27
51.500         0
51.510         0
51.520         0
51.530        13
51.540         0
51.550         0
51.560        27
51.570        13
51.580        13
51.590         0
51.600         0
51.610         0
51.620         0
51.630        27
51.640        13
51.650        27
51.660        27
51.670        13
51.680        67
51.690         0
51.700        27
51.710         0
51.720        13
51.730         0
51.740        40
51.750        40
51.760        27
51.770         0
51.780        27
51.790        40
51.800        13
51.810        27
51.820        40
51.830        13
51.840        40
51.850        13
51.860         0
51.870         0
51.880         0
51.890         0
51.900         0
51.910        27
51.920         0
51.930        13
51.940        13
51.950        27
51.960        27
51.970        13
51.980         0
51.990        13
52.000        40
52.010        27
52.020        40
52.030        13
52.040         0
52.050        13
52.060        13
52.070        40
52.080        13
52.090        27
52.100        13
52.110        27
52.120        13
52.130        13
52.140         0
52.150        27
52.160         0
52.170        13
52.180         0
52.190        40
52.200        40
52.210        13
52.220        40
52.230        27
52.240        27
52.250        13
52.260        13
52.270         0
52.280        13
52.290        27
52.300         0
52.310        13
52.320        13
52.330        13
52.340         0
52.350        40
52.360        13
52.370        53
52.380        27
52.390        27
52.400         0
52.410        13
52.420        27
52.430         0
52.440         0
52.450        27
52.460        40
52.470        40
52.480        27
52.490        40
52.500        67
52.510        13
52.520        27
52.530        53
52.540        53
52.550        53
52.560        40
52.570       107
52.580        67
52.590       107
52.600        53
52.610       120
52.620       133
52.630       160
52.640       133
52.650       133
52.660       133
52.670       200
52.680       200
52.690       173
52.700        93
52.710        40
52.720        93
52.730        40
52.740        80
52.750        93
52.760        80
52.770        53
52.780        40
52.790       107
52.800        80
52.810        40
52.820        40
52.830        27
52.840        53
52.850        27
52.860        40
52.870        27
52.880        40
52.890        40
52.900        13
52.910        13
52.920        40
52.930        27
52.940         0
52.950        13
52.960        27
52.970        40
52.980        27
52.990        13
53.000        13
53.010         0
53.020         0
53.030        27
53.040        53
53.050         0
53.060        13
53.070        67
53.080        13
53.090        13
53.100        53
53.110        27
53.120        13
53.130        13
53.140         0
53.150        13
53.160         0
53.170         0
53.180        27
53.190        27
53.200        13
53.210         0
53.220        13
53.230        40
53.240        13
53.250         0
53.260        13
53.270        27
53.280         0
53.290        13
53.300         0
53.310        40
53.320        13
53.330        13
53.340         0
53.350        27
53.360        13
53.370         0
53.380        13
53.390        13
53.400         0
53.410        13
53.420        13
53.430        13
53.440        13
53.450        27
53.460        13
53.470        53
53.480         0
53.490        13
53.500        53
53.510         0
53.520        53
53.530        27
53.540         0
53.550        27
53.560         0
53.570         0
53.580        13
53.590         0
53.600         0
53.610         0
53.620        13
53.630        13
53.640        27
53.650         0
53.660         0
53.670        27
53.680        13
53.690        27
53.700         0
53.710        27
53.720         0
53.730        13
53.740        40
53.750        27
53.760        13
53.770        27
53.780         0
53.790         0
53.800        13
53.810        13
53.820        27
53.830         0
53.840        27
53.850         0
53.860        27
53.870        40
53.880        13
53.890         0
53.900        13
53.910        13
53.920         0
53.930        40
53.940        13
53.950         0
53.960        27
53.970         0
53.980        27
53.990         0
54.000         0
54.010        13
54.020        27
54.030         0
54.040        13
54.050         0
54.060         0
54.070         0
54.080        13
54.090        13
54.100        27
54.110        13
54.120        13
54.130         0
54.140         0
54.150        13
54.160        13
54.170         0
54.180        27
54.190         0
54.200        13
54.210        13
54.220        13
54.230        13
54.240         0
54.250        67
54.260        40
54.270         0
54.280         0
54.290        13
54.300         0
54.310        27
54.320         0
54.330         0
54.340         0
54.350        13
54.360         0
54.370         0
54.380        53
54.390         0
54.400        13
54.410        13
54.420         0
54.430         0
54.440        27
54.450        27
54.460        40
54.470        13
54.480         0
54.490        13
54.500         0
54.510        40
54.520        13
54.530        27
54.540        13
54.550        13
54.560        13
54.570         0
54.580        13
54.590        27
54.600        27
54.610        13
54.620         0
54.630        13
54.640        13
54.650         0
54.660         0
54.670         0
54.680        13
54.690        13
54.700        13
54.710        27
54.720        27
54.730        13
54.740        13
54.750        13
54.760         0
54.770        13
54.780        27
54.790         0
54.800        27
54.810         0
54.820        13
54.830        53
54.840        13
54.850        40
54.860         0
54.870         0
54.880        27
54.890         0
54.900        13
54.910        27
54.920        13
54.930        27
54.940         0
54.950        27
54.960        13
54.970        13
54.980        27
54.990        27
55.000        40
55.010        27
55.020        27
55.030         0
55.040        13
55.050        13
55.060        27
55.070        13
55.080        13
55.090        27
55.100        27
55.110        13
55.120        27
55.130         0
55.140        27
55.150        27
55.160        13
55.170        13
55.180        53
55.190         0
55.200         0
55.210         0
55.220         0
55.230        27
55.240        27
55.250        13
55.260        13
55.270         0
55.280        13
55.290        27
55.300        40
55.310        13
55.320        13
55.330         0
55.340        13
55.350        13
55.360        13
55.370        27
55.380        27
55.390         0
55.400        13
55.410        13
55.420         0
55.430        13
55.440         0
55.450         0
55.460        27
55.470        40
55.480        67
55.490        27
55.500        13
55.510         0
55.520        40
55.530        13
55.540        13
55.550        27
55.560        13
55.570        13
55.580        13
55.590         0
55.600         0
55.610        27
55.620        13
55.630        53
55.640         0
55.650        27
55.660         0
55.670        13
55.680        13
55.690        13
55.700        53
55.710        13
55.720        13
55.730        13
55.740        40
55.750        13
55.760         0
55.770        13
55.780        13
55.790        13
55.800        93
55.810        27
55.820        13
55.830         0
55.840        13
55.850        13
55.860         0
55.870        27
55.880        13
55.890         0
55.900         0
55.910         0
55.920        27
55.930        13
55.940        40
55.950        53
55.960        13
55.970         0
55.980         0
55.990         0
56.000        13
56.010        40
56.020        27
56.030        13
56.040         0
56.050        27
56.060        53
56.070        53
56.080         0
56.090        27
56.100        13
56.110        13
56.120        13
56.130        53
56.140        27
56.150        27
56.160        13
56.170        13
56.180        27
56.190        13
56.200        13
56.210        13
56.220        67
56.230        13
56.240         0
56.250        13
56.260        27
56.270        40
56.280        40
56.290        13
56.300         0
56.310        13
56.320        13
56.330         0
56.340        13
56.350        13
56.360         0
56.370        27
56.380         0
56.390        13
56.400        40
56.410         0
56.420        13
56.430        13
56.440        13
56.450        13
56.460         0
56.470        13
56.480        13
56.490        13
56.500        40
56.510         0
56.520         0
56.530        13
56.540         0
56.550         0
56.560        13
56.570         0
56.580        13
56.590        27
56.600        27
56.610        40
56.620        13
56.630         0
56.640        13
56.650        13
56.660        13
56.670        27
56.680        27
56.690        13
56.700        13
56.710         0
56.720         0
56.730        53
56.740        40
56.750        40
56.760        40
56.770        27
56.780        13
56.790         0
56.800         0
56.810        40
56.820        13
56.830        13
56.840        27
56.850        13
56.860         0
56.870        13
56.880        27
56.890         0
56.900        13
56.910         0
56.920        67
56.930        67
56.940        13
56.950        40
56.960        27
56.970        13
56.980        13
56.990        67
57.000         0
57.010        27
57.020        53
57.030        40
57.040         0
57.050        40
57.060        53
57.070        13
57.080        27
57.090        27
57.100        27
57.110        40
57.120        13
57.130        40
57.140        67
57.150        67
57.160        40
57.170        13
57.180         0
57.190        67
57.200        53
57.210        40
57.220        40
57.230        13
57.240        40
57.250        93
57.260        67
57.270        67
57.280        40
57.290        13
57.300        13
57.310        67
57.320        53
57.330        80
57.340        80
57.350        80
57.360        67
57.370        53
57.380        67
57.390         0
57.400        40
57.410        53
57.420        80
57.430       120
57.440       107
57.450        53
57.460        80
57.470        27
57.480       133
57.490        53
57.500       107
57.510       187
57.520       107
57.530       107
57.540       173
57.550       160
57.560       160
57.570       333
57.580       293
57.590       373
57.600       387
57.610       320
57.620       333
57.630       333
57.640       307
57.650       213
57.660       120
57.670       213
57.680       133
57.690       200
57.700       120
57.710       213
57.720        53
57.730       133
57.740       293
57.750       213
57.760       160
57.770       120
57.780       173
57.790        93
57.800       107
57.810       147
57.820        67
57.830        67
57.840        13
57.850        53
57.860        53
57.870        67
57.880        53
57.890        40
57.900        40
57.910        27
57.920        13
57.930        27
57.940         0
57.950        67
57.960         0
57.970         0
57.980        13
57.990        93
58.000        27
58.010        13
58.020        13
58.030         0
58.040        27
58.050        13
58.060        40
58.070         0
58.080        13
58.090         0
58.100        13
58.110        27
58.120        27
58.130         0
58.140        40
58.150        13
58.160         0
58.170        27
58.180        27
58.190        13
58.200        27
58.210        27
58.220        13
58.230         0
58.240        40
58.250        13
58.260         0
58.270         0
58.280        27
58.290        40
58.300        27
58.310         0
58.320        13
58.330        27
58.340        13
58.350        13
58.360         0
58.370        27
58.380        13
58.390         0
58.400         0
58.410        40
58.420         0
58.430        27
58.440        27
58.450        27
58.460        27
58.470         0
58.480        53
58.490        13
58.500         0
58.510         0
58.520        13
58.530        27
58.540        40
58.550        13
58.560        27
58.570        27
58.580        40
58.590         0
58.600        27
58.610        27
58.620        13
58.630        13
58.640        13
58.650         0
58.660        27
58.670        13
58.680        13
58.690         0
58.700        13
58.710        13
58.720         0
58.730        40
58.740         0
58.750        27
58.760        27
58.770        13
58.780        13
58.790        13
58.800        13
58.810        27
58.820        13
58.830        13
58.840        27
58.850        27
58.860        27
58.870        27
58.880        27
58.890         0
58.900        13
58.910        27
58.920         0
58.930        13
58.940        40
58.950        13
58.960        13
58.970         0
58.980         0
58.990         0
59.000         0
59.010        13
59.020        13
59.030        27
59.040        13
59.050         0
59.060        40
59.070         0
59.080         0
59.090        27
59.100        27
59.110        13
59.120        13
59.130        40
59.140         0
59.150        13
59.160         0
59.170        27
59.180        13
59.190         0
59.200        13
59.210        13
59.220         0
59.230         0
59.240        13
59.250        13
59.260         0
59.270        27
59.280        13
59.290        13
59.300         0
59.310        27
59.320        13
59.330        13
59.340        13
59.350        27
59.360        13
59.370        27
59.380        13
59.390        13
59.400        27
59.410        13
59.420        27
59.430        13
59.440         0
59.450        13
59.460         0
59.470        13
59.480         0
59.490         0
59.500        13
59.510        40
59.520        27
59.530        27
59.540        13
59.550        27
59.560        13
59.570        27
59.580        13
59.590        13
59.600         0
59.610        13
59.620        27
59.630        27
59.640         0
59.650        53
59.660        13
59.670        40
59.680        13
59.690         0
59.700         0
59.710        13
59.720        13
59.730        13
59.740         0
59.750        27
59.760        13
59.770         0
59.780        27
59.790         0
59.800         0
59.810        40
59.820         0
59.830        13
59.840        40
59.850        27
59.860        13
59.870        13
59.880        27
59.890        27
59.900        13
59.910        27
59.920        13
59.930        27
59.940        13
59.950        27
59.960        13
59.970        27
59.980         0
59.990        13
60.000         0
