20.000        27
20.010        40
20.020        13
20.030        67
20.040        13
20.050        27
20.060        13
20.070        53
20.080        40
20.090        67
20.100        27
20.110        13
20.120        67
20.130        53
20.140        80
20.150        40
20.160        13
20.170       107
20.180       133
20.190        53
20.200        40
20.210        80
20.220        13
20.230        13
20.240        53
20.250        13
20.260        13
20.270        53
20.280        53
20.290       107
20.300        67
20.310        40
20.320        93
20.330        27
20.340        53
20.350        27
20.360        27
20.370        40
20.380        40
20.390        27
20.400        80
20.410        67
20.420        93
20.430        40
20.440        27
20.450        93
20.460        40
20.470        80
20.480        40
20.490        40
20.500        40
20.510        40
20.520        67
20.530        40
20.540        27
20.550        53
20.560        27
20.570        27
20.580       133
20.590        27
20.600        40
20.610        13
20.620        93
20.630        67
20.640        40
20.650        27
20.660        13
20.670        53
20.680        27
20.690        27
20.700        80
20.710        27
20.720        13
20.730        40
20.740        27
20.750        53
20.760        40
20.770        67
20.780        53
20.790        80
20.800        40
20.810        40
20.820        40
20.830        40
20.840        40
20.850        67
20.860        27
20.870        13
20.880        27
20.890        67
20.900        67
20.910        13
20.920         0
20.930        53
20.940        40
20.950        40
20.960        53
20.970        40
20.980        13
20.990        53
21.000        27
21.010        80
21.020        13
21.030        93
21.040        67
21.050        53
21.060        27
21.070        80
21.080        40
21.090        80
21.100        53
21.110        40
21.120        80
21.130        80
21.140        67
21.150         0
21.160        40
21.170        53
21.180        40
21.190        53
21.200        27
21.210        40
21.220        53
21.230        40
21.240        53
21.250        93
21.260        53
21.270        67
21.280        40
21.290        80
21.300        53
21.310        53
21.320        53
21.330        80
21.340       120
21.350        13
21.360        40
21.370        80
21.380        13
21.390        27
21.400        40
21.410        40
21.420        53
21.430        40
21.440        13
21.450        93
21.460        27
21.470        13
21.480        67
21.490        27
21.500        53
21.510        27
21.520        27
21.530        53
21.540        67
21.550        67
21.560        53
21.570        53
21.580        53
21.590        53
21.600        53
21.610        80
21.620        40
21.630         0
21.640        27
21.650        80
21.660        53
21.670        40
21.680        40
21.690        40
21.700        40
21.710       120
21.720        40
21.730        13
21.740        40
21.750        27
21.760        13
21.770        53
21.780        27
21.790        13
21.800        53
21.810        67
21.820        40
21.830        13
21.840        53
21.850        80
21.860        80
21.870        93
21.880        27
21.890        53
21.900        93
21.910        27
21.920        40
21.930        40
21.940        27
21.950         0
21.960         0
21.970        80
21.980        80
21.990        67
22.000        27
22.010         0
22.020        40
22.030        67
22.040        27
22.050        27
22.060        40
22.070        27
22.080        27
22.090        40
22.100        27
22.110        40
22.120        40
22.130        53
22.140        27
22.150        40
22.160        40
22.170        40
22.180        53
22.190        53
22.200        53
22.210        93
22.220        80
22.230        13
22.240        27
22.250        40
22.260        40
22.270        27
22.280        93
22.290        67
22.300        27
22.310        40
22.320        27
22.330        13
22.340        53
22.350        67
22.360        40
22.370        13
22.380        67
22.390        40
22.400        27
22.410        27
22.420        53
22.430        93
22.440        93
22.450        80
22.460        67
22.470       107
22.480        93
22.490        67
22.500        40
22.510        27
22.520        67
22.530        53
22.540        67
22.550        53
22.560        40
22.570        27
22.580        27
22.590        93
22.600        27
22.610        40
22.620       120
22.630        27
22.640        93
22.650        27
22.660        53
22.670        40
22.680        67
22.690        53
22.700        40
22.710        53
22.720        13
22.730        40
22.740        93
22.750        67
22.760        40
22.770        93
22.780        80
22.790        67
22.800        40
22.810        53
22.820        53
22.830        27
22.840        13
22.850        27
22.860        40
22.870        27
22.880        27
22.890        27
22.900        40
22.910         0
22.920        27
22.930        13
22.940        13
22.950        13
22.960         0
22.970        40
22.980        67
22.990        80
23.000        53
23.010        27
23.020        67
23.030        13
23.040        27
23.050        27
23.060        80
23.070        53
23.080         0
23.090        40
23.100        27
23.110        40
23.120        93
23.130        53
23.140        67
23.150        13
23.160        67
23.170        53
23.180        40
23.190       120
23.200        27
23.210        53
23.220        27
23.230        40
23.240        40
23.250        40
23.260        40
23.270        27
23.280        67
23.290        53
23.300       107
23.310        13
23.320         0
23.330        27
23.340        27
23.350        53
23.360        40
23.370        27
23.380        80
23.390        40
23.400        53
23.410        53
23.420        40
23.430         0
23.440        13
23.450        40
23.460        27
23.470        13
23.480        13
23.490        27
23.500         0
23.510        27
23.520        67
23.530        27
23.540         0
23.550        53
23.560        27
23.570        40
23.580        40
23.590         0
23.600        27
23.610        67
23.620        40
23.630        40
23.640        67
23.650        67
23.660        40
23.670        13
23.680        67
23.690        27
23.700        13
23.710         0
23.720        13
23.730        80
23.740        13
23.750        13
23.760         0
23.770         0
23.780        40
23.790        67
23.800        53
23.810        40
23.820        80
23.830        27
23.840        67
23.850        27
23.860        27
23.870        40
23.880        27
23.890        53
23.900        40
23.910         0
23.920        27
23.930        67
23.940        27
23.950        40
23.960        13
23.970        67
23.980        40
23.990         0
24.000        40
24.010        80
24.020        40
24.030        40
24.040        80
24.050        27
24.060        13
24.070        40
24.080        53
24.090        13
24.100        40
24.110        67
24.120        13
24.130        93
24.140        53
24.150        53
24.160        53
24.170        53
24.180        27
24.190        40
24.200        40
24.210        53
24.220        27
24.230        13
24.240        80
24.250        40
24.260        27
24.270        40
24.280        40
24.290        27
24.300        13
24.310        27
24.320        27
24.330        93
24.340        40
24.350        40
24.360        53
24.370        80
24.380        13
24.390        40
24.400        27
24.410        67
24.420        27
24.430        67
24.440        13
24.450        27
24.460        40
24.470        53
24.480        40
24.490        27
24.500        13
24.510        40
24.520        80
24.530        80
24.540        13
24.550        27
24.560        67
24.570        40
24.580        27
24.590        40
24.600        53
24.610        27
24.620        53
24.630         0
24.640        53
24.650        53
24.660         0
24.670        27
24.680        53
24.690        27
24.700        53
24.710        67
24.720        27
24.730        53
24.740        27
24.750        53
24.760         0
24.770        27
24.780        13
24.790         0
24.800        27
24.810        27
24.820        27
24.830        13
24.840        13
24.850        93
24.860        27
24.870        67
24.880        13
24.890        53
24.900        40
24.910        53
24.920        40
24.930        27
24.940        40
24.950        27
24.960        27
24.970        80
24.980        27
24.990        13
25.000        67
25.010        13
25.020       120
25.030        40
25.040        27
25.050        40
25.060        53
25.070        80
25.080        40
25.090        53
25.100        27
25.110        40
25.120        40
25.130        67
25.140        67
25.150        67
25.160        13
25.170        27
25.180        27
25.190        27
25.200        67
25.210        53
25.220        27
25.230        27
25.240        40
25.250        53
25.260        13
25.270        40
25.280        53
25.290        53
25.300        40
25.310        40
25.320        40
25.330        40
25.340        27
25.350        40
25.360        13
25.370         0
25.380        13
25.390        13
25.400        53
25.410        40
25.420        80
25.430        13
25.440        13
25.450        67
25.460        80
25.470        27
25.480        40
25.490        27
25.500        53
25.510        27
25.520        27
25.530        67
25.540        80
25.550        93
25.560        27
25.570        27
25.580        27
25.590        93
25.600        13
25.610        40
25.620        40
25.630        13
25.640         0
25.650        27
25.660        80
25.670        40
25.680        27
25.690        40
25.700        27
25.710        13
25.720        13
25.730         0
25.740        27
25.750        67
25.760        13
25.770        13
25.780        40
25.790        13
25.800        40
25.810        67
25.820        67
25.830        27
25.840        53
25.850        67
25.860        13
25.870        27
25.880        40
25.890        80
25.900        27
25.910        27
25.920        27
25.930        53
25.940         0
25.950        27
25.960        53
25.970        13
25.980        53
25.990        13
26.000        40
26.010        67
26.020        27
26.030        13
26.040        27
26.050        40
26.060        27
26.070        67
26.080        13
26.090        40
26.100        13
26.110         0
26.120       107
26.130        40
26.140        67
26.150         0
26.160        53
26.170        40
26.180        40
26.190        53
26.200        67
26.210        13
26.220        40
26.230        40
26.240        27
26.250        27
26.260        40
26.270        53
26.280        40
26.290        53
26.300        67
26.310        27
26.320        13
26.330        13
26.340        40
26.350        13
26.360        67
26.370        67
26.380        13
26.390        40
26.400        13
26.410        13
26.420        40
26.430        53
26.440         0
26.450        40
26.460        13
26.470        13
26.480        13
26.490        53
26.500         0
26.510        53
26.520        27
26.530        53
26.540        40
26.550        27
26.560        40
26.570        27
26.580        40
26.590        13
26.600        27
26.610        27
26.620        40
26.630        13
26.640        40
26.650        27
26.660        27
26.670        13
26.680        40
26.690        40
26.700        27
26.710        13
26.720        27
26.730        27
26.740        13
26.750        13
26.760        13
26.770        27
26.780        40
26.790        27
26.800        13
26.810        27
26.820        27
26.830        53
26.840        53
26.850         0
26.860        67
26.870        67
26.880        80
26.890        27
26.900        40
26.910        53
26.920         0
26.930        27
26.940        27
26.950         0
26.960        40
26.970        27
26.980        27
26.990        53
27.000        27
27.010        27
27.020        27
27.030        40
27.040        13
27.050        13
27.060        27
27.070        27
27.080        13
27.090        27
27.100        40
27.110        13
27.120        13
27.130        27
27.140        80
27.150         0
27.160        27
27.170        53
27.180         0
27.190        40
27.200        13
27.210        53
27.220        13
27.230        27
27.240        27
27.250        13
27.260        80
27.270        40
27.280        27
27.290        27
27.300        13
27.310        13
27.320        53
27.330        27
27.340        40
27.350        53
27.360        27
27.370        13
27.380        27
27.390        40
27.400        27
27.410        27
27.420        27
27.430        40
27.440        27
27.450        27
27.460        53
27.470        13
27.480        27
27.490        27
27.500        13
27.510        27
27.520        27
27.530        53
27.540        53
27.550        13
27.560        53
27.570        27
27.580        27
27.590        40
27.600        40
27.610        27
27.620        13
27.630        40
27.640        13
27.650         0
27.660        27
27.670        53
27.680         0
27.690        27
27.700        40
27.710        40
27.720        27
27.730        40
27.740        40
27.750        27
27.760        40
27.770         0
27.780         0
27.790        13
27.800        27
27.810        67
27.820        53
27.830        40
27.840        13
27.850        67
27.860        27
27.870        13
27.880        27
27.890        40
27.900        13
27.910        27
27.920         0
27.930        40
27.940        27
27.950         0
27.960        53
27.970         0
27.980        53
27.990        13
28.000         0
28.010        40
28.020        13
28.030        27
28.040        27
28.050         0
28.060        13
28.070        40
28.080        27
28.090        40
28.100         0
28.110        40
28.120        13
28.130        67
28.140        13
28.150         0
28.160         0
28.170        40
28.180        27
28.190        13
28.200        13
28.210        53
28.220        53
28.230        13
28.240         0
28.250        53
28.260         0
28.270        27
28.280        13
28.290        13
28.300         0
28.310         0
28.320        27
28.330        27
28.340         0
28.350        27
28.360         0
28.370        27
28.380        40
28.390        13
28.400        67
28.410        67
28.420        53
28.430        40
28.440        13
28.450        13
28.460         0
28.470        13
28.480        40
28.490        40
28.500        53
28.510        40
28.520        40
28.530        40
28.540        27
28.550        13
28.560        40
28.570        13
28.580        27
28.590        40
28.600        40
28.610        13
28.620        13
28.630         0
28.640        13
28.650         0
28.660         0
28.670        13
28.680         0
28.690        40
28.700        53
28.710         0
28.720         0
28.730        13
28.740         0
28.750        27
28.760        40
28.770        13
28.780        40
28.790        67
28.800        13
28.810        27
28.820        13
28.830        13
28.840         0
28.850        40
28.860         0
28.870        27
28.880        40
28.890        13
28.900         0
28.910        27
28.920        13
28.930        53
28.940        40
28.950        53
28.960        67
28.970        13
28.980        53
28.990        27
29.000         0
29.010        40
29.020        13
29.030        27
29.040        53
29.050        67
29.060        13
29.070        40
29.080        53
29.090        53
29.100        13
29.110        40
29.120         0
29.130         0
29.140        13
29.150        27
29.160         0
29.170        13
29.180        40
29.190        13
29.200        40
29.210        40
29.220         0
29.230        40
29.240        67
29.250         0
29.260        13
29.270        27
29.280        27
29.290        27
29.300        40
29.310        67
29.320        13
29.330        27
29.340        40
29.350        27
29.360        13
29.370        53
29.380        13
29.390         0
29.400        40
29.410        27
29.420         0
29.430        13
29.440        27
29.450         0
29.460        13
29.470        27
29.480        27
29.490        40
29.500        53
29.510        27
29.520        13
29.530        40
29.540        67
29.550        13
29.560        27
29.570        13
29.580        40
29.590        27
29.600        40
29.610         0
29.620         0
29.630        27
29.640        27
29.650        27
29.660        27
29.670        27
29.680        13
29.690        13
29.700        27
29.710        40
29.720        40
29.730        40
29.740         0
29.750        27
29.760         0
29.770        53
29.780        40
29.790        13
29.800        27
29.810        27
29.820        27
29.830        40
29.840        67
29.850        40
29.860        40
29.870        27
29.880        13
29.890        27
29.900        13
29.910         0
29.920        13
29.930        40
29.940        13
29.950        27
29.960        53
29.970        27
29.980        27
29.990        53
30.000        53
30.010        93
30.020        40
30.030        27
30.040        27
30.050        40
30.060         0
30.070        27
30.080        27
30.090        40
30.100         0
30.110        27
30.120        13
30.130        40
30.140        53
30.150        40
30.160        27
30.170        27
30.180        13
30.190        53
30.200        40
30.210        13
30.220        13
30.230         0
30.240        40
30.250        40
30.260        40
30.270        27
30.280        27
30.290        40
30.300        40
30.310        40
30.320        53
30.330        53
30.340        53
30.350         0
30.360         0
30.370        13
30.380        13
30.390        13
30.400        13
30.410        27
30.420        27
30.430        13
30.440         0
30.450        27
30.460        13
30.470         0
30.480         0
30.490         0
30.500         0
30.510        67
30.520        40
30.530        27
30.540        40
30.550        40
30.560        27
30.570        27
30.580        53
30.590        40
30.600        13
30.610        13
30.620        13
30.630        67
30.640        53
30.650        53
30.660        40
30.670        40
30.680        40
30.690        27
30.700         0
30.710        27
30.720        40
30.730        27
30.740        13
30.750         0
30.760        27
30.770        40
30.780        80
30.790        13
30.800        13
30.810         0
30.820        40
30.830         0
30.840        27
30.850        27
30.860         0
30.870        13
30.880        40
30.890        13
30.900        27
30.910        27
30.920        53
30.930        27
30.940         0
30.950        40
30.960        13
30.970        40
30.980        40
30.990         0
31.000        13
31.010        27
31.020        13
31.030         0
31.040        13
31.050        40
31.060        27
31.070        40
31.080         0
31.090        27
31.100        13
31.110        40
31.120        13
31.130        27
31.140        13
31.150        67
31.160        13
31.170        13
31.180        40
31.190        27
31.200        13
31.210        27
31.220        27
31.230        13
31.240        40
31.250        40
31.260        13
31.270        13
31.280         0
31.290        13
31.300         0
31.310        27
31.320        13
31.330        13
31.340         0
31.350        13
31.360        13
31.370        13
31.380        27
31.390        67
31.400        13
31.410        13
31.420        67
31.430        53
31.440        40
31.450        13
31.460        13
31.470        27
31.480        13
31.490        13
31.500        40
31.510        67
31.520        40
31.530        27
31.540        13
31.550        27
31.560         0
31.570         0
31.580        27
31.590        40
31.600        53
31.610         0
31.620        13
31.630        27
31.640        27
31.650        80
31.660        13
31.670        40
31.680        27
31.690        27
31.700        13
31.710        40
31.720        27
31.730        40
31.740        27
31.750        27
31.760        80
31.770        27
31.780        40
31.790        13
31.800        13
31.810        27
31.820        53
31.830        13
31.840        13
31.850        40
31.860        27
31.870        27
31.880        80
31.890        13
31.900        93
31.910        13
31.920        40
31.930        27
31.940        53
31.950        67
31.960        40
31.970       107
31.980        27
31.990        40
32.000        80
32.010        53
32.020        40
32.030       107
32.040        93
32.050        53
32.060       107
32.070        67
32.080        93
32.090        80
32.100        93
32.110        53
32.120       120
32.130       107
32.140        40
32.150       120
32.160        53
32.170        40
32.180        53
32.190       147
32.200        40
32.210        13
32.220        53
32.230        80
32.240       120
32.250        40
32.260        80
32.270        67
32.280        40
32.290        67
32.300        67
32.310        13
32.320       107
32.330         0
32.340        27
32.350        53
32.360        27
32.370        53
32.380        80
32.390        40
32.400        27
32.410        40
32.420        53
32.430        53
32.440        13
32.450         0
32.460        27
32.470        53
32.480         0
32.490        53
32.500        27
32.510        13
32.520        40
32.530         0
32.540        40
32.550        27
32.560        13
32.570         0
32.580        27
32.590        27
32.600        80
32.610        40
32.620        27
32.630        40
32.640        13
32.650        27
32.660        53
32.670        13
32.680         0
32.690        27
32.700        67
32.710        40
32.720        13
32.730        53
32.740        13
32.750        13
32.760        27
32.770        40
32.780        40
32.790         0
32.800        13
32.810         0
32.820        53
32.830        27
32.840         0
32.850        27
32.860         0
32.870         0
32.880        13
32.890        13
32.900        40
32.910        53
32.920        40
32.930         0
32.940        27
32.950        40
32.960        13
32.970        40
32.980         0
32.990        13
33.000        27
33.010        53
33.020        27
33.030        40
33.040        13
33.050        13
33.060         0
33.070         0
33.080        27
33.090        40
33.100         0
33.110         0
33.120        27
33.130        13
33.140        27
33.150        13
33.160        40
33.170         0
33.180        13
33.190        13
33.200         0
33.210        40
33.220         0
33.230        27
33.240        13
33.250        13
33.260        13
33.270        13
33.280        27
33.290        27
33.300        13
33.310        53
33.320        40
33.330         0
33.340        27
33.350        13
33.360        53
33.370        13
33.380        27
33.390         0
33.400        13
33.410         0
33.420        27
33.430        13
33.440        40
33.450        13
33.460         0
33.470         0
33.480        40
33.490         0
33.500        13
33.510         0
33.520        40
33.530        53
33.540        53
33.550        27
33.560        27
33.570        13
33.580        27
33.590        27
33.600         0
33.610         0
33.620        40
33.630        13
33.640         0
33.650        13
33.660        27
33.670        27
33.680        13
33.690         0
33.700         0
33.710        27
33.720        40
33.730         0
33.740        27
33.750        13
33.760        13
33.770         0
33.780        13
33.790         0
33.800        13
33.810        53
33.820         0
33.830        13
33.840         0
33.850        67
33.860        27
33.870        27
33.880        40
33.890        13
33.900        27
33.910         0
33.920        13
33.930        27
33.940        13
33.950        13
33.960        67
33.970        40
33.980         0
33.990        27
34.000        27
34.010         0
34.020        27
34.030        13
34.040        27
34.050        27
34.060         0
34.070        40
34.080        13
34.090        27
34.100         0
34.110         0
34.120        40
34.130        13
34.140        27
34.150        40
34.160        40
34.170        53
34.180        40
34.190        40
34.200        27
34.210        27
34.220        27
34.230        13
34.240        27
34.250        13
34.260        13
34.270        80
34.280        53
34.290        27
34.300        67
34.310        40
34.320        40
34.330        27
34.340        53
34.350        13
34.360        93
34.370        40
34.380        67
34.390        80
34.400        40
34.410        40
34.420        53
34.430        67
34.440        53
34.450        40
34.460        93
34.470        40
34.480       107
34.490        80
34.500        13
34.510        40
34.520        53
34.530        27
34.540        40
34.550        53
34.560        40
34.570        80
34.580        67
34.590        13
34.600        80
34.610        40
34.620        27
34.630        53
34.640        13
34.650        67
34.660        40
34.670        27
34.680        27
34.690        27
34.700        40
34.710         0
34.720        27
34.730        13
34.740        27
34.750        27
34.760        40
34.770        27
34.780        27
34.790        27
34.800        27
34.810        27
34.820        40
34.830        13
34.840         0
34.850        13
34.860        27
34.870        67
34.880         0
34.890        13
34.900        13
34.910        53
34.920        27
34.930         0
34.940        40
34.950        27
34.960         0
34.970         0
34.980        53
34.990        13
35.000        27
35.010        40
35.020        93
35.030        27
35.040        40
35.050        67
35.060        40
35.070        27
35.080        53
35.090        13
35.100        40
35.110        40
35.120        40
35.130        40
35.140        80
35.150       187
35.160       107
35.170       160
35.180       120
35.190        67
35.200        93
35.210       107
35.220        80
35.230        40
35.240        53
35.250       107
35.260       107
35.270        53
35.280        67
35.290        27
35.300        53
35.310        53
35.320        53
35.330        40
35.340        13
35.350        13
35.360        13
35.370        40
35.380        67
35.390        13
35.400        13
35.410        27
35.420        53
35.430        40
35.440        40
35.450        13
35.460        27
35.470        13
35.480        27
35.490        27
35.500        13
35.510        40
35.520        40
35.530        13
35.540         0
35.550        27
35.560        53
35.570        53
35.580        13
35.590         0
35.600        13
35.610        53
35.620        67
35.630        13
35.640        13
35.650        13
35.660        53
35.670        27
35.680        40
35.690        53
35.700        27
35.710        53
35.720        13
35.730        27
35.740        13
35.750        40
35.760        13
35.770        27
35.780        53
35.790        27
35.800        27
35.810        40
35.820        27
35.830        27
35.840        13
35.850        27
35.860        40
35.870        53
35.880        13
35.890        13
35.900        27
35.910        40
35.920        40
35.930        27
35.940        40
35.950        27
35.960        13
35.970        27
35.980        13
35.990        53
36.000        27
36.010        13
36.020         0
36.030        67
36.040         0
36.050        67
36.060        27
36.070        13
36.080        40
36.090        27
36.100         0
36.110        13
36.120        27
36.130        40
36.140        13
36.150        13
36.160        13
36.170        27
36.180        53
36.190        40
36.200        27
36.210        27
36.220        67
36.230        40
36.240        13
36.250        13
36.260        13
36.270        40
36.280        13
36.290         0
36.300        13
36.310        13
36.320        27
36.330        13
36.340         0
36.350        27
36.360        13
36.370        27
36.380        53
36.390        27
36.400        67
36.410        40
36.420        27
36.430        13
36.440        40
36.450        13
36.460         0
36.470        27
36.480        40
36.490        27
36.500        67
36.510        40
36.520        13
36.530        40
36.540         0
36.550        27
36.560        40
36.570        80
36.580         0
36.590        13
36.600        27
36.610        40
36.620        40
36.630        40
36.640        67
36.650        67
36.660        13
36.670        40
36.680        27
36.690        53
36.700         0
36.710        27
36.720        27
36.730        27
36.740        13
36.750        40
36.760        40
36.770        53
36.780        13
36.790        67
36.800        40
36.810        27
36.820        13
36.830        67
36.840        93
36.850        40
36.860        67
36.870        67
36.880        67
36.890        53
36.900        27
36.910        27
36.920        40
36.930        53
36.940        93
36.950        40
36.960        40
36.970        40
36.980        40
36.990        40
37.000        93
37.010       107
37.020        67
37.030        80
37.040        27
37.050        13
37.060        67
37.070        53
37.080        53
37.090        67
37.100        67
37.110        53
37.120        80
37.130        93
37.140        53
37.150        93
37.160        53
37.170       107
37.180        53
37.190        93
37.200        67
37.210        40
37.220        53
37.230        53
37.240        53
37.250       107
37.260        80
37.270       107
37.280        67
37.290        27
37.300       107
37.310       213
37.320        80
37.330        67
37.340       120
37.350       120
37.360       107
37.370        80
37.380       120
37.390        53
37.400        93
37.410        53
37.420        80
37.430        80
37.440        80
37.450        67
37.460        80
37.470       107
37.480       107
37.490       120
37.500        93
37.510        13
37.520        80
37.530       147
37.540        93
37.550        40
37.560       133
37.570       133
37.580        80
37.590        80
37.600        67
37.610        80
37.620        80
37.630       107
37.640       147
37.650        93
37.660       160
37.670       133
37.680       107
37.690       147
37.700        80
37.710       147
37.720       200
37.730       147
37.740        67
37.750       120
37.760        67
37.770       187
37.780       200
37.790       133
37.800       213
37.810       107
37.820       213
37.830       200
37.840       120
37.850       187
37.860       253
37.870       253
37.880       200
37.890       267
37.900       213
37.910       213
37.920       213
37.930       480
37.940       493
37.950       506
37.960       533
37.970       307
37.980       506
37.990       373
38.000       693
38.010       640
38.020       893
38.030       680
38.040       800
38.050       826
38.060      1426
38.070      1506
38.080      1546
38.090      1653
38.100      1973
38.110      2132
38.120      2053
38.130      2706
38.140      3212
38.150      3505
38.160      4065
38.170      4212
38.180      5078
38.190      5544
38.200      5944
38.210      6931
38.220      7117
38.230      7037
38.240      7837
38.250      8063
38.260      8730
38.270      9463
38.280      8570
38.290      8597
38.300      8850
38.310      8623
38.320      7917
38.330      8583
38.340      8103
38.350      6984
38.360      6371
38.370      5998
38.380      6158
38.390      5544
38.400      5451
38.410      4625
38.420      4278
38.430      4065
38.440      3359
38.450      3052
38.460      2759
38.470      2666
38.480      2159
38.490      1626
38.500      1653
38.510      1453
38.520      1200
38.530       973
38.540       826
38.550       893
38.560       626
38.570       653
38.580       680
38.590       573
38.600       400
38.610       533
38.620       333
38.630       347
38.640       453
38.650       280
38.660       227
38.670       240
38.680       267
38.690       227
38.700       253
38.710       320
38.720       133
38.730       267
38.740       240
38.750       200
38.760       227
38.770       147
38.780       200
38.790       147
38.800       173
38.810        80
38.820       200
38.830       147
38.840       133
38.850       173
38.860       160
38.870       107
38.880       160
38.890       133
38.900        93
38.910       133
38.920        93
38.930       120
38.940       187
38.950        80
38.960       147
38.970       147
38.980       107
38.990        93
39.000        93
39.010       107
39.020        93
39.030        93
39.040       173
39.050        67
39.060       120
39.070       120
39.080       173
39.090        80
39.100       107
39.110       133
39.120       120
39.130        53
39.140       120
39.150       147
39.160       107
39.170       147
39.180        80
39.190       187
39.200       107
39.210       187
39.220       187
39.230       120
39.240       173
39.250       107
39.260       173
39.270        93
39.280       240
39.290       133
39.300       173
39.310       173
39.320       280
39.330       147
39.340       200
39.350       213
39.360       200
39.370       347
39.380       506
39.390       387
39.400       586
39.410       506
39.420       387
39.430       373
39.440       360
39.450       600
39.460       746
39.470       866
39.480      1120
39.490       786
39.500      1186
39.510      1266
39.520      1240
39.530      1413
39.540      1506
39.550      1693
39.560      1733
39.570      1693
39.580      1653
39.590      2026
39.600      1799
39.610      1679
39.620      2079
39.630      1999
39.640      2146
39.650      2239
39.660      2346
39.670      1733
39.680      1786
39.690      2426
39.700      1986
39.710      1879
39.720      1879
39.730      1573
39.740      1586
39.750      1693
39.760      1426
39.770      1506
39.780      1200
39.790      1200
39.800       946
39.810       786
39.820       826
39.830       720
39.840       760
39.850       640
39.860       466
39.870       560
39.880       560
39.890       480
39.900       546
39.910       227
39.920       426
39.930       360
39.940       347
39.950       227
39.960       200
39.970       227
39.980       147
39.990       200
40.000       280
40.010       267
40.020       173
40.030       227
40.040       200
40.050       107
40.060       187
40.070       120
40.080        67
40.090       120
40.100        93
40.110       120
40.120        53
40.130       120
40.140       187
40.150       147
40.160        80
40.170       120
40.180       120
40.190       160
40.200       133
40.210        93
40.220       107
40.230       173
40.240        80
40.250        67
40.260       107
40.270       147
40.280        93
40.290        93
40.300        80
40.310        80
40.320       120
40.330        67
40.340        93
40.350        93
40.360        67
40.370        93
40.380        80
40.390        40
40.400        53
40.410        80
40.420       107
40.430       107
40.440        67
40.450        27
40.460       133
40.470        67
40.480        53
40.490       107
40.500        80
40.510       107
40.520        53
40.530       107
40.540        80
40.550        27
40.560        53
40.570        67
40.580         0
40.590        67
40.600        67
40.610       107
40.620        93
40.630        27
40.640        53
40.650        93
40.660        27
40.670       120
40.680        67
40.690       133
40.700       107
40.710        93
40.720        13
40.730        93
40.740       107
40.750        53
40.760       107
40.770        93
40.780         0
40.790        53
40.800        93
40.810        80
40.820        40
40.830        67
40.840        27
40.850        40
40.860        53
40.870        67
40.880        13
40.890        40
40.900        40
40.910        53
40.920       120
40.930        27
40.940        67
40.950        40
40.960        67
40.970       120
40.980        40
40.990        80
41.000        40
41.010        40
41.020        13
41.030        53
41.040        53
41.050        40
41.060        53
41.070        80
41.080        67
41.090        80
41.100        67
41.110        53
41.120        40
41.130       120
41.140        27
41.150         0
41.160        27
41.170        27
41.180        53
41.190        67
41.200        40
41.210        53
41.220       107
41.230        13
41.240        80
41.250        53
41.260        27
41.270        13
41.280        53
41.290        40
41.300        80
41.310        67
41.320        27
41.330        27
41.340        53
41.350        40
41.360        27
41.370        40
41.380        80
41.390        53
41.400        13
41.410        40
41.420        80
41.430        67
41.440       133
41.450        67
41.460        80
41.470        40
41.480        80
41.490        67
41.500        40
41.510        53
41.520        80
41.530        80
41.540       120
41.550        67
41.560        53
41.570        53
41.580        80
41.590        27
41.600        27
41.610        93
41.620        53
41.630       133
41.640        80
41.650        93
41.660       173
41.670       120
41.680       133
41.690       187
41.700       133
41.710       160
41.720       253
41.730       120
41.740       173
41.750       120
41.760        53
41.770        53
41.780       160
41.790       147
41.800       120
41.810        93
41.820       120
41.830       107
41.840        80
41.850        53
41.860        80
41.870        67
41.880        80
41.890        67
41.900        27
41.910        40
41.920        80
41.930        40
41.940        53
41.950        40
41.960        53
41.970       120
41.980        13
41.990        13
42.000        53
42.010        40
42.020        80
42.030        13
42.040        13
42.050        80
42.060        40
42.070        40
42.080        40
42.090        40
42.100        40
42.110        27
42.120        67
42.130       107
42.140        67
42.150        40
42.160        93
42.170        40
42.180        13
42.190        53
42.200        13
42.210        53
42.220        67
42.230        53
42.240        53
42.250        67
42.260        27
42.270        27
42.280        13
42.290        27
42.300        27
42.310        53
42.320        53
42.330        40
42.340        27
42.350        40
42.360         0
42.370         0
42.380        27
42.390        40
42.400        40
42.410        27
42.420        40
42.430        80
42.440         0
42.450        80
42.460        93
42.470        40
42.480        13
42.490        67
42.500        40
42.510        80
42.520        53
42.530        40
42.540        40
42.550        53
42.560        67
42.570        67
42.580        80
42.590        40
42.600        27
42.610       107
42.620        67
42.630        40
42.640        40
42.650        27
42.660        27
42.670        40
42.680        93
42.690        27
42.700        53
42.710        53
42.720        13
42.730        53
42.740        53
42.750        53
42.760        53
42.770        67
42.780        27
42.790        53
42.800        80
42.810        67
42.820        53
42.830        67
42.840        27
42.850        80
42.860        53
42.870        53
42.880        27
42.890        53
42.900        27
42.910        67
42.920        40
42.930        53
42.940        93
42.950        53
42.960        13
42.970        53
42.980        67
42.990        53
43.000        13
43.010        80
43.020        40
43.030        40
43.040        13
43.050        80
43.060        40
43.070        13
43.080        40
43.090        27
43.100        13
43.110        93
43.120        40
43.130        40
43.140        13
43.150        40
43.160        80
43.170        27
43.180        53
43.190        27
43.200        53
43.210        40
43.220        13
43.230        40
43.240        53
43.250        13
43.260        27
43.270         0
43.280        40
43.290        40
43.300        27
43.310         0
43.320        27
43.330        53
43.340        40
43.350        53
43.360        80
43.370       107
43.380       120
43.390        80
43.400        67
43.410        93
43.420        67
43.430       107
43.440       107
43.450        67
43.460        13
43.470        13
43.480        27
43.490        67
43.500        80
43.510        40
43.520        67
43.530        80
43.540        40
43.550        80
43.560        80
43.570        27
43.580        53
43.590        13
43.600        80
43.610        27
43.620        67
43.630        53
43.640        67
43.650         0
43.660        67
43.670        67
43.680         0
43.690        53
43.700        53
43.710        93
43.720        53
43.730        27
43.740        93
43.750        27
43.760        53
43.770        27
43.780        80
43.790        80
43.800        67
43.810        27
43.820        80
43.830        40
43.840        27
43.850        13
43.860        67
43.870       107
43.880        40
43.890        67
43.900        53
43.910        13
43.920        13
43.930        40
43.940        27
43.950        27
43.960        13
43.970        80
43.980        53
43.990        53
44.000        27
44.010        67
44.020        53
44.030        13
44.040        53
44.050        93
44.060        40
44.070        13
44.080        27
44.090        13
44.100        53
44.110        13
44.120        40
44.130        27
44.140        27
44.150        67
44.160        67
44.170        40
44.180         0
44.190        13
44.200        27
44.210         0
44.220        80
44.230        13
44.240        67
44.250        27
44.260        67
44.270        67
44.280        67
44.290        27
44.300        27
44.310         0
44.320        53
44.330        53
44.340        40
44.350        40
44.360        40
44.370        67
44.380        13
44.390        40
44.400        40
44.410        53
44.420        53
44.430        27
44.440        53
44.450         0
44.460        27
44.470         0
44.480        40
44.490        53
44.500        27
44.510        53
44.520        40
44.530        53
44.540        27
44.550        27
44.560        13
44.570        27
44.580        27
44.590        53
44.600        67
44.610        27
44.620        27
44.630        40
44.640        27
44.650        53
44.660        67
44.670        27
44.680        67
44.690        40
44.700        67
44.710        27
44.720        27
44.730        27
44.740         0
44.750        27
44.760        13
44.770        67
44.780        67
44.790         0
44.800        40
44.810        27
44.820        27
44.830         0
44.840        13
44.850        13
44.860        67
44.870        40
44.880        27
44.890        27
44.900        13
44.910        67
44.920        27
44.930       107
44.940        13
44.950        27
44.960        27
44.970         0
44.980        53
44.990        13
45.000        40
45.010        27
45.020        27
45.030        27
45.040        53
45.050        80
45.060        13
45.070        27
45.080        27
45.090        13
45.100        13
45.110        80
45.120        13
45.130        40
45.140        40
45.150        40
45.160        27
45.170        40
45.180        27
45.190        13
45.200        40
45.210        13
45.220        27
45.230        13
45.240        53
45.250        53
45.260        13
45.270        27
45.280        40
45.290        40
45.300        80
45.310        27
45.320        53
45.330         0
45.340         0
45.350         0
45.360        40
45.370        53
45.380        67
45.390        27
45.400        40
45.410        40
45.420         0
45.430        27
45.440        53
45.450        13
45.460        40
45.470        40
45.480        93
45.490        40
45.500        53
45.510       120
45.520        13
45.530        13
45.540        13
45.550        40
45.560        40
45.570        53
45.580        13
45.590        53
45.600        40
45.610        27
45.620        67
45.630        53
45.640        40
45.650        27
45.660        40
45.670        27
45.680        13
45.690        80
45.700        53
45.710        53
45.720        13
45.730        27
45.740        27
45.750        80
45.760        40
45.770        40
45.780       147
45.790        93
45.800        40
45.810        93
45.820        53
45.830        93
45.840       133
45.850        27
45.860        67
45.870        67
45.880        93
45.890        93
45.900        40
45.910        93
45.920        53
45.930        80
45.940         0
45.950        93
45.960        80
45.970        53
45.980       107
45.990       120
46.000        80
46.010       133
46.020       120
46.030       133
46.040        67
46.050       120
46.060        53
46.070       120
46.080       147
46.090        93
46.100       107
46.110       120
46.120        80
46.130       147
46.140       120
46.150       120
46.160       107
46.170       147
46.180        80
46.190       107
46.200        67
46.210       120
46.220       107
46.230       120
46.240       120
46.250       120
46.260       120
46.270        40
46.280        80
46.290       133
46.300        67
46.310        93
46.320       107
46.330        67
46.340        13
46.350       107
46.360        80
46.370       133
46.380        80
46.390        80
46.400        53
46.410        67
46.420        40
46.430       120
46.440        53
46.450        13
46.460        13
46.470        53
46.480        53
46.490        27
46.500        93
46.510        53
46.520        27
46.530        40
46.540        40
46.550        53
46.560        27
46.570        40
46.580        13
46.590        40
46.600        53
46.610        27
46.620        13
46.630        40
46.640        27
46.650        13
46.660        13
46.670        53
46.680        27
46.690        40
46.700        13
46.710        13
46.720        40
46.730        27
46.740        27
46.750        13
46.760        40
46.770        27
46.780        27
46.790        40
46.800        13
46.810        40
46.820         0
46.830        13
46.840        27
46.850        13
46.860        40
46.870         0
46.880        13
46.890        40
46.900        13
46.910        40
46.920        53
46.930        53
46.940        40
46.950        13
46.960        27
46.970        27
46.980        40
46.990        40
47.000        27
47.010        27
47.020        40
47.030        53
47.040        13
47.050        80
47.060        13
47.070        93
47.080        13
47.090        53
47.100        13
47.110        27
47.120        67
47.130        13
47.140        67
47.150        13
47.160        27
47.170        27
47.180        27
47.190        13
47.200        27
47.210         0
47.220        13
47.230        13
47.240         0
47.250        53
47.260        27
47.270        13
47.280        13
47.290        13
47.300        53
47.310         0
47.320        13
47.330        13
47.340        13
47.350        27
47.360        40
47.370         0
47.380        27
47.390        27
47.400        13
47.410         0
47.420        13
47.430        13
47.440        13
47.450        40
47.460        13
47.470        53
47.480        27
47.490        27
47.500        13
47.510        13
47.520        53
47.530        53
47.540         0
47.550         0
47.560        13
47.570         0
47.580        27
47.590        27
47.600         0
47.610        13
47.620        27
47.630         0
47.640        27
47.650        27
47.660        13
47.670        53
47.680         0
47.690        13
47.700        80
47.710        27
47.720        27
47.730        13
47.740        67
47.750        40
47.760         0
47.770        27
47.780        27
47.790        27
47.800        53
47.810        27
47.820        13
47.830        13
47.840        27
47.850         0
47.860        53
47.870        53
47.880        53
47.890        40
47.900        40
47.910        13
47.920         0
47.930        27
47.940        40
47.950        40
47.960         0
47.970        53
47.980        27
47.990        27
48.000        27
48.010        53
48.020        13
48.030        13
48.040        13
48.050        27
48.060        13
48.070        27
48.080        27
48.090        40
48.100        67
48.110         0
48.120         0
48.130        67
48.140        40
48.150        13
48.160        13
48.170        53
48.180        27
48.190         0
48.200        13
48.210        27
48.220         0
48.230        27
48.240        27
48.250        40
48.260         0
48.270        67
48.280         0
48.290        13
48.300        40
48.310        13
48.320        53
48.330         0
48.340        27
48.350        53
48.360        40
48.370        13
48.380        40
48.390        27
48.400        13
48.410        27
48.420        13
48.430         0
48.440        13
48.450         0
48.460        27
48.470        40
48.480        40
48.490        27
48.500        27
48.510         0
48.520        13
48.530         0
48.540         0
48.550        27
48.560        40
48.570        27
48.580        13
48.590         0
48.600         0
48.610         0
48.620        80
48.630        40
48.640        13
48.650        13
48.660         0
48.670        53
48.680        27
48.690        40
48.700        27
48.710        13
48.720        93
48.730        13
48.740        27
48.750        53
48.760         0
48.770         0
48.780        53
48.790         0
48.800        40
48.810         0
48.820         0
48.830        13
48.840        40
48.850        13
48.860         0
48.870        13
48.880        13
48.890        13
48.900        27
48.910        40
48.920         0
48.930        67
48.940         0
48.950        53
48.960        13
48.970        27
48.980         0
48.990        40
49.000        80
49.010        27
49.020        13
49.030         0
49.040        40
49.050        27
49.060         0
49.070        13
49.080         0
49.090        13
49.100        53
49.110        53
49.120        40
49.130        27
49.140        27
49.150        13
49.160         0
49.170        40
49.180        27
49.190        53
49.200        40
49.210        27
49.220        40
49.230        13
49.240        53
49.250        27
49.260        13
49.270        13
49.280        40
49.290        13
49.300         0
49.310        67
49.320         0
49.330        27
49.340        27
49.350         0
49.360        40
49.370        40
49.380         0
49.390        13
49.400        27
49.410        80
49.420         0
49.430        27
49.440        13
49.450        40
49.460        13
49.470        27
49.480         0
49.490        40
49.500        13
49.510        40
49.520        27
49.530         0
49.540        27
49.550        40
49.560        13
49.570         0
49.580        13
49.590         0
49.600        13
49.610        13
49.620        27
49.630        27
49.640        27
49.650        27
49.660        27
49.670        40
49.680        13
49.690         0
49.700        27
49.710        13
49.720        13
49.730        27
49.740        27
49.750        27
49.760        13
49.770         0
49.780        13
49.790        80
49.800        27
49.810        13
49.820         0
49.830        27
49.840        40
49.850        53
49.860        53
49.870        27
49.880        13
49.890        13
49.900        27
49.910        13
49.920        13
49.930         0
49.940        27
49.950        13
49.960        13
49.970        40
49.980        13
49.990        40
50.000         0
50.010        13
50.020        13
50.030        27
50.040        27
50.050         0
50.060        53
50.070        13
50.080        40
50.090        27
50.100        13
50.110         0
50.120        27
50.130        27
50.140         0
50.150        13
50.160        27
50.170        27
50.180        27
50.190        27
50.200        27
50.210        13
50.220        13
50.230        13
50.240        27
50.250        13
50.260        13
50.270        13
50.280         0
50.290        40
50.300        13
50.310        27
50.320        13
50.330        40
50.340        27
50.350         0
50.360        13
50.370         0
50.380        40
50.390        13
50.400         0
50.410        27
50.420        13
50.430        13
50.440        13
50.450         0
50.460        40
50.470        40
50.480         0
50.490         0
50.500        40
50.510         0
50.520         0
50.530        40
50.540        40
50.550        13
50.560        27
50.570        27
50.580        13
50.590         0
50.600        27
50.610        13
50.620        53
50.630        40
50.640        13
50.650         0
50.660        13
50.670        53
50.680        27
50.690        40
50.700        40
50.710        13
50.720        13
50.730         0
50.740        13
50.750        27
50.760        13
50.770         0
50.780        40
50.790        27
50.800         0
50.810        13
50.820        27
50.830         0
50.840         0
50.850        27
50.860         0
50.870         0
50.880         0
50.890        13
50.900        13
50.910         0
50.920        13
50.930         0
50.940        27
50.950        53
50.960        40
50.970        27
50.980        40
50.990        13
51.000        13
51.010        67
51.020        13
51.030        27
51.040        13
51.050        27
51.060        40
51.070        40
51.080        13
51.090        13
51.100         0
51.110        13
51.120         0
51.130        13
51.140        13
51.150        27
51.160        13
51.170        53
51.180        40
51.190        27
51.200        13
51.210         0
51.220        13
51.230        27
51.240        27
51.250        27
51.260         0
51.270        40
51.280        27
51.290        27
51.300        53
51.310        13
51.320        27
51.330        67
51.340         0
51.350        13
51.360        40
51.370        13
51.380        13
51.390        40
51.400        27
51.410        27
51.420        27
51.430         0
51.440        53
51.450        13
51.460         0
51.470        13
51.480        40
51.490        27
51.500        13
51.510        27
51.520         0
51.530        13
51.540        27
51.550         0
51.560        13
51.570        27
51.580        53
51.590        27
51.600         0
51.610        40
51.620        53
51.630        13
51.640        13
51.650         0
51.660         0
51.670         0
51.680        13
51.690        27
51.700        13
51.710         0
51.720        40
51.730        27
51.740        40
51.750        53
51.760        40
51.770        13
51.780        13
51.790        27
51.800        13
51.810         0
51.820         0
51.830        40
51.840         0
51.850         0
51.860         0
51.870        80
51.880        13
51.890        13
51.900        27
51.910        27
51.920         0
51.930        40
51.940         0
51.950        53
51.960        40
51.970        53
51.980        27
51.990        27
52.000        13
52.010        13
52.020         0
52.030        13
52.040         0
52.050        27
52.060        13
52.070        67
52.080        27
52.090        13
52.100        27
52.110        40
52.120        13
52.130         0
52.140        13
52.150         0
52.160        13
52.170        13
52.180        27
52.190        13
52.200         0
52.210        27
52.220        40
52.230        13
52.240        27
52.250        13
52.260        40
52.270        40
52.280         0
52.290        13
52.300         0
52.310        27
52.320        53
52.330        27
52.340        40
52.350        40
52.360        40
52.370        53
52.380        40
52.390        40
52.400        13
52.410        13
52.420        40
52.430        13
52.440         0
52.450        27
52.460        13
52.470        27
52.480        13
52.490        13
52.500        13
52.510        27
52.520         0
52.530        13
52.540        53
52.550        53
52.560       107
52.570        80
52.580       133
52.590        80
52.600       160
52.610       160
52.620       147
52.630       107
52.640       147
52.650        53
52.660        40
52.670        40
52.680        40
52.690        27
52.700        67
52.710        67
52.720        13
52.730        40
52.740        80
52.750        40
52.760        53
52.770        40
52.780        40
52.790        93
52.800        27
52.810        40
52.820        40
52.830         0
52.840        27
52.850         0
52.860        40
52.870        27
52.880        13
52.890        13
52.900        13
52.910        13
52.920        13
52.930        27
52.940        27
52.950        13
52.960        53
52.970        27
52.980        27
52.990        40
53.000        13
53.010        27
53.020         0
53.030        13
53.040        13
53.050        13
53.060         0
53.070         0
53.080         0
53.090        40
53.100        27
53.110         0
53.120         0
53.130        27
53.140        13
53.150        13
53.160        13
53.170         0
53.180         0
53.190        13
53.200        13
53.210         0
53.220        27
53.230        40
53.240        13
53.250        13
53.260        27
53.270        13
53.280        13
53.290        13
53.300        40
53.310        13
53.320         0
53.330         0
53.340        53
53.350        13
53.360         0
53.370        13
53.380        27
53.390        27
53.400        27
53.410        53
53.420        13
53.430        40
53.440        13
53.450        27
53.460        13
53.470         0
53.480         0
53.490        13
53.500        13
53.510        27
53.520        13
53.530        13
53.540         0
53.550        13
53.560         0
53.570        27
53.580        40
53.590        13
53.600        27
53.610        67
53.620        40
53.630        27
53.640         0
53.650        40
53.660         0
53.670        13
53.680        13
53.690         0
53.700         0
53.710        27
53.720         0
53.730        27
53.740        13
53.750        40
53.760        40
53.770        13
53.780        13
53.790         0
53.800        27
53.810        13
53.820        27
53.830        13
53.840        13
53.850         0
53.860         0
53.870        67
53.880        27
53.890        13
53.900         0
53.910        13
53.920         0
53.930        13
53.940        13
53.950         0
53.960         0
53.970        13
53.980        13
53.990        13
54.000        13
54.010        40
54.020        27
54.030        13
54.040        27
54.050        27
54.060        13
54.070         0
54.080        13
54.090        40
54.100         0
54.110         0
54.120        13
54.130        13
54.140         0
54.150        13
54.160        13
54.170        13
54.180         0
54.190        27
54.200        27
54.210        40
54.220        53
54.230         0
54.240         0
54.250        27
54.260         0
54.270        13
54.280        27
54.290        13
54.300        13
54.310        13
54.320        27
54.330        13
54.340        13
54.350         0
54.360        13
54.370        27
54.380        13
54.390        13
54.400        13
54.410         0
54.420        13
54.430        27
54.440         0
54.450        13
54.460         0
54.470        13
54.480        27
54.490        27
54.500        40
54.510        40
54.520        27
54.530        13
54.540        13
54.550        27
54.560         0
54.570         0
54.580        13
54.590         0
54.600        27
54.610        13
54.620        13
54.630        27
54.640        27
54.650        13
54.660        13
54.670        27
54.680        13
54.690        13
54.700        53
54.710        13
54.720         0
54.730        13
54.740        13
54.750        40
54.760        13
54.770         0
54.780         0
54.790        40
54.800         0
54.810        27
54.820        13
54.830         0
54.840         0
54.850        13
54.860        27
54.870        27
54.880        27
54.890        13
54.900        27
54.910        27
54.920        13
54.930        13
54.940        40
54.950        53
54.960        27
54.970        27
54.980        13
54.990        13
55.000        13
55.010         0
55.020        40
55.030         0
55.040        27
55.050        27
55.060         0
55.070         0
55.080        13
55.090        27
55.100         0
55.110         0
55.120        40
55.130        27
55.140         0
55.150        27
55.160        27
55.170         0
55.180        67
55.190        13
55.200        13
55.210         0
55.220        13
55.230        13
55.240        13
55.250        13
55.260        53
55.270        27
55.280        13
55.290        13
55.300         0
55.310        40
55.320         0
55.330        40
55.340         0
55.350        27
55.360         0
55.370        40
55.380        13
55.390        40
55.400        13
55.410        13
55.420        27
55.430        27
55.440        13
55.450        53
55.460        13
55.470        13
55.480        53
55.490        27
55.500        13
55.510         0
55.520         0
55.530        27
55.540         0
55.550        13
55.560         0
55.570         0
55.580        27
55.590        13
55.600         0
55.610        27
55.620         0
55.630        13
55.640        13
55.650         0
55.660        40
55.670        27
55.680        13
55.690        27
55.700         0
55.710        27
55.720        13
55.730        13
55.740         0
55.750         0
55.760        40
55.770        13
55.780        13
55.790        13
55.800        13
55.810        13
55.820         0
55.830         0
55.840        13
55.850        13
55.860        27
55.870        13
55.880         0
55.890        13
55.900         0
55.910        40
55.920        13
55.930        27
55.940        13
55.950        13
55.960        53
55.970        53
55.980        53
55.990         0
56.000        13
56.010        27
56.020        13
56.030         0
56.040         0
56.050         0
56.060        27
56.070        13
56.080         0
56.090        27
56.100         0
56.110        27
56.120        27
56.130        27
56.140        13
56.150         0
56.160        40
56.170        27
56.180         0
56.190        13
56.200        13
56.210         0
56.220         0
56.230         0
56.240        40
56.250         0
56.260        40
56.270         0
56.280        13
56.290        13
56.300         0
56.310        13
56.320        27
56.330         0
56.340         0
56.350        53
56.360        27
56.370        27
56.380        27
56.390        13
56.400        13
56.410        27
56.420        27
56.430        13
56.440        53
56.450        27
56.460        67
56.470         0
56.480         0
56.490        13
56.500        27
56.510         0
56.520        27
56.530        13
56.540        40
56.550        13
56.560        27
56.570        27
56.580        27
56.590        13
56.600        13
56.610        13
56.620         0
56.630         0
56.640        27
56.650        13
56.660        13
56.670        13
56.680         0
56.690        13
56.700        27
56.710        27
56.720        13
56.730        13
56.740        40
56.750        13
56.760        13
56.770         0
56.780        13
56.790        13
56.800        13
56.810        40
56.820        13
56.830        13
56.840        53
56.850        13
56.860        13
56.870        27
56.880        13
56.890        27
56.900         0
56.910         0
56.920        13
56.930        13
56.940         0
56.950        27
56.960        53
56.970        53
56.980        40
56.990         0
57.000        40
57.010        27
57.020        27
57.030        40
57.040        40
57.050        67
57.060        27
57.070        40
57.080        27
57.090         0
57.100        80
57.110        27
57.120         0
57.130        53
57.140        80
57.150        53
57.160        13
57.170        27
57.180        27
57.190        13
57.200        40
57.210        40
57.220        27
57.230        67
57.240        40
57.250        67
57.260       107
57.270        67
57.280        53
57.290        67
57.300        67
57.310        67
57.320        40
57.330        67
57.340       107
57.350        53
57.360        53
57.370        53
57.380        67
57.390        27
57.400        27
57.410       107
57.420       133
57.430        40
57.440       107
57.450        53
57.460       120
57.470       107
57.480        80
57.490       133
57.500       120
57.510       213
57.520       160
57.530        93
57.540       147
57.550       253
57.560       160
57.570       147
57.580       147
57.590        67
57.600       133
57.610        93
57.620        67
57.630       107
57.640        40
57.650        53
57.660       133
57.670       107
57.680        40
57.690        67
57.700       187
57.710       107
57.720       120
57.730        40
57.740        80
57.750        40
57.760        40
57.770        53
57.780        27
57.790        53
57.800        67
57.810        40
57.820        40
57.830        27
57.840         0
57.850        40
57.860        13
57.870        27
57.880        13
57.890        67
57.900        13
57.910        27
57.920        13
57.930        13
57.940        40
57.950        13
57.960        40
57.970        13
57.980         0
57.990         0
58.000        27
58.010        27
58.020        13
58.030        13
58.040        53
58.050        13
58.060         0
58.070        40
58.080        27
58.090         0
58.100        53
58.110        13
58.120        13
58.130        13
58.140         0
58.150        27
58.160         0
58.170        13
58.180         0
58.190        53
58.200        27
58.210        13
58.220        13
58.230        13
58.240        27
58.250         0
58.260        13
58.270         0
58.280         0
58.290        13
58.300        40
58.310        13
58.320         0
58.330        13
58.340        13
58.350        27
58.360         0
58.370        13
58.380        27
58.390         0
58.400        13
58.410        27
58.420         0
58.430        27
58.440        13
58.450        13
58.460         0
58.470        13
58.480         0
58.490         0
58.500         0
58.510        13
58.520         0
58.530        13
58.540        40
58.550        40
58.560        13
58.570        27
58.580        27
58.590        27
58.600         0
58.610        13
58.620        40
58.630         0
58.640         0
58.650        27
58.660        13
58.670        27
58.680        13
58.690        27
58.700        13
58.710        40
58.720        27
58.730        13
58.740        13
58.750        27
58.760        13
58.770        27
58.780         0
58.790        27
58.800         0
58.810        27
58.820        13
58.830        13
58.840         0
58.850         0
58.860         0
58.870         0
58.880        13
58.890         0
58.900        27
58.910        40
58.920        13
58.930        27
58.940        13
58.950        13
58.960        27
58.970        13
58.980         0
58.990        13
59.000        40
59.010        27
59.020        27
59.030        13
59.040        27
59.050         0
59.060        13
59.070        13
59.080        13
59.090        27
59.100        13
59.110        13
59.120         0
59.130        13
59.140        13
59.150        27
59.160        40
59.170        13
59.180         0
59.190        40
59.200        13
59.210        13
59.220         0
59.230        13
59.240        13
59.250         0
59.260         0
59.270        13
59.280        13
59.290        40
59.300        13
59.310        27
59.320        27
59.330         0
59.340         0
59.350         0
59.360        13
59.370        13
59.380        40
59.390        27
59.400        40
59.410        13
59.420        27
59.430         0
59.440        13
59.450         0
59.460        27
59.470        13
59.480        27
59.490        40
59.500        40
59.510        13
59.520        13
59.530         0
59.540        27
59.550        13
59.560        13
59.570        13
59.580         0
59.590        13
59.600        13
59.610        13
59.620         0
59.630         0
59.640         0
59.650        27
59.660        27
59.670        13
59.680        53
59.690        13
59.700        27
59.710        40
59.720        13
59.730        13
59.740        27
59.750        53
59.760        27
59.770        27
59.780        27
59.790        13
59.800        13
59.810        13
59.820         0
59.830         0
59.840        27
59.850         0
59.860        13
59.870         0
59.880        13
59.890        13
59.900        27
59.910        13
59.920         0
59.930         0
59.940        53
59.950        13
59.960         0
59.970        13
59.980         0
59.990        13
60.000        13
