20.000        37
20.020        40
20.040        43
20.060        73
20.080        40
20.100        27
20.120        50
20.140        43
20.160        40
20.180        57
20.200        27
20.220        67
20.240        37
20.260        33
20.280        43
20.300        30
20.320        53
20.340        37
20.360        47
20.380        27
20.400        43
20.420        37
20.440        40
20.460        40
20.480        27
20.500        27
20.520        37
20.540        63
20.560        33
20.580        33
20.600        33
20.620        13
20.640        17
20.660        53
20.680        57
20.700        43
20.720        53
20.740        27
20.760        60
20.780        37
20.800        20
20.820        33
20.840        27
20.860        70
20.880        33
20.900        27
20.920        33
20.940        37
20.960        27
20.980        23
21.000        47
21.020        47
21.040        57
21.060        30
21.080        23
21.100        40
21.120        27
21.140        43
21.160        40
21.180        33
21.200        40
21.220        53
21.240        20
21.260        43
21.280        50
21.300        50
21.320        53
21.340        37
21.360        47
21.380        20
21.400        47
21.420        43
21.440        33
21.460        27
21.480        50
21.500        23
21.520        37
21.540        60
21.560        37
21.580        37
21.600        27
21.620        43
21.640        30
21.660        40
21.680        40
21.700        17
21.720        47
21.740        43
21.760        30
21.780        50
21.800        27
21.820        47
21.840        37
21.860        50
21.880        33
21.900        33
21.920        33
21.940        50
21.960        43
21.980        43
22.000        13
22.020        43
22.040        27
22.060        50
22.080        30
22.100        43
22.120        50
22.140        27
22.160        43
22.180        50
22.200        40
22.220        47
22.240        37
22.260        63
22.280        30
22.300        43
22.320        60
22.340        37
22.360        57
22.380        70
22.400        50
22.420        40
22.440        50
22.460        70
22.480        43
22.500       100
22.520        70
22.540       123
22.560        90
22.580       120
22.600       100
22.620        77
22.640        80
22.660        77
22.680        70
22.700        63
22.720        53
22.740        40
22.760        43
22.780        30
22.800        50
22.820        43
22.840        53
22.860        50
22.880        30
22.900        50
22.920        47
22.940        33
22.960        23
22.980        27
23.000        37
23.020        47
23.040        40
23.060        33
23.080        30
23.100        20
23.120        50
23.140        27
23.160        40
23.180        57
23.200        43
23.220        47
23.240        33
23.260        23
23.280        27
23.300        33
23.320        43
23.340        43
23.360        13
23.380        37
23.400        23
23.420        40
23.440        37
23.460        30
23.480        37
23.500        30
23.520        37
23.540        33
23.560        57
23.580        33
23.600        30
23.620        40
23.640        27
23.660        37
23.680        37
23.700        47
23.720        17
23.740        20
23.760        23
23.780        27
23.800        43
23.820        27
23.840        37
23.860        57
23.880        50
23.900        17
23.920        33
23.940        43
23.960        27
23.980        50
24.000        40
24.020        30
24.040        37
24.060        37
24.080        23
24.100        40
24.120        60
24.140        30
24.160        53
24.180        20
24.200        23
24.220        47
24.240        30
24.260        20
24.280        17
24.300        33
24.320        23
24.340        37
24.360        30
24.380        40
24.400        57
24.420        57
24.440        30
24.460        23
24.480        43
24.500        33
24.520        37
24.540        43
24.560        37
24.580        43
24.600        33
24.620        40
24.640        27
24.660        23
24.680        37
24.700        37
24.720        33
24.740        27
24.760        50
24.780        30
24.800        47
24.820        23
24.840        40
24.860        30
24.880        53
24.900        43
24.920        30
24.940        30
24.960        27
24.980        27
25.000        37
25.020        40
25.040        33
25.060        40
25.080        27
25.100        33
25.120        20
25.140        33
25.160        17
25.180        37
25.200        37
25.220        23
25.240        37
25.260        30
25.280        23
25.300        47
25.320        53
25.340        23
25.360        70
25.380        23
25.400        20
25.420        37
25.440        33
25.460        27
25.480        30
25.500        53
25.520        30
25.540        30
25.560        60
25.580        97
25.600        77
25.620        77
25.640        83
25.660        77
25.680        57
25.700        53
25.720        67
25.740        50
25.760        27
25.780        37
25.800        20
25.820        37
25.840        23
25.860        33
25.880        33
25.900        27
25.920        20
25.940        17
25.960        20
25.980        27
26.000        27
26.020        20
26.040        27
26.060        47
26.080        30
26.100        17
26.120        27
26.140        33
26.160        20
26.180        23
26.200        50
26.220        30
26.240        23
26.260        17
26.280        33
26.300        30
26.320        43
26.340        33
26.360        37
26.380        37
26.400        17
26.420        37
26.440        30
26.460        10
26.480        23
26.500        30
26.520        30
26.540        33
26.560        30
26.580        20
26.600        33
26.620        33
26.640        20
26.660        20
26.680        27
26.700        23
26.720        23
26.740        27
26.760        37
26.780        27
26.800        13
26.820        33
26.840        23
26.860        13
26.880        40
26.900        23
26.920        27
26.940        40
26.960        17
26.980        27
27.000        13
27.020        60
27.040        27
27.060        30
27.080        20
27.100        43
27.120        27
27.140        23
27.160        33
27.180        40
27.200        20
27.220        40
27.240        17
27.260        20
27.280        23
27.300        27
27.320        23
27.340        13
27.360        33
27.380        27
27.400        27
27.420        33
27.440        37
27.460        13
27.480        40
27.500        17
27.520        27
27.540        30
27.560        53
27.580        17
27.600        20
27.620        23
27.640        27
27.660        13
27.680        33
27.700        27
27.720        37
27.740        10
27.760        20
27.780        50
27.800        43
27.820        33
27.840        20
27.860        27
27.880        23
27.900        27
27.920        13
27.940        17
27.960        47
27.980        13
28.000        20
28.020        17
28.040        47
28.060        30
28.080        23
28.100        43
28.120        20
28.140        50
28.160        40
28.180        30
28.200        43
28.220        23
28.240        13
28.260        13
28.280        27
28.300        20
28.320        33
28.340        13
28.360        13
28.380        33
28.400        27
28.420        13
28.440        37
28.460        20
28.480        17
28.500        37
28.520        20
28.540        30
28.560        30
28.580        40
28.600        17
28.620        27
28.640        27
28.660        20
28.680         3
28.700        23
28.720        30
28.740        30
28.760        27
28.780        43
28.800        17
28.820        20
28.840        20
28.860        30
28.880        33
28.900        43
28.920        27
28.940        17
28.960        23
28.980        23
29.000        37
29.020        17
29.040        27
29.060        23
29.080        17
29.100        30
29.120        40
29.140        23
29.160        23
29.180        37
29.200        20
29.220        37
29.240        23
29.260        20
29.280        33
29.300        47
29.320        47
29.340        53
29.360        37
29.380        20
29.400        50
29.420        57
29.440        50
29.460        50
29.480        43
29.500        30
29.520        37
29.540        50
29.560        13
29.580        40
29.600        30
29.620        23
29.640        20
29.660        17
29.680        23
29.700        17
29.720        63
29.740        30
29.760        27
29.780        10
29.800        37
29.820        40
29.840        17
29.860        23
29.880        27
29.900        27
29.920        20
29.940        30
29.960        20
29.980        37
30.000        10
30.020        20
30.040        27
30.060        20
30.080        13
30.100        27
30.120         0
30.140        17
30.160        27
30.180        37
30.200        30
30.220        27
30.240        33
30.260        23
30.280        37
30.300        13
30.320        23
30.340        27
30.360        13
30.380        10
30.400        17
30.420         7
30.440        33
30.460        27
30.480        23
30.500        30
30.520        20
30.540        30
30.560        30
30.580         7
30.600        13
30.620        20
30.640        20
30.660        27
30.680        23
30.700        23
30.720        13
30.740        33
30.760        17
30.780        30
30.800        17
30.820        20
30.840        20
30.860        10
30.880        37
30.900        13
30.920        13
30.940        13
30.960        30
30.980        30
31.000        17
31.020        33
31.040        27
31.060        23
31.080        43
31.100        13
31.120        10
31.140        17
31.160        27
31.180        30
31.200        20
31.220        17
31.240        30
31.260        33
31.280        20
31.300        37
31.320        27
31.340        10
31.360        23
31.380        23
31.400        43
31.420        13
31.440        40
31.460        33
31.480        23
31.500        10
31.520        17
31.540        17
31.560        30
31.580        27
31.600        13
31.620        10
31.640        33
31.660        23
31.680        23
31.700        30
31.720        27
31.740        63
31.760        40
31.780        60
31.800        30
31.820        33
31.840        53
31.860        50
31.880        57
31.900        90
31.920       107
31.940        73
31.960        90
31.980       100
32.000       120
32.020       160
32.040       127
32.060       207
32.080       167
32.100       217
32.120       243
32.140       290
32.160       200
32.180       243
32.200       193
32.220       213
32.240       163
32.260       147
32.280       110
32.300       107
32.320        70
32.340        93
32.360        77
32.380        60
32.400        57
32.420        37
32.440        63
32.460        30
32.480        40
32.500        23
32.520        50
32.540        10
32.560        33
32.580        43
32.600        17
32.620        27
32.640        33
32.660        33
32.680        20
32.700        27
32.720        33
32.740        20
32.760        47
32.780        23
32.800        33
32.820        20
32.840        10
32.860        37
32.880        37
32.900        20
32.920        10
32.940        33
32.960        17
32.980        23
33.000        13
33.020        13
33.040        23
33.060        20
33.080        27
33.100        27
33.120        43
33.140        20
33.160        43
33.180         7
33.200        23
33.220        47
33.240        27
33.260        17
33.280        30
33.300        33
33.320         3
33.340        30
33.360        17
33.380        20
33.400         7
33.420         7
33.440        17
33.460        27
33.480        20
33.500        27
33.520        17
33.540        20
33.560        27
33.580         3
33.600        13
33.620        17
33.640        30
33.660        27
33.680        13
33.700        17
33.720        13
33.740        27
33.760        27
33.780        27
33.800        17
33.820        27
33.840        17
33.860        17
33.880        13
33.900        30
33.920        20
33.940        17
33.960        30
33.980        33
34.000        13
34.020        33
34.040        30
34.060        17
34.080        13
34.100        27
34.120        17
34.140        23
34.160        20
34.180        30
34.200        13
34.220        33
34.240        27
34.260        33
34.280        23
34.300        33
34.320        30
34.340        27
34.360         7
34.380        27
34.400        43
34.420        20
34.440        20
34.460        20
34.480        20
34.500         7
34.520        10
34.540        20
34.560        23
34.580         7
34.600        10
34.620        33
34.640        17
34.660        27
34.680        37
34.700        30
34.720        23
34.740        30
34.760        10
34.780        23
34.800        30
34.820        30
34.840        17
34.860        20
34.880        20
34.900        27
34.920        43
34.940        37
34.960        37
34.980        73
35.000        40
35.020        33
35.040        40
35.060       100
35.080       207
35.100       483
35.120       596
35.140       543
35.160       516
35.180       446
35.200       490
35.220       363
35.240       303
35.260       230
35.280       163
35.300       133
35.320        97
35.340        50
35.360        60
35.380        63
35.400        40
35.420        30
35.440        50
35.460        27
35.480        30
35.500        27
35.520        23
35.540        13
35.560        27
35.580        20
35.600        20
35.620        27
35.640        13
35.660        17
35.680        23
35.700         3
35.720        20
35.740        13
35.760        10
35.780        43
35.800        30
35.820        30
35.840        10
35.860        17
35.880        13
35.900        47
35.920        23
35.940        27
35.960        23
35.980        17
36.000        40
36.020        33
36.040        27
36.060        43
36.080        23
36.100        20
36.120        10
36.140        17
36.160        13
36.180        13
36.200        30
36.220        10
36.240        33
36.260        30
36.280        20
36.300        20
36.320        17
36.340        17
36.360        33
36.380        10
36.400        13
36.420        17
36.440        17
36.460        27
36.480        23
36.500        20
36.520        27
36.540        40
36.560        27
36.580        10
36.600        17
36.620        23
36.640         7
36.660        17
36.680        13
36.700        17
36.720        20
36.740        20
36.760        20
36.780        13
36.800        23
36.820        27
36.840        23
36.860        33
36.880        13
36.900        27
36.920        27
36.940        27
36.960        27
36.980        13
37.000        23
37.020        20
37.040        33
37.060        27
37.080        17
37.100        20
37.120        17
37.140         7
37.160        10
37.180        27
37.200        33
37.220        27
37.240        17
37.260        10
37.280        10
37.300        13
37.320        47
37.340        27
37.360        13
37.380        23
37.400        23
37.420        30
37.440        13
37.460        13
37.480         7
37.500        23
37.520        13
37.540        17
37.560        27
37.580        17
37.600         7
37.620         7
37.640        13
37.660        20
37.680        20
37.700        20
37.720        30
37.740        17
37.760        17
37.780        37
37.800        40
37.820        30
37.840        50
37.860        30
37.880        50
37.900        23
37.920        43
37.940        30
37.960        20
37.980        33
38.000        23
38.020         7
38.040        33
38.060        20
38.080        30
38.100        30
38.120        10
38.140        20
38.160        20
38.180        23
38.200        47
38.220        37
38.240        20
38.260        17
38.280        40
38.300        23
38.320        17
38.340        17
38.360        27
38.380        33
38.400        23
38.420        27
38.440        13
38.460        17
38.480        17
38.500        27
38.520        17
38.540        17
38.560        30
38.580        10
38.600        23
38.620        10
38.640        30
38.660         7
38.680        23
38.700        33
38.720        43
38.740        23
38.760        37
38.780         7
38.800        10
38.820        20
38.840        13
38.860        27
38.880        23
38.900        20
38.920        13
38.940        37
38.960        20
38.980        20
39.000        10
39.020        23
39.040        27
39.060        27
39.080        23
39.100        37
39.120        33
39.140        23
39.160        23
39.180        23
39.200        27
39.220        20
39.240        23
39.260        33
39.280        23
39.300        33
39.320        23
39.340         7
39.360        43
39.380        33
39.400        23
39.420        47
39.440        33
39.460        23
39.480        33
39.500        33
39.520        30
39.540        37
39.560        53
39.580        67
39.600        40
39.620        40
39.640        87
39.660       107
39.680        77
39.700       113
39.720        97
39.740       117
39.760        77
39.780        70
39.800        93
39.820        67
39.840        67
39.860        67
39.880        50
39.900        47
39.920        23
39.940        40
39.960        27
39.980        10
40.000        27
40.020        17
40.040        27
40.060        33
40.080        17
40.100        37
40.120        17
40.140        27
40.160        23
40.180        20
40.200        37
40.220        17
40.240        13
40.260        40
40.280        23
40.300        17
40.320        33
40.340        20
40.360        20
40.380        40
40.400        17
40.420        23
40.440        23
40.460        33
40.480         3
40.500        20
40.520        13
40.540        23
40.560        23
40.580         7
40.600        37
40.620        13
40.640        30
40.660        23
40.680        23
40.700        27
40.720        27
40.740        27
40.760        13
40.780        30
40.800        37
40.820        20
40.840        20
40.860         3
40.880        20
40.900        10
40.920        20
40.940        27
40.960        20
40.980        23
41.000        17
41.020        27
41.040        20
41.060        17
41.080        17
41.100        43
41.120        23
41.140        13
41.160        17
41.180        20
41.200        33
41.220        23
41.240        13
41.260        43
41.280        20
41.300        40
41.320        17
41.340        13
41.360        10
41.380        27
41.400        40
41.420        23
41.440        13
41.460        27
41.480        23
41.500        30
41.520        30
41.540        20
41.560        27
41.580        57
41.600        40
41.620        57
41.640       100
41.660       120
41.680       130
41.700       173
41.720       137
41.740       153
41.760       113
41.780        77
41.800       130
41.820        57
41.840        67
41.860        57
41.880        57
41.900        30
41.920        43
41.940        27
41.960        30
41.980        43
42.000        27
42.020        43
42.040        33
42.060         7
42.080        23
42.100        27
42.120        17
42.140        20
42.160        17
42.180        33
42.200        23
42.220        17
42.240        30
42.260        23
42.280        33
42.300        13
42.320        23
42.340        53
42.360        23
42.380        27
42.400        10
42.420        27
42.440        27
42.460        20
42.480        40
42.500        37
42.520        40
42.540        23
42.560        40
42.580        13
42.600        27
42.620        17
42.640        17
42.660        37
42.680        27
42.700        23
42.720        30
42.740        13
42.760        23
42.780        10
42.800        17
42.820        27
42.840        17
42.860        43
42.880        13
42.900        27
42.920        20
42.940        20
42.960        37
42.980        27
43.000        20
43.020        30
43.040        30
43.060        30
43.080        47
43.100        40
43.120        43
43.140        50
43.160        50
43.180        70
43.200       100
43.220       233
43.240       387
43.260       420
43.280       373
43.300       263
43.320       303
43.340       407
43.360       723
43.380      1143
43.400      1076
43.420      1053
43.440       593
43.460       397
43.480       450
43.500       566
43.520       640
43.540       357
43.560       257
43.580       113
43.600       100
43.620        57
43.640        73
43.660        40
43.680        27
43.700        23
43.720        30
43.740        27
43.760        27
43.780        17
43.800        17
43.820        13
43.840        33
43.860        27
43.880        23
43.900        20
43.920        23
43.940        40
43.960        23
43.980        17
44.000        30
44.020        30
44.040        37
44.060        23
44.080        20
44.100        17
44.120        23
44.140        17
44.160        53
44.180        17
44.200        17
44.220        23
44.240        20
44.260        33
44.280        20
44.300        13
44.320        17
44.340        13
44.360        20
44.380        30
44.400        30
44.420        33
44.440        23
44.460        23
44.480        10
44.500        17
44.520        30
44.540        23
44.560         7
44.580        20
44.600         3
44.620        30
44.640        17
44.660        27
44.680        47
44.700         7
44.720        20
44.740        60
44.760        23
44.780        20
44.800        13
44.820        10
44.840        20
44.860        27
44.880        37
44.900        37
44.920         7
44.940        10
44.960        20
44.980        40
45.000        20
45.020        23
45.040        30
45.060        23
45.080        20
45.100        23
45.120        17
45.140        43
45.160        37
45.180        30
45.200        23
45.220        17
45.240        30
45.260        10
45.280        10
45.300        23
45.320        27
45.340         3
45.360        27
45.380        53
45.400        30
45.420        20
45.440        30
45.460        37
45.480        30
45.500        57
45.520        30
45.540        20
45.560        43
45.580        27
45.600        37
45.620        70
45.640        30
45.660        37
45.680        60
45.700        57
45.720        47
45.740        67
45.760        70
45.780        70
45.800        90
45.820        97
45.840        87
45.860       130
45.880       110
45.900       173
45.920       157
45.940       200
45.960       257
45.980       217
46.000       273
46.020       313
46.040       327
46.060       320
46.080       340
46.100       330
46.120       350
46.140       253
46.160       217
46.180       227
46.200       160
46.220       190
46.240       137
46.260       170
46.280       117
46.300        77
46.320        83
46.340        63
46.360        80
46.380        50
46.400        57
46.420        60
46.440        30
46.460        63
46.480        47
46.500        30
46.520        47
46.540        17
46.560        53
46.580        17
46.600        37
46.620        20
46.640        20
46.660        33
46.680        27
46.700        23
46.720        27
46.740        20
46.760        27
46.780        30
46.800        13
46.820        37
46.840        23
46.860        17
46.880        30
46.900        17
46.920        30
46.940        37
46.960        27
46.980        27
47.000        17
47.020        27
47.040        27
47.060        27
47.080        17
47.100        23
47.120        13
47.140         7
47.160        10
47.180        17
47.200        23
47.220        20
47.240        17
47.260        20
47.280        13
47.300        13
47.320        37
47.340        13
47.360        10
47.380        27
47.400        23
47.420        17
47.440        13
47.460        27
47.480        27
47.500        23
47.520        20
47.540        17
47.560         7
47.580        27
47.600        10
47.620        20
47.640         0
47.660        30
47.680        13
47.700        27
47.720        13
47.740        20
47.760        30
47.780        17
47.800        23
47.820        17
47.840        27
47.860        27
47.880        10
47.900        17
47.920        13
47.940        20
47.960        20
47.980        23
48.000        17
48.020        17
48.040        17
48.060        13
48.080        23
48.100         7
48.120        27
48.140         7
48.160        17
48.180        27
48.200        20
48.220        10
48.240        20
48.260        23
48.280        17
48.300        27
48.320        10
48.340         7
48.360        10
48.380        20
48.400        10
48.420        17
48.440        17
48.460        17
48.480        10
48.500        40
48.520        37
48.540        20
48.560         7
48.580        13
48.600        13
48.620        20
48.640        20
48.660        23
48.680        33
48.700        23
48.720        23
48.740        10
48.760        27
48.780        10
48.800        17
48.820        13
48.840        10
48.860        13
48.880        17
48.900         3
48.920        20
48.940        17
48.960        30
48.980        20
49.000        20
49.020        23
49.040        37
49.060        17
49.080        13
49.100        43
49.120        23
49.140         7
49.160         7
49.180        13
49.200        13
49.220         7
49.240        10
49.260         7
49.280        40
49.300        27
49.320        17
49.340        13
49.360        20
49.380        27
49.400        17
49.420        20
49.440        10
49.460        27
49.480        17
49.500        27
49.520        23
49.540        20
49.560        13
49.580        27
49.600        30
49.620         7
49.640        17
49.660        20
49.680        10
49.700        10
49.720        10
49.740        17
49.760        20
49.780        20
49.800        20
49.820        10
49.840        13
49.860        17
49.880        17
49.900        20
49.920        17
49.940         3
49.960        40
49.980        10
50.000         7
50.020        23
50.040        33
50.060        23
50.080        17
50.100        10
50.120        10
50.140        17
50.160        17
50.180        30
50.200        17
50.220        20
50.240        23
50.260        10
50.280        10
50.300        17
50.320        27
50.340        20
50.360        30
50.380        17
50.400        10
50.420        23
50.440        30
50.460        20
50.480        13
50.500        23
50.520        20
50.540        23
50.560        17
50.580        13
50.600        13
50.620        10
50.640        13
50.660        27
50.680        17
50.700        17
50.720        20
50.740        30
50.760        30
50.780        30
50.800         0
50.820        10
50.840        20
50.860        23
50.880        33
50.900        17
50.920        17
50.940        13
50.960        33
50.980        10
51.000        17
51.020        17
51.040        20
51.060        23
51.080        17
51.100        33
51.120        13
51.140        23
51.160        33
51.180        17
51.200        20
51.220        13
51.240        53
51.260        27
51.280        23
51.300        20
51.320        17
51.340        10
51.360        17
51.380        20
51.400        10
51.420        30
51.440        20
51.460        13
51.480        17
51.500        17
51.520        10
51.540        10
51.560        13
51.580        17
51.600        17
51.620        30
51.640        17
51.660        23
51.680        23
51.700        17
51.720        23
51.740        13
51.760        23
51.780        13
51.800        20
51.820        23
51.840        13
51.860        13
51.880        20
51.900        23
51.920        17
51.940        13
51.960        23
51.980        20
52.000        27
52.020        23
52.040         7
52.060        13
52.080        17
52.100        23
52.120        27
52.140        23
52.160        17
52.180        27
52.200        20
52.220        13
52.240        10
52.260        33
52.280        30
52.300         7
52.320         7
52.340        20
52.360        27
52.380        43
52.400        37
52.420        33
52.440        23
52.460        23
52.480        10
52.500        33
52.520        50
52.540        37
52.560        60
52.580        90
52.600       113
52.620       173
52.640       233
52.660       137
52.680        57
52.700        37
52.720        70
52.740        87
52.760        67
52.780       127
52.800        90
52.820        33
52.840        33
52.860        23
52.880        13
52.900        23
52.920        10
52.940        23
52.960        20
52.980         7
53.000        23
53.020        13
53.040        17
53.060        30
53.080        13
53.100        23
53.120        10
53.140        30
53.160        17
53.180        43
53.200        17
53.220        10
53.240        20
53.260        13
53.280        13
53.300        23
53.320         7
53.340        23
53.360        10
53.380        23
53.400        17
53.420        10
53.440        20
53.460        13
53.480        20
53.500        23
53.520        23
53.540        23
53.560        20
53.580         0
53.600        13
53.620        20
53.640        27
53.660         7
53.680        20
53.700         7
53.720        13
53.740        13
53.760        17
53.780        10
53.800        20
53.820        20
53.840        13
53.860        13
53.880        20
53.900        17
53.920        10
53.940        30
53.960        13
53.980         7
54.000        23
54.020        17
54.040        20
54.060         3
54.080        23
54.100        13
54.120        17
54.140        13
54.160        20
54.180        27
54.200        20
54.220        13
54.240        33
54.260        20
54.280        20
54.300        17
54.320        17
54.340        20
54.360        13
54.380        47
54.400        20
54.420        13
54.440        13
54.460        20
54.480         7
54.500        10
54.520         0
54.540         7
54.560        13
54.580        20
54.600        20
54.620         7
54.640        17
54.660        17
54.680        10
54.700        10
54.720        17
54.740        10
54.760        17
54.780        13
54.800        20
54.820        17
54.840        10
54.860        10
54.880        27
54.900        10
54.920        23
54.940         0
54.960        10
54.980        10
55.000        10
55.020        20
55.040        13
55.060        23
55.080        20
55.100        30
55.120        20
55.140        17
55.160         0
55.180        10
55.200        30
55.220        17
55.240        17
55.260        13
55.280        10
55.300        27
55.320        23
55.340        10
55.360        10
55.380        20
55.400        23
55.420        17
55.440        23
55.460        13
55.480        17
55.500         7
55.520        10
55.540        17
55.560         7
55.580        30
55.600         3
55.620        13
55.640        17
55.660        10
55.680        17
55.700        23
55.720         3
55.740        23
55.760        20
55.780        23
55.800        13
55.820        20
55.840        17
55.860        10
55.880        10
55.900        17
55.920        17
55.940        17
55.960        20
55.980         3
56.000        13
56.020         7
56.040        13
56.060        10
56.080        13
56.100        10
56.120        27
56.140         3
56.160         7
56.180        23
56.200        20
56.220        27
56.240        10
56.260        23
56.280        27
56.300         0
56.320        10
56.340        20
56.360        10
56.380        27
56.400        37
56.420        33
56.440        17
56.460        23
56.480        17
56.500        33
56.520        23
56.540         3
56.560        20
56.580        10
56.600        20
56.620        23
56.640        10
56.660        17
56.680        27
56.700        17
56.720        10
56.740        17
56.760        13
56.780        30
56.800        23
56.820        10
56.840        17
56.860        13
56.880        13
56.900         7
56.920        13
56.940        13
56.960        20
56.980        27
57.000        20
57.020        13
57.040        17
57.060        23
57.080        17
57.100        23
57.120        20
57.140        13
57.160        30
57.180        20
57.200        37
57.220        40
57.240        33
57.260        43
57.280        33
57.300        40
57.320        47
57.340        43
57.360        80
57.380        57
57.400        73
57.420        70
57.440        83
57.460       113
57.480       190
57.500       217
57.520       243
57.540       290
57.560       320
57.580       263
57.600       193
57.620       107
57.640       140
57.660       147
57.680       173
57.700       160
57.720       173
57.740       157
57.760        83
57.780        43
57.800        27
57.820        23
57.840        53
57.860        23
57.880        30
57.900        23
57.920        20
57.940        23
57.960        23
57.980        17
58.000        30
58.020        10
58.040        33
58.060         7
58.080        13
58.100        10
58.120        17
58.140        10
58.160        20
58.180        13
58.200        13
58.220        23
58.240        13
58.260        20
58.280        10
58.300        13
58.320        17
58.340        10
58.360        13
58.380         7
58.400        10
58.420        17
58.440         7
58.460        10
58.480        17
58.500        10
58.520        13
58.540        13
58.560         3
58.580        10
58.600        23
58.620        17
58.640        10
58.660         3
58.680        17
58.700        17
58.720        23
58.740        13
58.760        17
58.780        27
58.800         3
58.820        20
58.840        13
58.860        27
58.880        17
58.900        13
58.920        13
58.940        20
58.960        20
58.980         7
59.000        23
59.020        17
59.040        40
59.060        27
59.080        20
59.100         7
59.120        17
59.140         7
59.160        20
59.180        20
59.200        27
59.220        20
59.240        20
59.260        13
59.280         0
59.300        20
59.320        10
59.340        23
59.360         7
59.380        17
59.400        23
59.420        10
59.440        10
59.460        13
59.480        17
59.500        17
59.520        23
59.540        20
59.560        30
59.580        30
59.600        13
59.620        13
59.640         7
59.660        30
59.680        30
59.700        40
59.720        20
59.740        17
59.760        17
59.780         3
59.800        37
59.820        17
59.840        27
59.860         3
59.880        17
59.900        10
59.920        10
59.940        13
59.960        10
59.980         3
60.000         3
