20.000       486
20.020       486
20.040       743
20.060       486
20.080       585
20.100       785
20.120       714
20.140       585
20.160       628
20.180       743
20.200       585
20.220       571
20.240       714
20.260       557
20.280       743
20.300       657
20.320       714
20.340       685
20.360       600
20.380       557
20.400       600
20.420       728
20.440       614
20.460       557
20.480       457
20.500       600
20.520       671
20.540       643
20.560       600
20.580       628
20.600       671
20.620       671
20.640       543
20.660       700
20.680       557
20.700       628
20.720       514
20.740       671
20.760       500
20.780       471
20.800       628
20.820       628
20.840       785
20.860       628
20.880       500
20.900       657
20.920       543
20.940       685
20.960       514
20.980       500
21.000       543
21.020       757
21.040       700
21.060       514
21.080       671
21.100       414
21.120       543
21.140       671
21.160       514
21.180       471
21.200       643
21.220       700
21.240       600
21.260       528
21.280       514
21.300       628
21.320       543
21.340       643
21.360       728
21.380       700
21.400       600
21.420       486
21.440       614
21.460       514
21.480       628
21.500       486
21.520       600
21.540       571
21.560       428
21.580       657
21.600       428
21.620       500
21.640       486
21.660       671
21.680       700
21.700       600
21.720       500
21.740       643
21.760       557
21.780       528
21.800       643
21.820       757
21.840       600
21.860       486
21.880       600
21.900       500
21.920       771
21.940       457
21.960       400
21.980       400
22.000       543
22.020       600
22.040       500
22.060       371
22.080       657
22.100       600
22.120       400
22.140       514
22.160       600
22.180       457
22.200       543
22.220       457
22.240       571
22.260       428
22.280       614
22.300       643
22.320       600
22.340       571
22.360       400
22.380       614
22.400       628
22.420       486
22.440       400
22.460       628
22.480       543
22.500       585
22.520       557
22.540       585
22.560       628
22.580       585
22.600       543
22.620       500
22.640       471
22.660       500
22.680       657
22.700       585
22.720       400
22.740       486
22.760       500
22.780       614
22.800       514
22.820       471
22.840       428
22.860       486
22.880       514
22.900       600
22.920       514
22.940       571
22.960       500
22.980       585
23.000       414
23.020       528
23.040       414
23.060       528
23.080       443
23.100       514
23.120       600
23.140       414
23.160       643
23.180       585
23.200       500
23.220       500
23.240       628
23.260       528
23.280       600
23.300       414
23.320       528
23.340       500
23.360       643
23.380       357
23.400       457
23.420       528
23.440       457
23.460       557
23.480       414
23.500       371
23.520       443
23.540       500
23.560       500
23.580       371
23.600       471
23.620       443
23.640       400
23.660       486
23.680       486
23.700       343
23.720       428
23.740       286
23.760       500
23.780       614
23.800       514
23.820       528
23.840       471
23.860       471
23.880       357
23.900       414
23.920       643
23.940       400
23.960       400
23.980       585
24.000       514
24.020       600
24.040       457
24.060       300
24.080       500
24.100       457
24.120       300
24.140       614
24.160       700
24.180       400
24.200       471
24.220       457
24.240       371
24.260       428
24.280       500
24.300       386
24.320       614
24.340       486
24.360       528
24.380       557
24.400       414
24.420       414
24.440       600
24.460       543
24.480       328
24.500       528
24.520       428
24.540       614
24.560       486
24.580       571
24.600       357
24.620       500
24.640       371
24.660       328
24.680       528
24.700       343
24.720       557
24.740       414
24.760       500
24.780       271
24.800       357
24.820       486
24.840       457
24.860       557
24.880       643
24.900       400
24.920       528
24.940       500
24.960       314
24.980       486
25.000       500
25.020       643
25.040       514
25.060       314
25.080       314
25.100       328
25.120       543
25.140       457
25.160       343
25.180       514
25.200       357
25.220       414
25.240       628
25.260       471
25.280       528
25.300       428
25.320       528
25.340       286
25.360       500
25.380       414
25.400       371
25.420       386
25.440       414
25.460       500
25.480       357
25.500       486
25.520       457
25.540       443
25.560       314
25.580       386
25.600       343
25.620       500
25.640       514
25.660       328
25.680       314
25.700       443
25.720       471
25.740       371
25.760       386
25.780       428
25.800       528
25.820       428
25.840       528
25.860       357
25.880       457
25.900       471
25.920       300
25.940       400
25.960       343
25.980       500
26.000       357
26.020       328
26.040       314
26.060       457
26.080       371
26.100       371
26.120       486
26.140       443
26.160       486
26.180       471
26.200       357
26.220       314
26.240       386
26.260       443
26.280       614
26.300       357
26.320       343
26.340       386
26.360       328
26.380       443
26.400       585
26.420       457
26.440       357
26.460       371
26.480       286
26.500       500
26.520       428
26.540       614
26.560       343
26.580       200
26.600       543
26.620       471
26.640       286
26.660       386
26.680       400
26.700       628
26.720       414
26.740       300
26.760       386
26.780       443
26.800       286
26.820       243
26.840       500
26.860       428
26.880       500
26.900       471
26.920       443
26.940       386
26.960       343
26.980       386
27.000       371
27.020       328
27.040       343
27.060       400
27.080       614
27.100       414
27.120       386
27.140       271
27.160       371
27.180       457
27.200       328
27.220       343
27.240       443
27.260       314
27.280       357
27.300       257
27.320       457
27.340       457
27.360       328
27.380       343
27.400       386
27.420       343
27.440       328
27.460       428
27.480       400
27.500       328
27.520       457
27.540       428
27.560       357
27.580       371
27.600       457
27.620       386
27.640       457
27.660       471
27.680       386
27.700       357
27.720       443
27.740       286
27.760       343
27.780       228
27.800       328
27.820       486
27.840       243
27.860       343
27.880       386
27.900       300
27.920       257
27.940       557
27.960       414
27.980       414
28.000       271
28.020       271
28.040       386
28.060       471
28.080       428
28.100       443
28.120       314
28.140       300
28.160       400
28.180       457
28.200       286
28.220       314
28.240       400
28.260       386
28.280       428
28.300       400
28.320       328
28.340       357
28.360       200
28.380       171
28.400       300
28.420       371
28.440       271
28.460       371
28.480       371
28.500       314
28.520       228
28.540       314
28.560       400
28.580       314
28.600       228
28.620       286
28.640       271
28.660       300
28.680       371
28.700       386
28.720       257
28.740       428
28.760       386
28.780       257
28.800       300
28.820       443
28.840       271
28.860       314
28.880       457
28.900       257
28.920       386
28.940       500
28.960       300
28.980       386
29.000       400
29.020       386
29.040       300
29.060       471
29.080       300
29.100       371
29.120       271
29.140       286
29.160       214
29.180       386
29.200       228
29.220       343
29.240       357
29.260       314
29.280       314
29.300       343
29.320       286
29.340       486
29.360       314
29.380       357
29.400       343
29.420       428
29.440       371
29.460       428
29.480       314
29.500       271
29.520       343
29.540       343
29.560       528
29.580       371
29.600       371
29.620       371
29.640       357
29.660       400
29.680       386
29.700       400
29.720       343
29.740       300
29.760       257
29.780       286
29.800       443
29.820       271
29.840       543
29.860       314
29.880       328
29.900       386
29.920       300
29.940       386
29.960       357
29.980       257
30.000       428
30.020       371
30.040       228
30.060       314
30.080       500
30.100       243
30.120       271
30.140       228
30.160       357
30.180       271
30.200       357
30.220       228
30.240       286
30.260       386
30.280       414
30.300       443
30.320       271
30.340       271
30.360       400
30.380       328
30.400       386
30.420       471
30.440       328
30.460       414
30.480       328
30.500       471
30.520       214
30.540       257
30.560       243
30.580       300
30.600       328
30.620       314
30.640       228
30.660       257
30.680       200
30.700       357
30.720       328
30.740       243
30.760       357
30.780       286
30.800       257
30.820       443
30.840       286
30.860       400
30.880       271
30.900       314
30.920       257
30.940       300
30.960       300
30.980       271
31.000       443
31.020       300
31.040       314
31.060       271
31.080       257
31.100       371
31.120       186
31.140       243
31.160       257
31.180       300
31.200       271
31.220       314
31.240       271
31.260       414
31.280       428
31.300       428
31.320       200
31.340       300
31.360       257
31.380       257
31.400       314
31.420       300
31.440       214
31.460       414
31.480       328
31.500       428
31.520       314
31.540       300
31.560       300
31.580       286
31.600       328
31.620       314
31.640       357
31.660       314
31.680       400
31.700       286
31.720       200
31.740       357
31.760       343
31.780       414
31.800       286
31.820       314
31.840       228
31.860       357
31.880       228
31.900       328
31.920       257
31.940       328
31.960       157
31.980       357
32.000       271
32.020       343
32.040       443
32.060       343
32.080       286
32.100       357
32.120       314
32.140       314
32.160       457
32.180       300
32.200       300
32.220       228
32.240       357
32.260       243
32.280       143
32.300       228
32.320       257
32.340       414
32.360       286
32.380       314
32.400       257
32.420       257
32.440       171
32.460       343
32.480       328
32.500       343
32.520       314
32.540       243
32.560       343
32.580       314
32.600       171
32.620       214
32.640       357
32.660       171
32.680       228
32.700       257
32.720       228
32.740       214
32.760       286
32.780       200
32.800       214
32.820       271
32.840       257
32.860       300
32.880       200
32.900       257
32.920       200
32.940       357
32.960       243
32.980       357
33.000       286
33.020       243
33.040       243
33.060       286
33.080       443
33.100       257
33.120       386
33.140       228
33.160       214
33.180       300
33.200       157
33.220       443
33.240       214
33.260       300
33.280       186
33.300       386
33.320       243
33.340       343
33.360       186
33.380       457
33.400       314
33.420       414
33.440       357
33.460       371
33.480       271
33.500       257
33.520       286
33.540       300
33.560       443
33.580       286
33.600       186
33.620       271
33.640       386
33.660       328
33.680       243
33.700       257
33.720       343
33.740       300
33.760       214
33.780       186
33.800       300
33.820       257
33.840       328
33.860       414
33.880       371
33.900       471
33.920       343
33.940       271
33.960       386
33.980       271
34.000       357
34.020       571
34.040       414
34.060       314
34.080       471
34.100       457
34.120       614
34.140       743
34.160       643
34.180       657
34.200       657
34.220       871
34.240       885
34.260      1357
34.280      1128
34.300      1785
34.320      1228
34.340      1599
34.360      2013
34.380      1985
34.400      2199
34.420      2085
34.440      2071
34.460      2242
34.480      1714
34.500      1614
34.520      1414
34.540      1071
34.560       985
34.580       771
34.600       557
34.620       428
34.640       428
34.660       386
34.680       400
34.700       400
34.720       328
34.740       228
34.760       257
34.780       243
34.800       271
34.820       314
34.840       314
34.860       214
34.880       228
34.900       314
34.920       243
34.940       314
34.960       386
34.980       371
35.000       243
35.020       357
35.040       286
35.060       300
35.080       386
35.100       186
35.120       300
35.140       271
35.160       257
35.180       257
35.200       286
35.220       300
35.240       286
35.260       186
35.280       257
35.300       228
35.320       186
35.340       371
35.360       200
35.380       386
35.400       200
35.420       214
35.440       314
35.460       171
35.480       257
35.500       243
35.520       286
35.540       171
35.560       157
35.580       300
35.600       200
35.620       271
35.640       171
35.660       271
35.680       186
35.700       186
35.720       271
35.740       271
35.760       114
35.780       214
35.800       386
35.820       200
35.840       200
35.860       314
35.880       400
35.900       186
35.920       228
35.940       271
35.960       157
35.980       243
36.000       228
36.020       186
36.040       300
36.060       271
36.080       286
36.100       214
36.120       428
36.140       228
36.160       286
36.180       400
36.200       357
36.220       243
36.240       300
36.260       314
36.280       343
36.300       314
36.320       243
36.340       257
36.360       386
36.380       271
36.400       186
36.420       171
36.440       171
36.460       228
36.480       257
36.500       300
36.520       300
36.540       314
36.560       257
36.580       286
36.600       300
36.620       300
36.640       314
36.660       328
36.680       143
36.700       286
36.720       200
36.740       228
36.760       257
36.780       200
36.800       214
36.820       257
36.840       228
36.860       228
36.880       271
36.900       228
36.920       171
36.940       243
36.960       328
36.980       300
37.000       214
37.020       314
37.040       214
37.060       357
37.080       186
37.100       271
37.120       157
37.140       171
37.160       228
37.180       343
37.200       257
37.220       314
37.240       186
37.260       157
37.280       257
37.300       171
37.320       214
37.340       271
37.360       214
37.380       186
37.400       228
37.420       243
37.440       286
37.460       171
37.480       228
37.500       243
37.520       271
37.540       171
37.560       271
37.580       228
37.600       271
37.620       214
37.640       228
37.660       257
37.680       200
37.700       328
37.720       228
37.740       314
37.760       214
37.780       200
37.800       243
37.820       286
37.840       228
37.860       214
37.880       257
37.900       171
37.920       286
37.940       186
37.960       257
37.980       186
38.000       114
38.020       157
38.040       157
38.060       171
38.080       171
38.100       186
38.120       286
38.140       100
38.160       200
38.180        57
38.200       271
38.220       186
38.240       228
38.260       214
38.280       314
38.300       114
38.320       214
38.340       186
38.360       200
38.380       314
38.400       228
38.420       186
38.440       228
38.460       171
38.480       300
38.500       228
38.520       286
38.540       157
38.560       200
38.580       200
38.600       257
38.620       186
38.640       171
38.660       257
38.680       271
38.700       171
38.720       214
38.740       129
38.760       186
38.780       300
38.800       143
38.820       200
38.840       157
38.860       129
38.880       228
38.900       200
38.920       200
38.940       257
38.960       243
38.980       257
39.000       200
39.020        71
39.040       214
39.060       214
39.080       200
39.100       314
39.120       271
39.140       171
39.160       228
39.180       214
39.200       200
39.220       186
39.240       328
39.260       129
39.280       200
39.300       200
39.320       214
39.340       286
39.360       186
39.380       143
39.400       214
39.420       228
39.440       186
39.460       200
39.480       214
39.500       228
39.520       186
39.540       129
39.560       228
39.580       286
39.600       314
39.620       114
39.640       328
39.660       214
39.680       286
39.700       300
39.720       286
39.740       271
39.760       143
39.780       300
39.800       186
39.820       271
39.840       186
39.860       328
39.880       243
39.900       300
39.920        71
39.940       243
39.960       186
39.980       143
40.000       257
40.020       314
40.040       200
40.060       143
40.080       228
40.100       314
40.120       200
40.140       286
40.160       214
40.180       171
40.200       214
40.220       300
40.240       243
40.260       186
40.280       143
40.300       243
40.320       228
40.340       171
40.360       186
40.380       243
40.400       157
40.420       300
40.440       200
40.460       243
40.480       186
40.500       186
40.520       143
40.540       200
40.560       157
40.580       129
40.600       243
40.620       171
40.640       171
40.660       157
40.680       286
40.700       171
40.720       257
40.740       186
40.760       200
40.780       243
40.800       243
40.820       186
40.840       200
40.860       328
40.880       157
40.900       300
40.920       100
40.940       243
40.960       171
40.980       286
41.000       343
41.020       129
41.040       300
41.060       228
41.080       243
41.100       271
41.120       186
41.140       171
41.160       200
41.180       243
41.200       129
41.220       243
41.240       271
41.260       257
41.280       228
41.300       271
41.320       200
41.340       243
41.360       171
41.380       243
41.400       129
41.420        43
41.440       186
41.460       157
41.480       214
41.500       243
41.520       143
41.540       257
41.560       243
41.580       214
41.600       243
41.620       186
41.640       157
41.660       286
41.680       186
41.700       228
41.720       228
41.740       171
41.760       114
41.780       143
41.800       214
41.820       243
41.840       186
41.860       243
41.880       271
41.900       186
41.920       129
41.940       171
41.960       171
41.980        71
42.000       200
42.020       286
42.040       243
42.060       114
42.080       228
42.100       157
42.120       214
42.140       157
42.160       143
42.180       257
42.200       271
42.220       171
42.240       328
42.260       171
42.280       171
42.300       243
42.320       129
42.340       200
42.360       157
42.380       214
42.400       171
42.420       243
42.440       186
42.460       228
42.480       171
42.500       171
42.520       300
42.540       186
42.560       171
42.580       228
42.600       271
42.620       328
42.640       171
42.660       129
42.680       228
42.700       214
42.720        86
42.740       243
42.760       171
42.780       129
42.800       328
42.820       271
42.840       129
42.860       200
42.880       143
42.900       228
42.920       129
42.940       157
42.960       186
42.980       157
43.000       129
43.020       157
43.040       243
43.060       214
43.080       186
43.100       243
43.120       286
43.140       357
43.160       186
43.180       200
43.200       186
43.220       243
43.240       214
43.260       157
43.280       186
43.300       314
43.320       214
43.340       243
43.360       243
43.380       214
43.400       214
43.420       300
43.440       271
43.460       171
43.480       214
43.500       300
43.520       143
43.540       228
43.560       157
43.580       171
43.600       143
43.620       171
43.640       214
43.660       214
43.680       186
43.700       228
43.720       200
43.740       143
43.760       171
43.780       100
43.800       228
43.820       200
43.840       200
43.860       200
43.880       214
43.900       129
43.920       171
43.940       214
43.960       157
43.980       200
44.000       186
44.020       200
44.040       243
44.060       228
44.080       243
44.100       171
44.120       186
44.140       129
44.160       171
44.180       186
44.200       200
44.220       171
44.240       171
44.260       100
44.280        71
44.300       214
44.320       314
44.340       243
44.360       143
44.380       271
44.400       100
44.420       200
44.440       271
44.460       171
44.480       200
44.500       200
44.520       143
44.540       186
44.560       200
44.580       143
44.600       271
44.620       243
44.640       143
44.660       257
44.680       143
44.700       200
44.720       257
44.740       186
44.760       171
44.780       214
44.800       243
44.820       129
44.840       114
44.860       129
44.880       157
44.900       243
44.920       186
44.940       257
44.960       129
44.980       214
45.000       129
45.020       186
45.040       186
45.060       143
45.080       243
45.100       157
45.120       243
45.140       114
45.160       271
45.180       171
45.200       214
45.220       300
45.240        71
45.260       171
45.280       114
45.300       271
45.320       186
45.340       171
45.360       214
45.380       186
45.400       171
45.420       157
45.440       257
45.460       200
45.480       200
45.500       200
45.520       200
45.540       228
45.560       171
45.580       100
45.600       243
45.620       257
45.640       214
45.660       214
45.680       186
45.700       129
45.720       257
45.740       186
45.760       200
45.780       257
45.800       243
45.820       157
45.840       129
45.860       143
45.880       200
45.900       129
45.920       228
45.940       271
45.960       186
45.980       100
46.000       186
46.020       143
46.040       100
46.060       186
46.080       228
46.100       157
46.120       186
46.140       186
46.160       371
46.180       157
46.200       171
46.220       186
46.240       214
46.260       157
46.280       243
46.300       214
46.320       286
46.340       143
46.360       228
46.380       214
46.400       143
46.420       271
46.440       214
46.460       157
46.480        86
46.500       257
46.520       200
46.540       214
46.560       257
46.580       186
46.600       257
46.620       357
46.640       200
46.660       328
46.680       257
46.700       129
46.720       228
46.740       228
46.760       228
46.780       200
46.800       186
46.820       286
46.840       257
46.860       200
46.880       129
46.900       143
46.920       271
46.940       243
46.960       286
46.980       314
47.000       143
47.020       214
47.040       228
47.060       171
47.080       314
47.100       186
47.120       286
47.140       271
47.160       228
47.180       214
47.200       300
47.220       200
47.240       171
47.260       200
47.280       228
47.300       328
47.320       300
47.340       228
47.360       328
47.380       143
47.400       300
47.420       157
47.440       257
47.460       314
47.480       214
47.500       214
47.520       314
47.540       243
47.560       314
47.580       300
47.600       243
47.620       114
47.640       186
47.660       228
47.680       214
47.700       243
47.720       271
47.740       200
47.760       228
47.780        86
47.800       328
47.820       129
47.840       286
47.860       214
47.880       100
47.900       171
47.920       228
47.940       228
47.960       171
47.980       228
48.000       214
48.020       157
48.040       214
48.060       157
48.080       243
48.100       271
48.120       214
48.140       243
48.160       186
48.180       214
48.200       157
48.220        86
48.240       157
48.260       314
48.280       214
48.300       214
48.320       171
48.340       100
48.360       200
48.380       129
48.400       200
48.420       171
48.440       228
48.460       300
48.480       271
48.500       314
48.520       171
48.540       186
48.560       171
48.580       186
48.600       186
48.620       271
48.640       228
48.660       143
48.680       243
48.700       243
48.720       200
48.740       129
48.760       186
48.780       171
48.800       200
48.820       129
48.840       200
48.860       143
48.880       271
48.900       228
48.920       186
48.940       228
48.960       143
48.980       243
49.000       186
49.020       129
49.040       314
49.060       200
49.080       286
49.100       357
49.120       200
49.140       214
49.160       114
49.180       214
49.200       328
49.220       200
49.240       129
49.260       186
49.280       171
49.300       328
49.320       357
49.340       228
49.360       186
49.380       257
49.400       171
49.420       228
49.440       243
49.460       257
49.480       286
49.500       157
49.520       257
49.540       157
49.560       271
49.580       328
49.600       143
49.620       314
49.640       286
49.660       186
49.680       271
49.700       143
49.720       228
49.740       286
49.760       243
49.780       314
49.800       257
49.820       214
49.840       228
49.860       214
49.880       243
49.900       271
49.920       143
49.940       228
49.960       328
49.980       157
50.000       214
50.020       186
50.040       243
50.060       271
50.080       300
50.100       257
50.120       129
50.140       314
50.160       243
50.180       171
50.200       171
50.220       300
50.240       257
50.260       186
50.280       243
50.300       186
50.320       214
50.340       257
50.360       371
50.380       200
50.400       286
50.420       286
50.440       328
50.460       143
50.480       200
50.500       357
50.520       143
50.540       271
50.560       271
50.580       271
50.600       271
50.620       243
50.640       257
50.660       171
50.680       328
50.700       271
50.720       414
50.740       271
50.760       243
50.780       200
50.800       186
50.820       314
50.840       114
50.860       371
50.880       243
50.900       257
50.920       400
50.940       157
50.960       200
50.980       214
51.000       257
51.020       314
51.040       328
51.060       243
51.080       386
51.100       243
51.120       328
51.140       357
51.160       257
51.180       286
51.200       314
51.220       286
51.240       200
51.260       228
51.280       428
51.300       186
51.320       228
51.340       314
51.360       357
51.380       214
51.400       228
51.420       328
51.440       257
51.460       286
51.480       200
51.500       343
51.520       271
51.540       314
51.560       286
51.580       214
51.600       171
51.620       171
51.640       200
51.660       300
51.680       400
51.700       314
51.720       200
51.740       257
51.760       228
51.780       328
51.800       214
51.820       271
51.840       428
51.860       200
51.880       214
51.900       157
51.920       257
51.940       186
51.960       143
51.980       243
52.000       314
52.020       300
52.040       271
52.060       314
52.080       243
52.100       271
52.120       243
52.140       386
52.160       228
52.180       300
52.200       557
52.220       214
52.240       143
52.260       314
52.280       271
52.300       243
52.320       371
52.340       214
52.360       200
52.380       243
52.400       300
52.420       314
52.440       371
52.460       214
52.480       314
52.500       414
52.520       328
52.540       271
52.560       328
52.580       300
52.600       328
52.620       243
52.640       200
52.660       314
52.680       243
52.700       171
52.720       286
52.740       386
52.760       271
52.780       343
52.800       243
52.820       271
52.840       214
52.860       271
52.880       214
52.900       386
52.920       228
52.940       200
52.960       400
52.980       300
53.000       214
53.020       314
53.040       286
53.060       314
53.080       129
53.100       428
53.120       143
53.140       300
53.160       457
53.180       271
53.200       371
53.220       243
53.240       343
53.260       214
53.280       357
53.300       271
53.320       328
53.340       257
53.360       243
53.380       257
53.400       500
53.420       371
53.440       214
53.460       200
53.480       257
53.500       300
53.520       271
53.540       143
53.560       257
53.580       171
53.600       343
53.620       300
53.640       257
53.660       300
53.680       214
53.700       286
53.720       228
53.740       286
53.760       386
53.780       243
53.800       143
53.820       300
53.840       186
53.860       257
53.880       186
53.900       271
53.920       214
53.940       328
53.960       257
53.980       328
54.000       343
54.020       300
54.040       428
54.060       400
54.080       414
54.100       257
54.120       271
54.140       328
54.160       314
54.180       214
54.200       271
54.220       443
54.240       228
54.260       343
54.280       257
54.300       271
54.320       271
54.340       357
54.360       271
54.380       286
54.400       214
54.420       186
54.440       328
54.460       257
54.480       286
54.500       257
54.520       314
54.540       200
54.560       328
54.580       171
54.600       157
54.620       214
54.640       428
54.660       257
54.680       328
54.700       200
54.720       328
54.740       200
54.760       286
54.780       271
54.800       386
54.820       228
54.840       357
54.860       286
54.880       271
54.900       186
54.920       300
54.940       286
54.960       314
54.980       400
55.000       343
55.020       328
55.040       414
55.060       286
55.080       228
55.100       171
55.120       186
55.140       157
55.160       271
55.180       314
55.200       300
55.220       271
55.240       414
55.260       343
55.280       200
55.300       343
55.320       400
55.340       371
55.360       314
55.380       300
55.400       300
55.420       228
55.440       314
55.460       343
55.480       314
55.500       371
55.520       200
55.540       414
55.560       228
55.580       386
55.600       371
55.620       371
55.640       314
55.660       314
55.680       343
55.700       328
55.720       328
55.740       400
55.760       357
55.780       528
55.800       271
55.820       343
55.840       328
55.860       343
55.880       400
55.900       300
55.920       386
55.940       357
55.960       357
55.980       443
56.000       314
56.020       471
56.040       457
56.060       428
56.080       343
56.100       443
56.120       543
56.140       600
56.160       343
56.180       486
56.200       614
56.220       500
56.240       428
56.260       543
56.280       714
56.300       514
56.320       571
56.340       443
56.360       500
56.380       443
56.400       614
56.420       700
56.440       514
56.460       557
56.480       728
56.500       671
56.520       614
56.540       771
56.560       657
56.580       471
56.600       471
56.620       785
56.640       557
56.660       557
56.680       728
56.700       700
56.720       600
56.740       700
56.760       700
56.780       714
56.800       614
56.820       671
56.840       614
56.860       671
56.880       571
56.900       571
56.920       671
56.940       614
56.960       414
56.980       600
57.000       357
57.020       614
57.040       571
57.060       486
57.080       557
57.100       571
57.120       443
57.140       457
57.160       386
57.180       543
57.200       443
57.220       486
57.240       400
57.260       386
57.280       386
57.300       514
57.320       286
57.340       371
57.360       457
57.380       400
57.400       371
57.420       414
57.440       328
57.460       214
57.480       528
57.500       271
57.520       271
57.540       271
57.560       400
57.580       328
57.600       271
57.620       343
57.640       371
57.660       286
57.680       386
57.700       414
57.720       343
57.740       257
57.760       314
57.780       186
57.800       357
57.820       314
57.840       343
57.860       214
57.880       414
57.900       400
57.920       386
57.940       171
57.960       214
57.980       214
58.000       286
58.020       343
58.040       257
58.060       314
58.080       343
58.100       257
58.120       314
58.140       186
58.160       200
58.180       386
58.200       314
58.220       228
58.240       314
58.260       214
58.280       343
58.300       243
58.320       271
58.340       314
58.360       228
58.380       228
58.400       243
58.420       271
58.440       228
58.460       200
58.480       243
58.500       257
58.520       271
58.540       343
58.560       228
58.580       228
58.600       214
58.620       286
58.640       328
58.660       286
58.680       257
58.700       257
58.720       171
58.740       243
58.760       214
58.780       200
58.800       243
58.820       257
58.840       143
58.860       228
58.880       257
58.900       228
58.920       143
58.940       157
58.960       129
58.980       200
59.000       257
59.020       271
59.040       114
59.060       243
59.080       186
59.100       314
59.120       214
59.140       143
59.160       186
59.180       286
59.200       186
59.220       228
59.240       243
59.260       343
59.280       157
59.300       114
59.320       200
59.340       171
59.360       157
59.380       200
59.400        71
59.420       214
59.440       200
59.460       243
59.480       114
59.500       214
59.520       186
59.540       214
59.560       243
59.580       100
59.600       157
59.620       257
59.640       143
59.660       157
59.680       171
59.700       243
59.720       228
59.740       143
59.760       114
59.780       171
59.800       143
59.820       186
59.840       228
59.860       171
59.880       171
59.900       171
59.920       228
59.940       186
59.960       200
59.980       171
60.000       129
