20.000         0
20.050         0
20.100         0
20.150         3
20.200         0
20.250         0
20.300         0
20.350         0
20.400         0
20.450         0
20.500         0
20.550         0
20.600         0
20.650         0
20.700         0
20.750         0
20.800         0
20.850         0
20.900       403
20.950       376
21.000       349
21.050       424
21.100       488
21.150       421
21.200       506
21.250       544
21.300       621
21.350       773
21.400       978
21.450      1274
21.500      1698
21.550      1813
21.600      1967
21.650      1434
21.700      1080
21.750       672
21.800       533
21.850       373
21.900       413
21.950       418
22.000       381
22.050       323
22.100       405
22.150       312
22.200       368
22.250       411
22.300       365
22.350       392
22.400       379
22.450       416
22.500       363
22.550       437
22.600       325
22.650       416
22.700       408
22.750       400
22.800       371
22.850       352
22.900       352
22.950       387
23.000       384
23.050       347
23.100       384
23.150       397
23.200       387
23.250       349
23.300       320
23.350       363
23.400       331
23.450       368
23.500       395
23.550       408
23.600       304
23.650       347
23.700       323
23.750       325
23.800       376
23.850       355
23.900       344
23.950       299
24.000       360
24.050       341
24.100       323
24.150       339
24.200       349
24.250       397
24.300       347
24.350       344
24.400       371
24.450       296
24.500       328
24.550       339
24.600       317
24.650       347
24.700       333
24.750       341
24.800       315
24.850       248
24.900       299
24.950       280
25.000       288
25.050       296
25.100       293
25.150       325
25.200       315
25.250       301
25.300       371
25.350       328
25.400       392
25.450       400
25.500       291
25.550       389
25.600       349
25.650       363
25.700       309
25.750       296
25.800       325
25.850       336
25.900       333
25.950       333
26.000       360
26.050       331
26.100       280
26.150       288
26.200       312
26.250       333
26.300       368
26.350       320
26.400       299
26.450       288
26.500       296
26.550       272
26.600       283
26.650       251
26.700       291
26.750       307
26.800       312
26.850       259
26.900       285
26.950       325
27.000       280
27.050       259
27.100       275
27.150       256
27.200       296
27.250       301
27.300       301
27.350       291
27.400       309
27.450       253
27.500       280
27.550       339
27.600       371
27.650       280
27.700       328
27.750       320
27.800       304
27.850       235
27.900       299
27.950       237
28.000       272
28.050       235
28.100       259
28.150       256
28.200       288
28.250       280
28.300       240
28.350       269
28.400       283
28.450       235
28.500       227
28.550       296
28.600       299
28.650       216
28.700       267
28.750       248
28.800       224
28.850       243
28.900       248
28.950       243
29.000       277
29.050       275
29.100       269
29.150       277
29.200       264
29.250       245
29.300       237
29.350       248
29.400       288
29.450       261
29.500       232
29.550       213
29.600       248
29.650       232
29.700       269
29.750       264
29.800       253
29.850       301
29.900       309
29.950       256
30.000       304
30.050       312
30.100       280
30.150       272
30.200       341
30.250       304
30.300       445
30.350       426
30.400       645
30.450       829
30.500      1322
30.550      2061
30.600      3020
30.650      4068
30.700      4742
30.750      4819
30.800      3830
30.850      2250
30.900      1122
30.950       653
31.000       432
31.050       395
31.100       320
31.150       323
31.200       323
31.250       277
31.300       285
31.350       288
31.400       240
31.450       251
31.500       296
31.550       256
31.600       235
31.650       253
31.700       232
31.750       261
31.800       235
31.850       232
31.900       272
31.950       299
32.000       208
32.050       205
32.100       299
32.150       213
32.200       181
32.250       179
32.300       240
32.350       205
32.400       229
32.450       232
32.500       208
32.550       245
32.600       213
32.650       251
32.700       219
32.750       192
32.800       195
32.850       235
32.900       187
32.950       205
33.000       187
33.050       181
33.100       181
33.150       192
33.200       213
33.250       163
33.300       192
33.350       232
33.400       189
33.450       187
33.500       189
33.550       237
33.600       189
33.650       171
33.700       157
33.750       189
33.800       203
33.850       197
33.900       176
33.950       213
34.000       195
34.050       171
34.100       173
34.150       219
34.200       187
34.250       187
34.300       192
34.350       219
34.400       176
34.450       213
34.500       224
34.550       173
34.600       179
34.650       168
34.700       171
34.750       173
34.800       211
34.850       160
34.900       205
34.950       208
35.000       211
35.050       208
35.100       184
35.150       179
35.200       155
35.250       152
35.300       181
35.350       171
35.400       221
35.450       157
35.500       184
35.550       203
35.600       184
35.650       147
35.700       165
35.750       229
35.800       157
35.850       221
35.900       192
35.950       168
36.000       176
36.050       179
36.100       171
36.150       203
36.200       184
36.250       136
36.300       192
36.350       189
36.400       173
36.450       181
36.500       181
36.550       163
36.600       163
36.650       187
36.700       163
36.750       187
36.800       176
36.850       187
36.900       157
36.950       149
37.000       149
37.050       197
37.100       197
37.150       131
37.200       221
37.250       173
37.300       181
37.350       136
37.400       181
37.450       171
37.500       211
37.550       176
37.600       157
37.650       176
37.700       203
37.750       267
37.800       341
37.850       352
37.900       421
37.950       426
38.000       493
38.050       357
38.100       315
38.150       267
38.200       213
38.250       227
38.300       229
38.350       203
38.400       189
38.450       187
38.500       227
38.550       219
38.600       195
38.650       192
38.700       192
38.750       269
38.800       184
38.850       253
38.900       224
38.950       192
39.000       253
39.050       232
39.100       269
39.150       328
39.200       352
39.250       352
39.300       277
39.350       424
39.400       538
39.450       488
39.500       650
39.550       965
39.600      1018
39.650      1232
39.700      1602
39.750      1842
39.800      2087
39.850      2218
39.900      2124
39.950      2029
40.000      1650
40.050      1373
40.100      1069
40.150       845
40.200       613
40.250       490
40.300       458
40.350       355
40.400       328
40.450       301
40.500       269
40.550       261
40.600       264
40.650       240
40.700       240
40.750       264
40.800       243
40.850       251
40.900       248
40.950       245
41.000       221
41.050       205
41.100       221
41.150       227
41.200       187
41.250       171
41.300       176
41.350       219
41.400       179
41.450       213
41.500       213
41.550       205
41.600       187
41.650       216
41.700       229
41.750       189
41.800       235
41.850       232
41.900       203
41.950       192
42.000       248
42.050       179
42.100       237
42.150       203
42.200       267
42.250       261
42.300       245
42.350       328
42.400       344
42.450       288
42.500       341
42.550       352
42.600       341
42.650       395
42.700       376
42.750       368
42.800       395
42.850       371
42.900       373
42.950       411
43.000       442
43.050       389
43.100       418
43.150       442
43.200       573
43.250       533
43.300       626
43.350       658
43.400       717
43.450       917
43.500      1210
43.550      1493
43.600      1975
43.650      2961
43.700      4449
43.750      6971
43.800     11044
43.850     16591
43.900     21874
43.950     25430
44.000     26603
44.050     22354
44.100     16692
44.150     11052
44.200      6147
44.250      3191
44.300      1887
44.350      1367
44.400      1024
44.450       864
44.500       837
44.550       746
44.600       800
44.650       632
44.700       648
44.750       642
44.800       557
44.850       621
44.900       568
44.950       549
45.000       434
45.050       480
45.100       509
45.150       405
45.200       426
45.250       501
45.300       472
45.350       381
45.400       418
45.450       371
45.500       355
45.550       304
45.600       387
45.650       389
45.700       325
45.750       365
45.800       323
45.850       296
45.900       307
45.950       336
46.000       323
46.050       349
46.100       325
46.150       296
46.200       397
46.250       323
46.300       320
46.350       309
46.400       267
46.450       293
46.500       267
46.550       248
46.600       219
46.650       245
46.700       240
46.750       216
46.800       301
46.850       264
46.900       192
46.950       213
47.000       288
47.050       243
47.100       269
47.150       277
47.200       224
47.250       229
47.300       253
47.350       280
47.400       203
47.450       224
47.500       203
47.550       227
47.600       283
47.650       240
47.700       221
47.750       229
47.800       213
47.850       216
47.900       248
47.950       213
48.000       205
48.050       195
48.100       197
48.150       192
48.200       160
48.250       168
48.300       195
48.350       213
48.400       173
48.450       192
48.500       205
48.550       155
48.600       219
48.650       181
48.700       184
48.750       195
48.800       235
48.850       219
48.900       173
48.950       189
49.000       189
49.050       240
49.100       211
49.150       197
49.200       205
49.250       179
49.300       200
49.350       213
49.400       213
49.450       160
49.500       173
49.550       197
49.600       200
49.650       163
49.700       195
49.750       211
49.800       165
49.850       152
49.900       197
49.950       165
50.000       189
50.050       181
50.100       219
50.150       245
50.200       216
50.250       192
50.300       189
50.350       192
50.400       171
50.450       179
50.500       160
50.550       163
50.600       203
50.650       181
50.700       208
50.750       208
50.800       195
50.850       200
50.900       187
50.950       216
51.000       221
51.050       205
51.100       192
51.150       213
51.200       203
51.250       243
51.300       256
51.350       237
51.400       256
51.450       227
51.500       211
51.550       312
51.600       267
51.650       248
51.700       232
51.750       285
51.800       248
51.850       275
51.900       235
51.950       267
52.000       307
52.050       272
52.100       336
52.150       344
52.200       320
52.250       309
52.300       355
52.350       339
52.400       309
52.450       328
52.500       371
52.550       320
52.600       376
52.650       293
52.700       333
52.750       309
52.800       328
52.850       317
52.900       299
52.950       323
53.000       291
53.050       320
53.100       269
53.150       315
53.200       275
53.250       317
53.300       293
53.350       253
53.400       267
53.450       219
53.500       227
53.550       243
53.600       264
53.650       261
53.700       187
53.750       179
53.800       264
53.850       195
53.900       213
53.950       157
54.000       224
54.050       173
54.100       195
54.150       173
54.200       176
54.250       208
54.300       211
54.350       173
54.400       243
54.450       237
54.500       331
54.550       387
54.600       522
54.650       706
54.700       914
54.750       890
54.800       829
54.850       698
54.900       621
54.950       434
55.000       288
55.050       237
55.100       197
55.150       192
55.200       171
55.250       189
55.300       131
55.350       136
55.400       133
55.450       176
55.500       184
55.550       176
55.600       125
55.650       107
55.700       133
55.750       147
55.800       120
55.850       168
55.900       171
55.950       120
56.000       117
56.050       139
56.100       115
56.150       131
56.200        99
56.250       123
56.300       160
56.350       157
56.400       131
56.450       168
56.500       136
56.550       120
56.600       120
56.650        91
56.700       109
56.750       120
56.800       147
56.850       128
56.900       128
56.950       136
57.000        72
57.050       136
57.100       144
57.150       120
57.200       125
57.250       115
57.300       117
57.350        80
57.400       128
57.450       157
57.500       101
57.550       125
57.600        96
57.650       101
57.700       107
57.750       117
57.800       120
57.850       107
57.900        96
57.950       120
58.000        88
58.050        99
58.100       115
58.150       131
58.200       117
58.250        96
58.300       107
58.350       115
58.400       139
58.450       107
58.500       107
58.550       109
58.600        88
58.650       125
58.700       107
58.750        96
58.800        99
58.850        80
58.900       112
58.950        93
59.000        91
59.050        93
59.100       112
59.150       104
59.200        88
59.250       128
59.300       115
59.350       104
59.400        85
59.450        77
59.500       120
59.550        96
59.600       101
59.650       107
59.700       144
59.750        85
59.800       101
59.850       109
59.900       109
59.950        69
60.000       109
