20.000       100
20.010        67
20.020        53
20.030        40
20.040        67
20.050       100
20.060        80
20.070        67
20.080        60
20.090        47
20.100        53
20.110        87
20.120        93
20.130        87
20.140        80
20.150        60
20.160        93
20.170        73
20.180        80
20.190       127
20.200       100
20.210        73
20.220        93
20.230        80
20.240        47
20.250        60
20.260        67
20.270        87
20.280       113
20.290       113
20.300        80
20.310        53
20.320        73
20.330        80
20.340       140
20.350       120
20.360        80
20.370       147
20.380       140
20.390        73
20.400        73
20.410        73
20.420        73
20.430        67
20.440        67
20.450        73
20.460       100
20.470        80
20.480        60
20.490        67
20.500        67
20.510        60
20.520        53
20.530        67
20.540        73
20.550        80
20.560        33
20.570        93
20.580        53
20.590        67
20.600        53
20.610       107
20.620        60
20.630       120
20.640        67
20.650        53
20.660        80
20.670        53
20.680        93
20.690        60
20.700        87
20.710       100
20.720        80
20.730        60
20.740        40
20.750        67
20.760        80
20.770        53
20.780        87
20.790        87
20.800        60
20.810        87
20.820        73
20.830       113
20.840       100
20.850        53
20.860        67
20.870        60
20.880        67
20.890        47
20.900        80
20.910        47
20.920       120
20.930        87
20.940        80
20.950        33
20.960        87
20.970        87
20.980        53
20.990        60
21.000       100
21.010        87
21.020        60
21.030        93
21.040       120
21.050        47
21.060       100
21.070        67
21.080        73
21.090        47
21.100        60
21.110        40
21.120        47
21.130        80
21.140       100
21.150        53
21.160       120
21.170        87
21.180        87
21.190        40
21.200       107
21.210        73
21.220       107
21.230        67
21.240        80
21.250        93
21.260       120
21.270        80
21.280       113
21.290        80
21.300       107
21.310        93
21.320        93
21.330        93
21.340        67
21.350        47
21.360        87
21.370       127
21.380        73
21.390        53
21.400        67
21.410        53
21.420        80
21.430        93
21.440        73
21.450       100
21.460        67
21.470       113
21.480       133
21.490        67
21.500        87
21.510        67
21.520        60
21.530        80
21.540        53
21.550        80
21.560        87
21.570       100
21.580        53
21.590        67
21.600       107
21.610        53
21.620       113
21.630        93
21.640        73
21.650       100
21.660        73
21.670        40
21.680        80
21.690       100
21.700        93
21.710        53
21.720        93
21.730        73
21.740       127
21.750       107
21.760       100
21.770       100
21.780        67
21.790        67
21.800       133
21.810        87
21.820       100
21.830        60
21.840        87
21.850       100
21.860        53
21.870       113
21.880        40
21.890       120
21.900       107
21.910       120
21.920        93
21.930       120
21.940       127
21.950        67
21.960        80
21.970        73
21.980       100
21.990        93
22.000       120
22.010       120
22.020       100
22.030       100
22.040        87
22.050       100
22.060       100
22.070        93
22.080        67
22.090       100
22.100        93
22.110       113
22.120       133
22.130        80
22.140        67
22.150       127
22.160        60
22.170        80
22.180        33
22.190        93
22.200        93
22.210       127
22.220        67
22.230        47
22.240        73
22.250       120
22.260       100
22.270        87
22.280        93
22.290        87
22.300       127
22.310        60
22.320        73
22.330        60
22.340       153
22.350       100
22.360       120
22.370        93
22.380       127
22.390        80
22.400       100
22.410        53
22.420        93
22.430       100
22.440        67
22.450       107
22.460       100
22.470       100
22.480       113
22.490       140
22.500       107
22.510       140
22.520        67
22.530       120
22.540       113
22.550       113
22.560        87
22.570       140
22.580        80
22.590        67
22.600        47
22.610       147
22.620        93
22.630        40
22.640       120
22.650       107
22.660        93
22.670        53
22.680       120
22.690       100
22.700       133
22.710        93
22.720       113
22.730       113
22.740        87
22.750       100
22.760        87
22.770       147
22.780       113
22.790       133
22.800       140
22.810       133
22.820       140
22.830        93
22.840        53
22.850        93
22.860       127
22.870       107
22.880       133
22.890       173
22.900       167
22.910       140
22.920       153
22.930       100
22.940       147
22.950       167
22.960       133
22.970       160
22.980       127
22.990       113
23.000       213
23.010       307
23.020       453
23.030       666
23.040       753
23.050      1040
23.060       846
23.070       933
23.080       986
23.090       933
23.100       706
23.110       453
23.120       280
23.130       240
23.140       200
23.150       187
23.160       173
23.170       187
23.180       153
23.190       107
23.200       220
23.210       180
23.220       173
23.230       153
23.240       140
23.250       107
23.260       167
23.270       133
23.280       120
23.290       133
23.300       153
23.310       140
23.320       133
23.330       133
23.340        87
23.350        93
23.360        87
23.370       147
23.380        93
23.390        87
23.400       113
23.410       147
23.420       127
23.430       133
23.440       127
23.450       147
23.460        93
23.470       133
23.480       173
23.490       153
23.500       153
23.510        93
23.520       160
23.530       147
23.540       127
23.550       100
23.560       187
23.570       100
23.580       167
23.590        87
23.600       120
23.610       133
23.620       127
23.630       107
23.640        93
23.650       100
23.660       120
23.670       147
23.680        87
23.690       140
23.700       107
23.710       127
23.720       140
23.730        80
23.740       107
23.750       120
23.760       120
23.770       160
23.780        60
23.790       173
23.800       140
23.810       113
23.820       153
23.830       180
23.840       140
23.850       160
23.860       127
23.870        93
23.880       167
23.890       133
23.900        87
23.910       107
23.920        87
23.930       120
23.940        93
23.950       153
23.960       100
23.970       147
23.980       120
23.990       127
24.000        93
24.010       153
24.020       107
24.030       140
24.040       120
24.050       140
24.060       113
24.070       100
24.080       153
24.090       113
24.100        73
24.110       133
24.120       107
24.130       113
24.140       113
24.150       120
24.160       100
24.170        53
24.180        87
24.190       140
24.200       120
24.210        93
24.220       113
24.230       127
24.240        87
24.250       120
24.260       140
24.270       153
24.280       133
24.290       113
24.300        87
24.310       167
24.320       140
24.330       147
24.340       120
24.350        80
24.360       133
24.370       140
24.380       107
24.390       100
24.400       120
24.410       120
24.420       193
24.430       133
24.440        80
24.450       147
24.460       107
24.470       120
24.480       193
24.490       133
24.500       140
24.510       160
24.520       100
24.530       133
24.540        73
24.550       133
24.560       153
24.570       187
24.580       167
24.590       120
24.600       173
24.610       140
24.620       187
24.630       160
24.640       147
24.650       187
24.660       227
24.670       320
24.680       300
24.690       240
24.700       433
24.710       380
24.720       506
24.730       513
24.740       500
24.750       606
24.760       446
24.770       426
24.780       466
24.790       460
24.800       446
24.810       540
24.820       486
24.830       513
24.840       433
24.850       420
24.860       566
24.870       466
24.880       533
24.890       493
24.900       486
24.910       606
24.920       486
24.930       433
24.940       546
24.950       553
24.960       466
24.970       407
24.980       580
24.990       640
25.000       546
25.010       407
25.020       393
25.030       486
25.040       486
25.050       560
25.060       626
25.070       620
25.080       400
25.090       533
25.100       526
25.110       520
25.120       513
25.130       586
25.140       446
25.150       520
25.160       573
25.170       653
25.180       573
25.190       533
25.200       613
25.210       486
25.220       486
25.230       620
25.240       633
25.250       613
25.260       706
25.270       633
25.280       633
25.290       693
25.300       793
25.310       753
25.320       953
25.330       906
25.340       993
25.350      1026
25.360      1379
25.370      1713
25.380      2079
25.390      2492
25.400      2899
25.410      3659
25.420      4205
25.430      4931
25.440      5644
25.450      6064
25.460      6631
25.470      7197
25.480      7970
25.490      8283
25.500     10682
25.510     17260
25.520     33427
25.530     57384
25.540     82107
25.550     98567
25.560    107444
25.570    111475
25.580    115094
25.590    113381
25.600    106411
25.610     92030
25.620     77169
25.630     67293
25.640     64847
25.650     62135
25.660     52466
25.670     39198
25.680     23537
25.690     14667
25.700      9963
25.710      8257
25.720      6644
25.730      5578
25.740      5071
25.750      3878
25.760      3545
25.770      3165
25.780      2746
25.790      2459
25.800      1973
25.810      1579
25.820      1419
25.830      1026
25.840       960
25.850       986
25.860       800
25.870       773
25.880       706
25.890       780
25.900       666
25.910       773
25.920       613
25.930       560
25.940       673
25.950       773
25.960       613
25.970       580
25.980       726
25.990       653
26.000       620
26.010       546
26.020       586
26.030       646
26.040       533
26.050       440
26.060       513
26.070       493
26.080       566
26.090       500
26.100       387
26.110       513
26.120       446
26.130       500
26.140       440
26.150       580
26.160       620
26.170       460
26.180       540
26.190       426
26.200       533
26.210       353
26.220       400
26.230       400
26.240       460
26.250       486
26.260       413
26.270       486
26.280       446
26.290       400
26.300       426
26.310       380
26.320       453
26.330       407
26.340       420
26.350       453
26.360       433
26.370       407
26.380       393
26.390       387
26.400       367
26.410       453
26.420       340
26.430       526
26.440       513
26.450       400
26.460       426
26.470       353
26.480       413
26.490       387
26.500       340
26.510       393
26.520       486
26.530       387
26.540       367
26.550       253
26.560       307
26.570       420
26.580       353
26.590       380
26.600       353
26.610       353
26.620       400
26.630       413
26.640       446
26.650       320
26.660       380
26.670       347
26.680       273
26.690       307
26.700       327
26.710       380
26.720       387
26.730       380
26.740       480
26.750       333
26.760       367
26.770       333
26.780       320
26.790       407
26.800       373
26.810       313
26.820       380
26.830       287
26.840       360
26.850       367
26.860       327
26.870       347
26.880       280
26.890       426
26.900       360
26.910       393
26.920       293
26.930       353
26.940       413
26.950       287
26.960       273
26.970       327
26.980       373
26.990       327
27.000       300
27.010       347
27.020       273
27.030       313
27.040       293
27.050       333
27.060       273
27.070       313
27.080       300
27.090       287
27.100       287
27.110       393
27.120       273
27.130       220
27.140       273
27.150       287
27.160       327
27.170       327
27.180       293
27.190       373
27.200       327
27.210       400
27.220       333
27.230       327
27.240       353
27.250       273
27.260       273
27.270       320
27.280       353
27.290       340
27.300       320
27.310       313
27.320       240
27.330       380
27.340       247
27.350       273
27.360       287
27.370       233
27.380       287
27.390       353
27.400       347
27.410       340
27.420       273
27.430       253
27.440       293
27.450       280
27.460       320
27.470       373
27.480       307
27.490       280
27.500       333
27.510       400
27.520       367
27.530       347
27.540       313
27.550       320
27.560       340
27.570       247
27.580       300
27.590       233
27.600       307
27.610       360
27.620       253
27.630       313
27.640       353
27.650       353
27.660       287
27.670       253
27.680       353
27.690       240
27.700       393
27.710       293
27.720       180
27.730       347
27.740       273
27.750       320
27.760       220
27.770       260
27.780       300
27.790       293
27.800       167
27.810       280
27.820       240
27.830       307
27.840       307
27.850       320
27.860       293
27.870       180
27.880       340
27.890       320
27.900       340
27.910       280
27.920       260
27.930       233
27.940       233
27.950       240
27.960       293
27.970       320
27.980       273
27.990       320
28.000       240
28.010       220
28.020       347
28.030       287
28.040       273
28.050       240
28.060       280
28.070       213
28.080       293
28.090       300
28.100       273
28.110       340
28.120       287
28.130       313
28.140       313
28.150       213
28.160       320
28.170       307
28.180       287
28.190       293
28.200       233
28.210       260
28.220       273
28.230       227
28.240       227
28.250       260
28.260       220
28.270       187
28.280       307
28.290       220
28.300       253
28.310       233
28.320       293
28.330       367
28.340       233
28.350       273
28.360       233
28.370       360
28.380       260
28.390       220
28.400       280
28.410       193
28.420       247
28.430       273
28.440       200
28.450       353
28.460       267
28.470       227
28.480       213
28.490       233
28.500       213
28.510       300
28.520       273
28.530       207
28.540       313
28.550       260
28.560       200
28.570       187
28.580       233
28.590       233
28.600       227
28.610       287
28.620       280
28.630       260
28.640       253
28.650       180
28.660       233
28.670       147
28.680       253
28.690       207
28.700       213
28.710       187
28.720       207
28.730       207
28.740       207
28.750       267
28.760       260
28.770       200
28.780       227
28.790       260
28.800       247
28.810       320
28.820       300
28.830       233
28.840       247
28.850       247
28.860       247
28.870       207
28.880       280
28.890       233
28.900       267
28.910       200
28.920       253
28.930       207
28.940       173
28.950       247
28.960       300
28.970       273
28.980       253
28.990       213
29.000       233
29.010       233
29.020       220
29.030       300
29.040       267
29.050       207
29.060       247
29.070       220
29.080       247
29.090       180
29.100       187
29.110       180
29.120       267
29.130       180
29.140       187
29.150       233
29.160       227
29.170       220
29.180       253
29.190       247
29.200       240
29.210       240
29.220       240
29.230       307
29.240       220
29.250       240
29.260       273
29.270       280
29.280       280
29.290       247
29.300       333
29.310       293
29.320       207
29.330       273
29.340       260
29.350       287
29.360       207
29.370       253
29.380       220
29.390       233
29.400       233
29.410       333
29.420       240
29.430       200
29.440       220
29.450       233
29.460       233
29.470       220
29.480       187
29.490       207
29.500       253
29.510       200
29.520       280
29.530       247
29.540       207
29.550       200
29.560       187
29.570       280
29.580       233
29.590       260
29.600       220
29.610       160
29.620       200
29.630       233
29.640       180
29.650       233
29.660       173
29.670       187
29.680       187
29.690       220
29.700       207
29.710       140
29.720       207
29.730       213
29.740       213
29.750       187
29.760       260
29.770       167
29.780       207
29.790       220
29.800       193
29.810       253
29.820       167
29.830       280
29.840       187
29.850       220
29.860       233
29.870       207
29.880       200
29.890       220
29.900       180
29.910       173
29.920       233
29.930       233
29.940       187
29.950       160
29.960       133
29.970       173
29.980       153
29.990       200
30.000       180
30.010       140
30.020       200
30.030       147
30.040       180
30.050       213
30.060       193
30.070       187
30.080       140
30.090       247
30.100       227
30.110       167
30.120       200
30.130       233
30.140       187
30.150       187
30.160       193
30.170       213
30.180       167
30.190       193
30.200       193
30.210       220
30.220       167
30.230       213
30.240       213
30.250       213
30.260       153
30.270       213
30.280       220
30.290       167
30.300       247
30.310       180
30.320       233
30.330       167
30.340       220
30.350       207
30.360       233
30.370       153
30.380       153
30.390       180
30.400       167
30.410       147
30.420       220
30.430       213
30.440       220
30.450       200
30.460       173
30.470       187
30.480       167
30.490       240
30.500       173
30.510       193
30.520       187
30.530       200
30.540       180
30.550       167
30.560       293
30.570       173
30.580       173
30.590       173
30.600       193
30.610       213
30.620       173
30.630       187
30.640       173
30.650       160
30.660       173
30.670       113
30.680       193
30.690       133
30.700       207
30.710       200
30.720       147
30.730       160
30.740       213
30.750       167
30.760       193
30.770       167
30.780       213
30.790       193
30.800       180
30.810       120
30.820       127
30.830       147
30.840       147
30.850       200
30.860       193
30.870       227
30.880       180
30.890       227
30.900       207
30.910       153
30.920       193
30.930       200
30.940       113
30.950       113
30.960       207
30.970       167
30.980       193
30.990       153
31.000       173
31.010       180
31.020       160
31.030       120
31.040       207
31.050       193
31.060       173
31.070       247
31.080       233
31.090       173
31.100       153
31.110       193
31.120       153
31.130       140
31.140       153
31.150       147
31.160       153
31.170       200
31.180       140
31.190       147
31.200       147
31.210       187
31.220       207
31.230       220
31.240       240
31.250       173
31.260       153
31.270       127
31.280       213
31.290       147
31.300       187
31.310       180
31.320       213
31.330       160
31.340       147
31.350       153
31.360       180
31.370       193
31.380       153
31.390       227
31.400       173
31.410       193
31.420       193
31.430       147
31.440       147
31.450       207
31.460       140
31.470       127
31.480       213
31.490       213
31.500       127
31.510       193
31.520       180
31.530       180
31.540       120
31.550       160
31.560       253
31.570       173
31.580       193
31.590       140
31.600       167
31.610       147
31.620       220
31.630       133
31.640       147
31.650       207
31.660       147
31.670       167
31.680       127
31.690       147
31.700       113
31.710       207
31.720       133
31.730       153
31.740       133
31.750       147
31.760       173
31.770        93
31.780       133
31.790       167
31.800       133
31.810       107
31.820       213
31.830       160
31.840       153
31.850        80
31.860       120
31.870       147
31.880       180
31.890        87
31.900       133
31.910       193
31.920       133
31.930       107
31.940       160
31.950       133
31.960       160
31.970       167
31.980       107
31.990       107
32.000       107
32.010       167
32.020       107
32.030       153
32.040       140
32.050        80
32.060       153
32.070       153
32.080       167
32.090       120
32.100       140
32.110       200
32.120       140
32.130       160
32.140       107
32.150       113
32.160       160
32.170       180
32.180       140
32.190       127
32.200       133
32.210       133
32.220       107
32.230       173
32.240       153
32.250        87
32.260       240
32.270       107
32.280       133
32.290       140
32.300       120
32.310       153
32.320       160
32.330       173
32.340       127
32.350       107
32.360       140
32.370       167
32.380       100
32.390       140
32.400       207
32.410       107
32.420       120
32.430        60
32.440       100
32.450       147
32.460       140
32.470       107
32.480       133
32.490       120
32.500        87
32.510       120
32.520       113
32.530       120
32.540       107
32.550       113
32.560       147
32.570       133
32.580       120
32.590       147
32.600       100
32.610       127
32.620       147
32.630       147
32.640       120
32.650       147
32.660        87
32.670        67
32.680        53
32.690       100
32.700       120
32.710       167
32.720       113
32.730       120
32.740       180
32.750       113
32.760        73
32.770       147
32.780       173
32.790       113
32.800       160
32.810       127
32.820        93
32.830       120
32.840       187
32.850       120
32.860       107
32.870       120
32.880       100
32.890        60
32.900        87
32.910       140
32.920       100
32.930       153
32.940        93
32.950       127
32.960       133
32.970        80
32.980        87
32.990        80
33.000       213
33.010       127
33.020       100
33.030       180
33.040       107
33.050       120
33.060       100
33.070       113
33.080       153
33.090       113
33.100       153
33.110       167
33.120       107
33.130       127
33.140       120
33.150       127
33.160       133
33.170       127
33.180       140
33.190       133
33.200        87
33.210       107
33.220       100
33.230        80
33.240       107
33.250       107
33.260       107
33.270        93
33.280        87
33.290       100
33.300        80
33.310       127
33.320        80
33.330        93
33.340       113
33.350       127
33.360       160
33.370        93
33.380       100
33.390       127
33.400        93
33.410        80
33.420       113
33.430        93
33.440        80
33.450       133
33.460        67
33.470       153
33.480       120
33.490        93
33.500        40
33.510        73
33.520        93
33.530        93
33.540        47
33.550        60
33.560        93
33.570        93
33.580       133
33.590       160
33.600       133
33.610        93
33.620       147
33.630       127
33.640       127
33.650        60
33.660       127
33.670        87
33.680       140
33.690       100
33.700        53
33.710        53
33.720        87
33.730        87
33.740       120
33.750       127
33.760        93
33.770       147
33.780       113
33.790       133
33.800        87
33.810        47
33.820       100
33.830       120
33.840       120
33.850        93
33.860        93
33.870        80
33.880        87
33.890        87
33.900       107
33.910       160
33.920        60
33.930       160
33.940       107
33.950        87
33.960       160
33.970       100
33.980        80
33.990       113
34.000        93
34.010       127
34.020        93
34.030       100
34.040       127
34.050        53
34.060        80
34.070       120
34.080        93
34.090        40
34.100        93
34.110        73
34.120        87
34.130       100
34.140        93
34.150        67
34.160        80
34.170       100
34.180        60
34.190       100
34.200        80
34.210       100
34.220       120
34.230       100
34.240        93
34.250        80
34.260        47
34.270        93
34.280       113
34.290        60
34.300        93
34.310        87
34.320       140
34.330        87
34.340        93
34.350       113
34.360       147
34.370        60
34.380       107
34.390        93
34.400       100
34.410       107
34.420        93
34.430       113
34.440       160
34.450       127
34.460        80
34.470        47
34.480       107
34.490        53
34.500       133
34.510       113
34.520        67
34.530       113
34.540       127
34.550       113
34.560        73
34.570        87
34.580        73
34.590        80
34.600        93
34.610        80
34.620        67
34.630        93
34.640        80
34.650        73
34.660        60
34.670        53
34.680       113
34.690        87
34.700       133
34.710        47
34.720       100
34.730       107
34.740        47
34.750        60
34.760       100
34.770       107
34.780        60
34.790        53
34.800       113
34.810        87
34.820       113
34.830       100
34.840        67
34.850       113
34.860       100
34.870        73
34.880        73
34.890       127
34.900        67
34.910        87
34.920       107
34.930       113
34.940        67
34.950        80
34.960       113
34.970        20
34.980       100
34.990        93
35.000        93
35.010       113
35.020        53
35.030        87
35.040       100
35.050       107
35.060        73
35.070       120
35.080        73
35.090       113
35.100        67
35.110        80
35.120        73
35.130       133
35.140        60
35.150        93
35.160        40
35.170        80
35.180        67
35.190        80
35.200       107
35.210        47
35.220       113
35.230        80
35.240        87
35.250       100
35.260        87
35.270       100
35.280        60
35.290        33
35.300        67
35.310       127
35.320        73
35.330        80
35.340       127
35.350        80
35.360        80
35.370       113
35.380        93
35.390       113
35.400        47
35.410        87
35.420        73
35.430        80
35.440        80
35.450        87
35.460       100
35.470        80
35.480       107
35.490        60
35.500       107
35.510       107
35.520        40
35.530        73
35.540        73
35.550        73
35.560       120
35.570        60
35.580       147
35.590        60
35.600        73
35.610       100
35.620        73
35.630        73
35.640        73
35.650        67
35.660       120
35.670        80
35.680       107
35.690        67
35.700        53
35.710       100
35.720       100
35.730       107
35.740        93
35.750       100
35.760        73
35.770        80
35.780        53
35.790        80
35.800        87
35.810        60
35.820        60
35.830       113
35.840       113
35.850        60
35.860       107
35.870        73
35.880        47
35.890        93
35.900       127
35.910       107
35.920        80
35.930        40
35.940        53
35.950       100
35.960        47
35.970        93
35.980        60
35.990        53
36.000        60
36.010        73
36.020        87
36.030        93
36.040       107
36.050        47
36.060        40
36.070        67
36.080        40
36.090        47
36.100        67
36.110        93
36.120        93
36.130        80
36.140        80
36.150        67
36.160        93
36.170        73
36.180        60
36.190        27
36.200        47
36.210        80
36.220        87
36.230        67
36.240       107
36.250        47
36.260        40
36.270        60
36.280       113
36.290        73
36.300        40
36.310        73
36.320        47
36.330        53
36.340        60
36.350        53
36.360        47
36.370        67
36.380        87
36.390        40
36.400        47
36.410        47
36.420       100
36.430        87
36.440        40
36.450       107
36.460        20
36.470        47
36.480        40
36.490        60
36.500        47
36.510        87
36.520        80
36.530        80
36.540        87
36.550        53
36.560        60
36.570        73
36.580        60
36.590        80
36.600        27
36.610        53
36.620        67
36.630        93
36.640        53
36.650        47
36.660        53
36.670        93
36.680        47
36.690        67
36.700        47
36.710        60
36.720        87
36.730        53
36.740        53
36.750        60
36.760       107
36.770        60
36.780        40
36.790        67
36.800        47
36.810        53
36.820        87
36.830        53
36.840        27
36.850        60
36.860        47
36.870        67
36.880       100
36.890       127
36.900        33
36.910        87
36.920        67
36.930        40
36.940        47
36.950        93
36.960        33
36.970        27
36.980        67
36.990        60
37.000        87
37.010        73
37.020        53
37.030        27
37.040        27
37.050        40
37.060        67
37.070        47
37.080        47
37.090        80
37.100        73
37.110        80
37.120        80
37.130        87
37.140        67
37.150       113
37.160        67
37.170        40
37.180        53
37.190        33
37.200        27
37.210        73
37.220        53
37.230        40
37.240        60
37.250        80
37.260        80
37.270        53
37.280        87
37.290        53
37.300        87
37.310        47
37.320        73
37.330        80
37.340        60
37.350        80
37.360        27
37.370        47
37.380        60
37.390        73
37.400        33
37.410        60
37.420       100
37.430        73
37.440        47
37.450        40
37.460        60
37.470        67
37.480        60
37.490        27
37.500        60
37.510        47
37.520        47
37.530        53
37.540        47
37.550        60
37.560        67
37.570        40
37.580        33
37.590        60
37.600        60
37.610        67
37.620        73
37.630        67
37.640        60
37.650        67
37.660        67
37.670        47
37.680        60
37.690        33
37.700        73
37.710        60
37.720        67
37.730        20
37.740        67
37.750        33
37.760        87
37.770        47
37.780        33
37.790        20
37.800        33
37.810        33
37.820        67
37.830        47
37.840        53
37.850        60
37.860        60
37.870        53
37.880        47
37.890        73
37.900        73
37.910        93
37.920        80
37.930        53
37.940        40
37.950        60
37.960        80
37.970        20
37.980        47
37.990        33
38.000        60
38.010        27
38.020        53
38.030        47
38.040        53
38.050        93
38.060        67
38.070        53
38.080        53
38.090        53
38.100        67
38.110        47
38.120        27
38.130       100
38.140        33
38.150        53
38.160        60
38.170        60
38.180        67
38.190        80
38.200        73
38.210        53
38.220        67
38.230        60
38.240        73
38.250        60
38.260        20
38.270        33
38.280        40
38.290        60
38.300        73
38.310        40
38.320        67
38.330        87
38.340        47
38.350        67
38.360        47
38.370        53
38.380        27
38.390        53
38.400        40
38.410        67
38.420        33
38.430        53
38.440        33
38.450        53
38.460        40
38.470        73
38.480        60
38.490        53
38.500        80
38.510        87
38.520        67
38.530        67
38.540        60
38.550        87
38.560        67
38.570       120
38.580        80
38.590        60
38.600        93
38.610       100
38.620        73
38.630       127
38.640       100
38.650       100
38.660        73
38.670       107
38.680       180
38.690       140
38.700       113
38.710       180
38.720       220
38.730       180
38.740       280
38.750       253
38.760       200
38.770       280
38.780       200
38.790       200
38.800       260
38.810       253
38.820       247
38.830       247
38.840       213
38.850       167
38.860       180
38.870       213
38.880       187
38.890       140
38.900       140
38.910       120
38.920       100
38.930       180
38.940       127
38.950       127
38.960       100
38.970        87
38.980        40
38.990        93
39.000       100
39.010        80
39.020        67
39.030        33
39.040        67
39.050        60
39.060       100
39.070        47
39.080        47
39.090        80
39.100        40
39.110        73
39.120        40
39.130        40
39.140        73
39.150        67
39.160        60
39.170        87
39.180       100
39.190        87
39.200        47
39.210        47
39.220        47
39.230        40
39.240        53
39.250       100
39.260        60
39.270        53
39.280        67
39.290        80
39.300        67
39.310        53
39.320        40
39.330        87
39.340        67
39.350        53
39.360       100
39.370        93
39.380        27
39.390        60
39.400       100
39.410        47
39.420        93
39.430        67
39.440        53
39.450        53
39.460        20
39.470        47
39.480        60
39.490        27
39.500        60
39.510        47
39.520        20
39.530        33
39.540        53
39.550        67
39.560        60
39.570        73
39.580        33
39.590        47
39.600        67
39.610        13
39.620        47
39.630        53
39.640        53
39.650        60
39.660        73
39.670        67
39.680        27
39.690        53
39.700        53
39.710        40
39.720        27
39.730        33
39.740        67
39.750        53
39.760        40
39.770        33
39.780        47
39.790        60
39.800        13
39.810        60
39.820        47
39.830        27
39.840        53
39.850        73
39.860        40
39.870        47
39.880        47
39.890        40
39.900        87
39.910        53
39.920        53
39.930        13
39.940        40
39.950        13
39.960        20
39.970        60
39.980        33
39.990         7
40.000        40
40.010        47
40.020        60
40.030        60
40.040        13
40.050        20
40.060        20
40.070        80
40.080        60
40.090        73
40.100        67
40.110        47
40.120        33
40.130        47
40.140         7
40.150        20
40.160        67
40.170         7
40.180        27
40.190        20
40.200        53
40.210        67
40.220        27
40.230        40
40.240        20
40.250        33
40.260        40
40.270        20
40.280        80
40.290        33
40.300        27
40.310        33
40.320        40
40.330        40
40.340        40
40.350        47
40.360        20
40.370        40
40.380        33
40.390        47
40.400        40
40.410        33
40.420        60
40.430        47
40.440        53
40.450        13
40.460        73
40.470        33
40.480        73
40.490        47
40.500        40
40.510        67
40.520        33
40.530        33
40.540        40
40.550        33
40.560        60
40.570        27
40.580        53
40.590        33
40.600        33
40.610        53
40.620        60
40.630        40
40.640        47
40.650        47
40.660        27
40.670        73
40.680        20
40.690        33
40.700        40
40.710        80
40.720        67
40.730        20
40.740        33
40.750        73
40.760        47
40.770        60
40.780        47
40.790        40
40.800        33
40.810        60
40.820        13
40.830        47
40.840        33
40.850        33
40.860        60
40.870        53
40.880        60
40.890        33
40.900        47
40.910        20
40.920        53
40.930        33
40.940        27
40.950        40
40.960        47
40.970        27
40.980        13
40.990        33
41.000        13
41.010        20
41.020        53
41.030        53
41.040        40
41.050        20
41.060        33
41.070        40
41.080        47
41.090        40
41.100        53
41.110        33
41.120        60
41.130        47
41.140        73
41.150        33
41.160        13
41.170        20
41.180        60
41.190        53
41.200        20
41.210        53
41.220        27
41.230        40
41.240        13
41.250        53
41.260        27
41.270        40
41.280        40
41.290        67
41.300        33
41.310        47
41.320        67
41.330        27
41.340        33
41.350        47
41.360        33
41.370        13
41.380        53
41.390        33
41.400        20
41.410        40
41.420        27
41.430        20
41.440        40
41.450        47
41.460        27
41.470        40
41.480        33
41.490        13
41.500        20
41.510        33
41.520        47
41.530        40
41.540        13
41.550         7
41.560        27
41.570        40
41.580        27
41.590        33
41.600        60
41.610        53
41.620        53
41.630         0
41.640        47
41.650        53
41.660        47
41.670        27
41.680        33
41.690        33
41.700         7
41.710        20
41.720        27
41.730        47
41.740        27
41.750        47
41.760        67
41.770        33
41.780        33
41.790        40
41.800        47
41.810        40
41.820        20
41.830        60
41.840        27
41.850        33
41.860        27
41.870        47
41.880        13
41.890        47
41.900        53
41.910        20
41.920        47
41.930        13
41.940        53
41.950        40
41.960        40
41.970        27
41.980        60
41.990        33
42.000        40
42.010        47
42.020        20
42.030        13
42.040        27
42.050        33
42.060        20
42.070        33
42.080        27
42.090        53
42.100        33
42.110        27
42.120        33
42.130        40
42.140        80
42.150        73
42.160        13
42.170        27
42.180        73
42.190        33
42.200        33
42.210        60
42.220        13
42.230        33
42.240        13
42.250        53
42.260        60
42.270        27
42.280        73
42.290        47
42.300        27
42.310        73
42.320        67
42.330        33
42.340        47
42.350        33
42.360        67
42.370        40
42.380        33
42.390        20
42.400        40
42.410        60
42.420        13
42.430        40
42.440        27
42.450        27
42.460        33
42.470        47
42.480        40
42.490        13
42.500        53
42.510        40
42.520        47
42.530        33
42.540        47
42.550        13
42.560        27
42.570        13
42.580         7
42.590        20
42.600        53
42.610        27
42.620        20
42.630        20
42.640        20
42.650         7
42.660        73
42.670        20
42.680        53
42.690        67
42.700        40
42.710        33
42.720        13
42.730         7
42.740        33
42.750        33
42.760        40
42.770        40
42.780        33
42.790        40
42.800        60
42.810        33
42.820        53
42.830        13
42.840        47
42.850        27
42.860        60
42.870        27
42.880        40
42.890         0
42.900        27
42.910        40
42.920        27
42.930        13
42.940        20
42.950        40
42.960        13
42.970        27
42.980        40
42.990        27
43.000        20
43.010        27
43.020        53
43.030        20
43.040        20
43.050        20
43.060        20
43.070        40
43.080        27
43.090        33
43.100        53
43.110        13
43.120        47
43.130        13
43.140        67
43.150        27
43.160        47
43.170        47
43.180        73
43.190        33
43.200        47
43.210        53
43.220        80
43.230        80
43.240        47
43.250        33
43.260        47
43.270        40
43.280        27
43.290        33
43.300        47
43.310        20
43.320        33
43.330        33
43.340        47
43.350        27
43.360        20
43.370        27
43.380        20
43.390        53
43.400        80
43.410        27
43.420        33
43.430        27
43.440        20
43.450        13
43.460        53
43.470        13
43.480        53
43.490        47
43.500        33
43.510        27
43.520        67
43.530        27
43.540        27
43.550        67
43.560        47
43.570        40
43.580        33
43.590        27
43.600        20
43.610        13
43.620        33
43.630        20
43.640        73
43.650        27
43.660        27
43.670        13
43.680        27
43.690        27
43.700        13
43.710        67
43.720        60
43.730        53
43.740        40
43.750        47
43.760        33
43.770        40
43.780        33
43.790        27
43.800        33
43.810        40
43.820        27
43.830        60
43.840        60
43.850        67
43.860        27
43.870        40
43.880        13
43.890        33
43.900        13
43.910        27
43.920        40
43.930        20
43.940        47
43.950        13
43.960        47
43.970        40
43.980        20
43.990        47
44.000         7
44.010        53
44.020        33
44.030        40
44.040        13
44.050        40
44.060        40
44.070        60
44.080        53
44.090        47
44.100        33
44.110        33
44.120        53
44.130        47
44.140        47
44.150        40
44.160        27
44.170        40
44.180        47
44.190        33
44.200        20
44.210        40
44.220        27
44.230        67
44.240        40
44.250        27
44.260        40
44.270        33
44.280        60
44.290        40
44.300        27
44.310        20
44.320        53
44.330        60
44.340        80
44.350        13
44.360        47
44.370        40
44.380        27
44.390        47
44.400        20
44.410        33
44.420        40
44.430        47
44.440        40
44.450        27
44.460        40
44.470        40
44.480        67
44.490        27
44.500        40
44.510        13
44.520        13
44.530        47
44.540        47
44.550        27
44.560        27
44.570        53
44.580        27
44.590        53
44.600        73
44.610        67
44.620        20
44.630        73
44.640        47
44.650        47
44.660        53
44.670        53
44.680        33
44.690        53
44.700        33
44.710        53
44.720        40
44.730        80
44.740        33
44.750        87
44.760        47
44.770        67
44.780        93
44.790        40
44.800        27
44.810        40
44.820        73
44.830        87
44.840        60
44.850        60
44.860        53
44.870       133
44.880        87
44.890        40
44.900        27
44.910        67
44.920        40
44.930        80
44.940        73
44.950        67
44.960        67
44.970        47
44.980        40
44.990        53
45.000        40
45.010        33
45.020        33
45.030        40
45.040        47
45.050        27
45.060        47
45.070        47
45.080        47
45.090        67
45.100        33
45.110        47
45.120        80
45.130        40
45.140        47
45.150        60
45.160        40
45.170        13
45.180        20
45.190         7
45.200        40
45.210        27
45.220        27
45.230        67
45.240        87
45.250        40
45.260        27
45.270         7
45.280        33
45.290         7
45.300        27
45.310        20
45.320        47
45.330        27
45.340        20
45.350        47
45.360        20
45.370        27
45.380        60
45.390        47
45.400        47
45.410        47
45.420        80
45.430        27
45.440        27
45.450        27
45.460        33
45.470        13
45.480        20
45.490        60
45.500        33
45.510        40
45.520        20
45.530        13
45.540        53
45.550        27
45.560        40
45.570        60
45.580        20
45.590        53
45.600        53
45.610        33
45.620        40
45.630        13
45.640        20
45.650         7
45.660        53
45.670         7
45.680        33
45.690        20
45.700        40
45.710        33
45.720        27
45.730        40
45.740        20
45.750        60
45.760        27
45.770        13
45.780        33
45.790        27
45.800        33
45.810        40
45.820        20
45.830        27
45.840        27
45.850        13
45.860        13
45.870        47
45.880        13
45.890        27
45.900        27
45.910        20
45.920        27
45.930         7
45.940        47
45.950        40
45.960        27
45.970        20
45.980        33
45.990        20
46.000        40
46.010        47
46.020        47
46.030        27
46.040        13
46.050         7
46.060        53
46.070        40
46.080        20
46.090        33
46.100        13
46.110         7
46.120        27
46.130        33
46.140        87
46.150        13
46.160        27
46.170        13
46.180        33
46.190        27
46.200        20
46.210        40
46.220         7
46.230        40
46.240        27
46.250        40
46.260        53
46.270        33
46.280        40
46.290        53
46.300        27
46.310        53
46.320        47
46.330        27
46.340        47
46.350        20
46.360        20
46.370        27
46.380        33
46.390        40
46.400        53
46.410        47
46.420        40
46.430        20
46.440        13
46.450        20
46.460        20
46.470        20
46.480        27
46.490        60
46.500        33
46.510        20
46.520        27
46.530        47
46.540        33
46.550        13
46.560        53
46.570        60
46.580        67
46.590        27
46.600        47
46.610        27
46.620        40
46.630        73
46.640        60
46.650        40
46.660        60
46.670        40
46.680        33
46.690        13
46.700        40
46.710        53
46.720        47
46.730        47
46.740        27
46.750        67
46.760        93
46.770        60
46.780        67
46.790       100
46.800        67
46.810        80
46.820        73
46.830        47
46.840        60
46.850        60
46.860        47
46.870       100
46.880        40
46.890        60
46.900        80
46.910        33
46.920        93
46.930        47
46.940       100
46.950        53
46.960        47
46.970        33
46.980        60
46.990        53
47.000       107
47.010        87
47.020       107
47.030        87
47.040        93
47.050       133
47.060       133
47.070        40
47.080       113
47.090       173
47.100       173
47.110       187
47.120       260
47.130       413
47.140       493
47.150       586
47.160       900
47.170       886
47.180      1086
47.190      1006
47.200       786
47.210       833
47.220       666
47.230       493
47.240       407
47.250       333
47.260       307
47.270       220
47.280       147
47.290       127
47.300       113
47.310       120
47.320       153
47.330        87
47.340        93
47.350        60
47.360        93
47.370        67
47.380        93
47.390       113
47.400        60
47.410       107
47.420       107
47.430        87
47.440        60
47.450        80
47.460        80
47.470        60
47.480        53
47.490        47
47.500        33
47.510        80
47.520        47
47.530        47
47.540        27
47.550        53
47.560        53
47.570       100
47.580        93
47.590        93
47.600        87
47.610        47
47.620       107
47.630        40
47.640        60
47.650        53
47.660        53
47.670        53
47.680        73
47.690        40
47.700        73
47.710        47
47.720        33
47.730        60
47.740        33
47.750        33
47.760        60
47.770        67
47.780        60
47.790        20
47.800        53
47.810        60
47.820        60
47.830        20
47.840        53
47.850        20
47.860        40
47.870        53
47.880        53
47.890        47
47.900        60
47.910        47
47.920        20
47.930        27
47.940        53
47.950        40
47.960        33
47.970        20
47.980        47
47.990        33
48.000        33
48.010        40
48.020        40
48.030        33
48.040        53
48.050        47
48.060        20
48.070        27
48.080        47
48.090        33
48.100        33
48.110        47
48.120        27
48.130        20
48.140        13
48.150        40
48.160        40
48.170        27
48.180        20
48.190        27
48.200        80
48.210        47
48.220        53
48.230        53
48.240        47
48.250        47
48.260        60
48.270        33
48.280        60
48.290        53
48.300        40
48.310        20
48.320        60
48.330        20
48.340        27
48.350        53
48.360        60
48.370        33
48.380        33
48.390        27
48.400        47
48.410        40
48.420        73
48.430        47
48.440        93
48.450        47
48.460        67
48.470        27
48.480        47
48.490        27
48.500        33
48.510        60
48.520        53
48.530        40
48.540        20
48.550        67
48.560        47
48.570        33
48.580         0
48.590        40
48.600        53
48.610        13
48.620        27
48.630        20
48.640        33
48.650        13
48.660        33
48.670        33
48.680        27
48.690        47
48.700        33
48.710        60
48.720        27
48.730        13
48.740        33
48.750        27
48.760        40
48.770        27
48.780        47
48.790        47
48.800        20
48.810        27
48.820        47
48.830        47
48.840        40
48.850        33
48.860        47
48.870        27
48.880        40
48.890        40
48.900        47
48.910        13
48.920        13
48.930        40
48.940        33
48.950        47
48.960        13
48.970        13
48.980        40
48.990        40
49.000        67
49.010         7
49.020        80
49.030        13
49.040        20
49.050        33
49.060        33
49.070         7
49.080        33
49.090        67
49.100        47
49.110        53
49.120        40
49.130        40
49.140        47
49.150        13
49.160        40
49.170        40
49.180        47
49.190        13
49.200        47
49.210        27
49.220        20
49.230        20
49.240        13
49.250        67
49.260         7
49.270        27
49.280        40
49.290        27
49.300        27
49.310        33
49.320        33
49.330        20
49.340        20
49.350        33
49.360        47
49.370        20
49.380        40
49.390        33
49.400        60
49.410        73
49.420        33
49.430        33
49.440        20
49.450        20
49.460        47
49.470        73
49.480        47
49.490        67
49.500        33
49.510        27
49.520        20
49.530        13
49.540        27
49.550        13
49.560        53
49.570        27
49.580        67
49.590        27
49.600        40
49.610        13
49.620        40
49.630        33
49.640        47
49.650        33
49.660        20
49.670        53
49.680        13
49.690        47
49.700        40
49.710        20
49.720         7
49.730        53
49.740        20
49.750        27
49.760        27
49.770        33
49.780        47
49.790        20
49.800        40
49.810        13
49.820        40
49.830        40
49.840        40
49.850        40
49.860        73
49.870        13
49.880        40
49.890        27
49.900        33
49.910        27
49.920        20
49.930        40
49.940        27
49.950        53
49.960        40
49.970        53
49.980        27
49.990         7
50.000        47
50.010        20
50.020        27
50.030        60
50.040        13
50.050        40
50.060        47
50.070        27
50.080        33
50.090        47
50.100        53
50.110         7
50.120        60
50.130        47
50.140        33
50.150        47
50.160        33
50.170        47
50.180        47
50.190        27
50.200        53
50.210        33
50.220        40
50.230        40
50.240        40
50.250        60
50.260        60
50.270        47
50.280        20
50.290        47
50.300        73
50.310        40
50.320        13
50.330        33
50.340        33
50.350        80
50.360        27
50.370        40
50.380        40
50.390        47
50.400        27
50.410        40
50.420        47
50.430        33
50.440        53
50.450        13
50.460        33
50.470        27
50.480        33
50.490        33
50.500        27
50.510        27
50.520        33
50.530        47
50.540        20
50.550        73
50.560        33
50.570        33
50.580        53
50.590        80
50.600       127
50.610        47
50.620        53
50.630       107
50.640        93
50.650       153
50.660       133
50.670       160
50.680       153
50.690       160
50.700       227
50.710       247
50.720       213
50.730       300
50.740       220
50.750       267
50.760       280
50.770       180
50.780       200
50.790       267
50.800       300
50.810       300
50.820       227
50.830       193
50.840       260
50.850       280
50.860       253
50.870       340
50.880       300
50.890       360
50.900       293
50.910       320
50.920       213
50.930       227
50.940       260
50.950       273
50.960       247
50.970       287
50.980       247
50.990       173
51.000       280
51.010       280
51.020       220
51.030       227
51.040       240
51.050       287
51.060       220
51.070       300
51.080       353
51.090       200
51.100       273
51.110       180
51.120       187
51.130       293
51.140       200
51.150       260
51.160       300
51.170       287
51.180       267
51.190       287
51.200       327
51.210       260
51.220       367
51.230       200
51.240       233
51.250       307
51.260       253
51.270       227
51.280       220
51.290       193
51.300       307
51.310       247
51.320       300
51.330       213
51.340       253
51.350       280
51.360       247
51.370       273
51.380       293
51.390       260
51.400       247
51.410       307
51.420       273
51.430       247
51.440       327
51.450       200
51.460       240
51.470       247
51.480       207
51.490       240
51.500       333
51.510       333
51.520       333
51.530       287
51.540       293
51.550       247
51.560       320
51.570       253
51.580       300
51.590       333
51.600       300
51.610       267
51.620       327
51.630       333
51.640       313
51.650       227
51.660       287
51.670       347
51.680       313
51.690       280
51.700       267
51.710       353
51.720       340
51.730       307
51.740       307
51.750       267
51.760       247
51.770       307
51.780       400
51.790       213
51.800       300
51.810       353
51.820       340
51.830       300
51.840       307
51.850       333
51.860       360
51.870       293
51.880       360
51.890       253
51.900       367
51.910       353
51.920       407
51.930       433
51.940       360
51.950       333
51.960       393
51.970       413
51.980       367
51.990       426
52.000       433
52.010       367
52.020       433
52.030       327
52.040       393
52.050       446
52.060       420
52.070       440
52.080       433
52.090       433
52.100       533
52.110       446
52.120       506
52.130       446
52.140       500
52.150       673
52.160       646
52.170       533
52.180       580
52.190       646
52.200       573
52.210       666
52.220       820
52.230       866
52.240       766
52.250       980
52.260       960
52.270       973
52.280      1066
52.290      1453
52.300      1573
52.310      1439
52.320      2073
52.330      1673
52.340      2126
52.350      2272
52.360      2379
52.370      2719
52.380      2866
52.390      2925
52.400      3219
52.410      3692
52.420      4132
52.430      4665
52.440      5111
52.450      5831
52.460      6384
52.470      7137
52.480      7504
52.490      8970
52.500     10876
52.510     13148
52.520     16940
52.530     27522
52.540     46162
52.550     70065
52.560     93709
52.570    111622
52.580    121898
52.590    127136
52.600    124877
52.610    115620
52.620     97641
52.630     72025
52.640     49314
52.650     34200
52.660     26509
52.670     26776
52.680     32227
52.690     43396
52.700     54605
52.710     64587
52.720     70059
52.730     71798
52.740     70652
52.750     65800
52.760     53679
52.770     39024
52.780     25996
52.790     16753
52.800     11189
52.810      8203
52.820      6597
52.830      5831
52.840      4958
52.850      4698
52.860      4292
52.870      3739
52.880      3372
52.890      2732
52.900      2839
52.910      2306
52.920      1793
52.930      1413
52.940      1579
52.950      1240
52.960      1246
52.970       960
52.980       886
52.990       893
53.000       940
53.010       800
53.020       673
53.030       820
53.040       753
53.050       926
53.060       673
53.070       666
53.080       473
53.090       713
53.100       566
53.110       653
53.120       600
53.130       526
53.140       466
53.150       546
53.160       653
53.170       546
53.180       446
53.190       526
53.200       500
53.210       380
53.220       620
53.230       480
53.240       420
53.250       393
53.260       473
53.270       453
53.280       513
53.290       426
53.300       466
53.310       280
53.320       433
53.330       367
53.340       440
53.350       387
53.360       407
53.370       420
53.380       433
53.390       333
53.400       400
53.410       340
53.420       300
53.430       440
53.440       393
53.450       393
53.460       280
53.470       347
53.480       327
53.490       320
53.500       320
53.510       273
53.520       307
53.530       353
53.540       407
53.550       247
53.560       333
53.570       327
53.580       260
53.590       333
53.600       213
53.610       327
53.620       273
53.630       360
53.640       393
53.650       367
53.660       253
53.670       407
53.680       247
53.690       280
53.700       247
53.710       340
53.720       293
53.730       193
53.740       300
53.750       247
53.760       273
53.770       207
53.780       273
53.790       253
53.800       307
53.810       233
53.820       240
53.830       253
53.840       240
53.850       320
53.860       273
53.870       220
53.880       247
53.890       307
53.900       340
53.910       180
53.920       207
53.930       213
53.940       173
53.950       207
53.960       240
53.970       293
53.980       207
53.990       213
54.000       167
54.010       240
54.020       227
54.030       267
54.040       273
54.050       273
54.060       247
54.070       207
54.080       180
54.090       260
54.100       273
54.110       233
54.120       267
54.130       147
54.140       273
54.150       200
54.160       267
54.170       213
54.180       240
54.190       193
54.200       227
54.210       193
54.220       227
54.230       233
54.240       167
54.250       200
54.260       240
54.270       193
54.280       213
54.290       207
54.300       207
54.310       267
54.320       140
54.330       193
54.340       200
54.350       173
54.360       220
54.370       260
54.380       140
54.390       180
54.400       247
54.410       273
54.420       247
54.430       207
54.440       220
54.450       200
54.460       160
54.470       120
54.480       213
54.490       213
54.500       207
54.510       153
54.520       120
54.530       213
54.540       233
54.550       167
54.560       180
54.570       200
54.580       207
54.590       253
54.600       153
54.610       180
54.620       167
54.630       227
54.640       213
54.650       260
54.660       220
54.670       193
54.680       173
54.690       260
54.700       233
54.710       153
54.720       200
54.730       187
54.740       207
54.750       193
54.760       200
54.770       167
54.780       200
54.790       187
54.800       180
54.810       207
54.820       233
54.830       140
54.840       127
54.850       120
54.860       153
54.870       127
54.880       293
54.890       187
54.900       200
54.910        67
54.920       180
54.930       193
54.940       140
54.950       153
54.960       153
54.970       220
54.980       180
54.990       160
55.000       140
55.010       173
55.020       193
55.030       213
55.040       173
55.050       200
55.060       167
55.070       147
55.080       140
55.090       140
55.100       140
55.110       193
55.120       160
55.130       147
55.140       153
55.150       107
55.160       200
55.170       187
55.180       180
55.190       160
55.200       207
55.210       173
55.220       140
55.230       180
55.240       160
55.250       113
55.260       173
55.270       147
55.280       153
55.290       133
55.300       133
55.310       233
55.320       160
55.330       207
55.340        80
55.350       113
55.360       167
55.370       140
55.380       193
55.390       147
55.400       180
55.410       167
55.420       147
55.430       187
55.440       133
55.450       153
55.460       220
55.470       207
55.480       233
55.490       153
55.500        93
55.510       153
55.520       160
55.530       147
55.540       187
55.550       153
55.560       167
55.570       227
55.580       200
55.590       187
55.600       107
55.610       120
55.620       133
55.630       120
55.640       133
55.650       187
55.660       167
55.670       207
55.680       140
55.690       173
55.700       220
55.710       160
55.720       153
55.730       180
55.740       147
55.750       153
55.760       160
55.770       147
55.780       200
55.790       187
55.800       200
55.810       193
55.820       147
55.830       220
55.840       147
55.850       213
55.860       187
55.870       187
55.880       140
55.890       160
55.900       193
55.910       173
55.920       133
55.930       220
55.940       207
55.950       147
55.960       220
55.970       173
55.980       200
55.990       173
56.000       147
56.010       187
56.020       160
56.030       187
56.040       200
56.050       173
56.060       193
56.070       167
56.080       200
56.090       180
56.100       133
56.110       180
56.120       180
56.130       160
56.140       153
56.150       253
56.160       147
56.170       133
56.180       213
56.190       133
56.200       193
56.210       193
56.220       153
56.230       180
56.240       187
56.250       233
56.260       153
56.270       200
56.280       113
56.290       140
56.300       133
56.310       160
56.320       120
56.330       127
56.340       120
56.350       127
56.360       153
56.370       153
56.380       120
56.390       133
56.400       160
56.410       140
56.420       213
56.430       160
56.440       140
56.450       133
56.460       173
56.470       187
56.480       193
56.490       207
56.500       153
56.510       133
56.520       113
56.530       140
56.540        93
56.550       173
56.560        93
56.570       160
56.580       127
56.590       120
56.600        93
56.610       127
56.620       167
56.630        93
56.640       133
56.650       133
56.660       147
56.670       180
56.680       127
56.690       133
56.700       160
56.710       120
56.720       140
56.730       193
56.740        47
56.750       180
56.760       127
56.770       100
56.780       140
56.790       153
56.800        93
56.810       133
56.820       140
56.830       127
56.840       120
56.850       147
56.860        87
56.870       127
56.880       153
56.890       167
56.900       113
56.910       107
56.920       133
56.930       127
56.940       153
56.950       147
56.960       140
56.970        87
56.980       133
56.990       140
57.000       100
57.010       147
57.020       113
57.030        87
57.040       107
57.050       120
57.060       140
57.070       113
57.080       200
57.090       100
57.100       153
57.110       140
57.120       107
57.130       140
57.140       100
57.150        87
57.160        93
57.170       120
57.180       180
57.190       120
57.200        87
57.210       113
57.220       140
57.230       147
57.240       173
57.250       107
57.260       127
57.270       140
57.280       107
57.290       113
57.300       127
57.310       107
57.320       200
57.330       153
57.340       107
57.350        93
57.360       140
57.370       140
57.380       133
57.390       107
57.400       120
57.410       160
57.420       160
57.430       120
57.440       140
57.450       127
57.460       153
57.470       127
57.480       133
57.490       147
57.500       107
57.510        93
57.520       127
57.530       147
57.540       107
57.550       133
57.560       107
57.570       180
57.580       107
57.590       127
57.600       100
57.610       100
57.620       173
57.630       167
57.640       120
57.650       153
57.660       100
57.670        67
57.680       127
57.690        87
57.700       107
57.710       113
57.720       187
57.730        73
57.740       113
57.750        87
57.760       120
57.770        80
57.780       120
57.790        47
57.800       107
57.810       200
57.820        73
57.830       147
57.840       160
57.850       100
57.860       153
57.870        93
57.880        87
57.890        93
57.900       100
57.910       167
57.920       133
57.930        80
57.940       120
57.950       133
57.960       107
57.970        60
57.980       100
57.990       113
58.000       113
58.010       107
58.020       147
58.030        80
58.040        53
58.050        73
58.060       113
58.070       133
58.080       107
58.090       140
58.100       107
58.110       120
58.120       167
58.130        73
58.140        80
58.150       120
58.160       100
58.170       160
58.180       140
58.190       127
58.200        73
58.210       100
58.220       120
58.230        93
58.240       133
58.250       100
58.260        87
58.270       107
58.280       133
58.290        80
58.300       107
58.310       133
58.320       133
58.330        93
58.340       107
58.350        87
58.360       127
58.370       113
58.380        93
58.390        93
58.400        93
58.410       120
58.420        80
58.430       100
58.440        93
58.450       140
58.460       127
58.470       147
58.480        87
58.490        53
58.500        67
58.510       120
58.520       133
58.530       107
58.540        67
58.550       113
58.560        53
58.570       133
58.580        80
58.590       107
58.600        87
58.610       160
58.620        80
58.630       160
58.640       107
58.650       113
58.660       140
58.670        67
58.680       100
58.690       147
58.700       113
58.710       120
58.720       100
58.730       133
58.740       100
58.750        93
58.760        93
58.770        67
58.780        87
58.790        80
58.800       133
58.810        87
58.820        60
58.830        87
58.840       113
58.850        80
58.860        53
58.870       127
58.880       127
58.890        80
58.900        80
58.910       120
58.920       140
58.930        80
58.940       120
58.950       147
58.960        87
58.970        73
58.980        80
58.990       100
59.000       113
59.010        87
59.020        93
59.030       147
59.040        80
59.050       107
59.060       113
59.070        93
59.080        87
59.090        53
59.100       127
59.110        73
59.120        73
59.130        80
59.140       120
59.150       147
59.160       127
59.170       107
59.180        80
59.190        87
59.200        67
59.210        87
59.220       113
59.230       113
59.240       113
59.250        67
59.260        80
59.270       120
59.280       100
59.290        80
59.300        73
59.310        87
59.320        87
59.330       107
59.340        87
59.350       107
59.360        80
59.370        87
59.380        93
59.390        40
59.400       140
59.410       107
59.420       107
59.430        80
59.440       133
59.450        67
59.460       113
59.470        73
59.480        73
59.490       120
59.500        93
59.510       107
59.520        93
59.530        60
59.540        73
59.550        80
59.560        93
59.570        60
59.580        87
59.590       107
59.600        73
59.610        93
59.620        93
59.630        67
59.640       100
59.650        67
59.660       100
59.670        73
59.680       100
59.690       133
59.700       113
59.710       127
59.720        67
59.730       107
59.740        93
59.750       113
59.760       100
59.770        67
59.780        67
59.790        80
59.800        87
59.810        87
59.820        73
59.830        60
59.840       107
59.850       100
59.860       107
59.870        53
59.880       100
59.890       133
59.900       113
59.910        67
59.920        87
59.930        60
59.940        47
59.950       160
59.960       107
59.970       113
59.980        73
59.990        60
60.000        60
