20.000         0
20.020         0
20.040         0
20.060         3
20.080         0
20.100         0
20.120         0
20.140         0
20.160         0
20.180         0
20.200         0
20.220         3
20.240         0
20.260         0
20.280         0
20.300         0
20.320         0
20.340         0
20.360       263
20.380       623
20.400       666
20.420       660
20.440       666
20.460       680
20.480       590
20.500       713
20.520       570
20.540       733
20.560       680
20.580       650
20.600       693
20.620       740
20.640       646
20.660       750
20.680       716
20.700       710
20.720       683
20.740       693
20.760       610
20.780       683
20.800       746
20.820       666
20.840       713
20.860       680
20.880       670
20.900       723
20.920       613
20.940       706
20.960       663
20.980       640
21.000       646
21.020       680
21.040       733
21.060       663
21.080       690
21.100       700
21.120       633
21.140       650
21.160       696
21.180       756
21.200       696
21.220       666
21.240       633
21.260       703
21.280       696
21.300       640
21.320       656
21.340       650
21.360       773
21.380       746
21.400       770
21.420       736
21.440       783
21.460       780
21.480       926
21.500       896
21.520       943
21.540       743
21.560       750
21.580       770
21.600       690
21.620       700
21.640       670
21.660       630
21.680       620
21.700       546
21.720       616
21.740       610
21.760       580
21.780       516
21.800       600
21.820       666
21.840       646
21.860       580
21.880       543
21.900       573
21.920       640
21.940       673
21.960       666
21.980       576
22.000       580
22.020       666
22.040       596
22.060       623
22.080       603
22.100       566
22.120       656
22.140       590
22.160       590
22.180       480
22.200       566
22.220       516
22.240       530
22.260       490
22.280       613
22.300       510
22.320       583
22.340       560
22.360       536
22.380       640
22.400       596
22.420       580
22.440       606
22.460       626
22.480       523
22.500       540
22.520       500
22.540       573
22.560       523
22.580       586
22.600       586
22.620       543
22.640       566
22.660       533
22.680       510
22.700       570
22.720       576
22.740       626
22.760       560
22.780       593
22.800       546
22.820       520
22.840       570
22.860       570
22.880       620
22.900       600
22.920       600
22.940       610
22.960       606
22.980       460
23.000       536
23.020       610
23.040       466
23.060       530
23.080       563
23.100       516
23.120       563
23.140       570
23.160       526
23.180       506
23.200       566
23.220       496
23.240       530
23.260       470
23.280       520
23.300       496
23.320       550
23.340       486
23.360       520
23.380       553
23.400       523
23.420       483
23.440       553
23.460       526
23.480       516
23.500       540
23.520       643
23.540       413
23.560       453
23.580       526
23.600       530
23.620       503
23.640       556
23.660       493
23.680       506
23.700       533
23.720       446
23.740       496
23.760       503
23.780       543
23.800       473
23.820       553
23.840       520
23.860       523
23.880       506
23.900       503
23.920       563
23.940       506
23.960       490
23.980       570
24.000       397
24.020       440
24.040       443
24.060       523
24.080       450
24.100       520
24.120       430
24.140       496
24.160       433
24.180       546
24.200       506
24.220       513
24.240       506
24.260       520
24.280       523
24.300       493
24.320       450
24.340       463
24.360       566
24.380       586
24.400       523
24.420       446
24.440       490
24.460       556
24.480       533
24.500       460
24.520       503
24.540       420
24.560       526
24.580       556
24.600       620
24.620       480
24.640       623
24.660       526
24.680       550
24.700       523
24.720       480
24.740       423
24.760       493
24.780       417
24.800       516
24.820       503
24.840       516
24.860       560
24.880       480
24.900       456
24.920       440
24.940       466
24.960       480
24.980       430
25.000       430
25.020       480
25.040       456
25.060       407
25.080       500
25.100       470
25.120       516
25.140       417
25.160       443
25.180       440
25.200       480
25.220       470
25.240       450
25.260       476
25.280       426
25.300       490
25.320       480
25.340       450
25.360       423
25.380       460
25.400       407
25.420       456
25.440       463
25.460       443
25.480       436
25.500       430
25.520       486
25.540       493
25.560       380
25.580       426
25.600       393
25.620       430
25.640       436
25.660       486
25.680       426
25.700       413
25.720       526
25.740       403
25.760       357
25.780       440
25.800       397
25.820       480
25.840       423
25.860       403
25.880       413
25.900       506
25.920       436
25.940       460
25.960       446
25.980       357
26.000       423
26.020       480
26.040       453
26.060       413
26.080       380
26.100       450
26.120       456
26.140       417
26.160       403
26.180       393
26.200       436
26.220       377
26.240       420
26.260       480
26.280       460
26.300       397
26.320       426
26.340       460
26.360       426
26.380       446
26.400       480
26.420       407
26.440       393
26.460       343
26.480       363
26.500       370
26.520       377
26.540       420
26.560       403
26.580       387
26.600       417
26.620       443
26.640       400
26.660       436
26.680       483
26.700       450
26.720       390
26.740       420
26.760       413
26.780       407
26.800       410
26.820       410
26.840       423
26.860       403
26.880       463
26.900       423
26.920       400
26.940       420
26.960       470
26.980       390
27.000       456
27.020       400
27.040       460
27.060       400
27.080       403
27.100       443
27.120       436
27.140       466
27.160       393
27.180       436
27.200       400
27.220       420
27.240       370
27.260       473
27.280       440
27.300       373
27.320       403
27.340       453
27.360       436
27.380       373
27.400       367
27.420       436
27.440       466
27.460       403
27.480       436
27.500       473
27.520       407
27.540       397
27.560       360
27.580       393
27.600       380
27.620       420
27.640       430
27.660       387
27.680       493
27.700       393
27.720       387
27.740       393
27.760       430
27.780       403
27.800       387
27.820       333
27.840       400
27.860       370
27.880       413
27.900       403
27.920       410
27.940       403
27.960       490
27.980       436
28.000       420
28.020       387
28.040       387
28.060       403
28.080       430
28.100       387
28.120       357
28.140       357
28.160       430
28.180       423
28.200       443
28.220       440
28.240       390
28.260       430
28.280       380
28.300       440
28.320       403
28.340       417
28.360       347
28.380       397
28.400       460
28.420       483
28.440       350
28.460       387
28.480       426
28.500       383
28.520       380
28.540       403
28.560       423
28.580       476
28.600       373
28.620       500
28.640       380
28.660       420
28.680       463
28.700       377
28.720       370
28.740       413
28.760       423
28.780       440
28.800       370
28.820       470
28.840       450
28.860       523
28.880       466
28.900       470
28.920       483
28.940       446
28.960       500
28.980       523
29.000       486
29.020       506
29.040       516
29.060       543
29.080       563
29.100       696
29.120       643
29.140       716
29.160       780
29.180       793
29.200       696
29.220       763
29.240       683
29.260       593
29.280       523
29.300       526
29.320       470
29.340       506
29.360       463
29.380       397
29.400       383
29.420       410
29.440       456
29.460       413
29.480       390
29.500       403
29.520       407
29.540       393
29.560       420
29.580       430
29.600       433
29.620       347
29.640       377
29.660       450
29.680       410
29.700       403
29.720       400
29.740       410
29.760       397
29.780       433
29.800       367
29.820       417
29.840       393
29.860       423
29.880       400
29.900       407
29.920       383
29.940       433
29.960       357
29.980       337
30.000       436
30.020       436
30.040       407
30.060       343
30.080       393
30.100       360
30.120       463
30.140       440
30.160       500
30.180       456
30.200       510
30.220       453
30.240       530
30.260       546
30.280       560
30.300       626
30.320       723
30.340       800
30.360       913
30.380      1010
30.400      1176
30.420      1459
30.440      1669
30.460      1809
30.480      2136
30.500      2316
30.520      2792
30.540      3255
30.560      3645
30.580      3679
30.600      3868
30.620      3998
30.640      4265
30.660      4012
30.680      3705
30.700      3562
30.720      3065
30.740      2892
30.760      2382
30.780      2119
30.800      1609
30.820      1263
30.840      1050
30.860       806
30.880       743
30.900       656
30.920       546
30.940       526
30.960       530
30.980       456
31.000       526
31.020       466
31.040       460
31.060       476
31.080       453
31.100       426
31.120       436
31.140       433
31.160       443
31.180       337
31.200       417
31.220       496
31.240       443
31.260       400
31.280       377
31.300       390
31.320       353
31.340       456
31.360       420
31.380       400
31.400       387
31.420       413
31.440       410
31.460       456
31.480       526
31.500       380
31.520       380
31.540       390
31.560       407
31.580       436
31.600       407
31.620       407
31.640       323
31.660       393
31.680       400
31.700       456
31.720       330
31.740       407
31.760       383
31.780       370
31.800       397
31.820       443
31.840       423
31.860       456
31.880       397
31.900       403
31.920       357
31.940       417
31.960       350
31.980       417
32.000       387
32.020       350
32.040       436
32.060       407
32.080       290
32.100       317
32.120       436
32.140       387
32.160       360
32.180       380
32.200       413
32.220       347
32.240       393
32.260       443
32.280       417
32.300       420
32.320       383
32.340       357
32.360       387
32.380       360
32.400       426
32.420       340
32.440       377
32.460       420
32.480       400
32.500       353
32.520       370
32.540       313
32.560       436
32.580       373
32.600       417
32.620       387
32.640       397
32.660       337
32.680       460
32.700       383
32.720       360
32.740       360
32.760       403
32.780       373
32.800       426
32.820       310
32.840       440
32.860       423
32.880       380
32.900       370
32.920       363
32.940       390
32.960       420
32.980       350
33.000       323
33.020       397
33.040       363
33.060       390
33.080       367
33.100       377
33.120       390
33.140       390
33.160       453
33.180       397
33.200       410
33.220       337
33.240       387
33.260       377
33.280       397
33.300       417
33.320       370
33.340       343
33.360       373
33.380       390
33.400       400
33.420       397
33.440       350
33.460       370
33.480       363
33.500       403
33.520       370
33.540       300
33.560       347
33.580       347
33.600       383
33.620       310
33.640       393
33.660       397
33.680       330
33.700       407
33.720       397
33.740       317
33.760       290
33.780       390
33.800       333
33.820       383
33.840       330
33.860       260
33.880       393
33.900       327
33.920       373
33.940       420
33.960       360
33.980       333
34.000       403
34.020       353
34.040       383
34.060       340
34.080       297
34.100       353
34.120       343
34.140       413
34.160       417
34.180       317
34.200       413
34.220       400
34.240       310
34.260       370
34.280       340
34.300       410
34.320       397
34.340       350
34.360       410
34.380       323
34.400       443
34.420       410
34.440       387
34.460       347
34.480       353
34.500       390
34.520       380
34.540       320
34.560       323
34.580       393
34.600       387
34.620       426
34.640       390
34.660       297
34.680       433
34.700       337
34.720       340
34.740       367
34.760       417
34.780       387
34.800       367
34.820       370
34.840       373
34.860       426
34.880       310
34.900       350
34.920       310
34.940       360
34.960       360
34.980       353
35.000       353
35.020       383
35.040       417
35.060       353
35.080       360
35.100       403
35.120       423
35.140       347
35.160       340
35.180       337
35.200       293
35.220       383
35.240       313
35.260       350
35.280       307
35.300       393
35.320       383
35.340       387
35.360       343
35.380       420
35.400       397
35.420       293
35.440       353
35.460       347
35.480       407
35.500       417
35.520       393
35.540       400
35.560       387
35.580       353
35.600       410
35.620       433
35.640       420
35.660       397
35.680       480
35.700       433
35.720       430
35.740       446
35.760       443
35.780       440
35.800       436
35.820       370
35.840       380
35.860       367
35.880       480
35.900       387
35.920       330
35.940       433
35.960       426
35.980       350
36.000       380
36.020       400
36.040       373
36.060       310
36.080       307
36.100       410
36.120       287
36.140       350
36.160       407
36.180       353
36.200       290
36.220       373
36.240       413
36.260       357
36.280       310
36.300       413
36.320       317
36.340       403
36.360       403
36.380       373
36.400       397
36.420       323
36.440       380
36.460       426
36.480       393
36.500       323
36.520       390
36.540       373
36.560       353
36.580       403
36.600       300
36.620       370
36.640       407
36.660       327
36.680       370
36.700       377
36.720       347
36.740       397
36.760       360
36.780       430
36.800       426
36.820       377
36.840       377
36.860       347
36.880       433
36.900       367
36.920       350
36.940       407
36.960       330
36.980       317
37.000       400
37.020       420
37.040       367
37.060       340
37.080       327
37.100       367
37.120       307
37.140       350
37.160       340
37.180       343
37.200       357
37.220       363
37.240       370
37.260       426
37.280       330
37.300       373
37.320       320
37.340       383
37.360       417
37.380       357
37.400       383
37.420       363
37.440       340
37.460       390
37.480       440
37.500       337
37.520       377
37.540       397
37.560       367
37.580       370
37.600       506
37.620       407
37.640       397
37.660       413
37.680       486
37.700       496
37.720       483
37.740       640
37.760       596
37.780       676
37.800       686
37.820       863
37.840       870
37.860       843
37.880       850
37.900       926
37.920       826
37.940       830
37.960       813
37.980       843
38.000       696
38.020       720
38.040       596
38.060       526
38.080       500
38.100       410
38.120       466
38.140       420
38.160       456
38.180       423
38.200       466
38.220       433
38.240       420
38.260       420
38.280       380
38.300       350
38.320       446
38.340       393
38.360       400
38.380       363
38.400       347
38.420       436
38.440       357
38.460       373
38.480       390
38.500       417
38.520       387
38.540       373
38.560       426
38.580       417
38.600       393
38.620       330
38.640       446
38.660       383
38.680       387
38.700       426
38.720       393
38.740       413
38.760       433
38.780       390
38.800       363
38.820       407
38.840       417
38.860       403
38.880       417
38.900       417
38.920       407
38.940       370
38.960       446
38.980       446
39.000       397
39.020       453
39.040       410
39.060       430
39.080       407
39.100       456
39.120       403
39.140       456
39.160       450
39.180       520
39.200       503
39.220       513
39.240       460
39.260       417
39.280       380
39.300       400
39.320       433
39.340       330
39.360       470
39.380       370
39.400       403
39.420       400
39.440       360
39.460       433
39.480       383
39.500       357
39.520       430
39.540       343
39.560       410
39.580       363
39.600       367
39.620       400
39.640       310
39.660       380
39.680       443
39.700       370
39.720       433
39.740       433
39.760       397
39.780       360
39.800       433
39.820       370
39.840       360
39.860       400
39.880       433
39.900       413
39.920       370
39.940       347
39.960       407
39.980       340
40.000       397
40.020       323
40.040       400
40.060       400
40.080       403
40.100       360
40.120       273
40.140       456
40.160       340
40.180       390
40.200       333
40.220       357
40.240       320
40.260       417
40.280       340
40.300       387
40.320       293
40.340       337
40.360       350
40.380       463
40.400       357
40.420       353
40.440       383
40.460       323
40.480       363
40.500       370
40.520       400
40.540       390
40.560       426
40.580       377
40.600       417
40.620       407
40.640       426
40.660       393
40.680       423
40.700       436
40.720       370
40.740       363
40.760       370
40.780       403
40.800       397
40.820       360
40.840       410
40.860       397
40.880       367
40.900       473
40.920       440
40.940       373
40.960       417
40.980       413
41.000       380
41.020       323
41.040       390
41.060       377
41.080       453
41.100       370
41.120       400
41.140       363
41.160       433
41.180       393
41.200       403
41.220       373
41.240       377
41.260       370
41.280       393
41.300       390
41.320       403
41.340       403
41.360       313
41.380       413
41.400       393
41.420       426
41.440       363
41.460       360
41.480       347
41.500       333
41.520       380
41.540       347
41.560       387
41.580       397
41.600       373
41.620       380
41.640       456
41.660       426
41.680       387
41.700       370
41.720       370
41.740       433
41.760       400
41.780       426
41.800       393
41.820       333
41.840       446
41.860       420
41.880       393
41.900       420
41.920       357
41.940       350
41.960       426
41.980       297
42.000       413
42.020       380
42.040       360
42.060       373
42.080       397
42.100       383
42.120       387
42.140       426
42.160       360
42.180       460
42.200       403
42.220       383
42.240       377
42.260       350
42.280       417
42.300       373
42.320       407
42.340       400
42.360       443
42.380       433
42.400       403
42.420       383
42.440       440
42.460       340
42.480       443
42.500       433
42.520       440
42.540       433
42.560       423
42.580       403
42.600       413
42.620       423
42.640       417
42.660       397
42.680       420
42.700       496
42.720       397
42.740       500
42.760       420
42.780       463
42.800       433
42.820       430
42.840       506
42.860       496
42.880       530
42.900       546
42.920       443
42.940       526
42.960       397
42.980       520
43.000       473
43.020       520
43.040       397
43.060       520
43.080       550
43.100       466
43.120       417
43.140       423
43.160       400
43.180       476
43.200       540
43.220       590
43.240       417
43.260       493
43.280       496
43.300       403
43.320       460
43.340       456
43.360       503
43.380       563
43.400       493
43.420       486
43.440       513
43.460       576
43.480       570
43.500       620
43.520       690
43.540       830
43.560      1020
43.580      1100
43.600      1306
43.620      1556
43.640      1906
43.660      2312
43.680      2749
43.700      3239
43.720      3719
43.740      4452
43.760      5311
43.780      5918
43.800      6471
43.820      7087
43.840      6844
43.860      7364
43.880      6797
43.900      6321
43.920      6188
43.940      5151
43.960      4751
43.980      4132
44.000      3405
44.020      2969
44.040      2546
44.060      1946
44.080      1739
44.100      1276
44.120      1086
44.140       953
44.160       826
44.180       816
44.200       666
44.220       633
44.240       573
44.260       550
44.280       523
44.300       463
44.320       563
44.340       433
44.360       540
44.380       470
44.400       473
44.420       476
44.440       440
44.460       377
44.480       483
44.500       403
44.520       426
44.540       563
44.560       476
44.580       387
44.600       513
44.620       426
44.640       360
44.660       506
44.680       423
44.700       440
44.720       523
44.740       440
44.760       456
44.780       377
44.800       377
44.820       363
44.840       417
44.860       446
44.880       426
44.900       410
44.920       393
44.940       390
44.960       476
44.980       417
45.000       413
45.020       400
45.040       440
45.060       360
45.080       377
45.100       423
45.120       436
45.140       420
45.160       390
45.180       370
45.200       473
45.220       470
45.240       463
45.260       443
45.280       440
45.300       440
45.320       407
45.340       323
45.360       367
45.380       443
45.400       453
45.420       443
45.440       423
45.460       407
45.480       417
45.500       403
45.520       353
45.540       403
45.560       420
45.580       413
45.600       387
45.620       360
45.640       403
45.660       387
45.680       373
45.700       390
45.720       426
45.740       383
45.760       377
45.780       377
45.800       380
45.820       446
45.840       393
45.860       403
45.880       390
45.900       407
45.920       383
45.940       423
45.960       343
45.980       407
46.000       403
46.020       343
46.040       403
46.060       410
46.080       433
46.100       493
46.120       393
46.140       373
46.160       397
46.180       473
46.200       400
46.220       466
46.240       403
46.260       433
46.280       423
46.300       377
46.320       370
46.340       317
46.360       353
46.380       337
46.400       440
46.420       380
46.440       453
46.460       397
46.480       347
46.500       436
46.520       397
46.540       337
46.560       433
46.580       403
46.600       297
46.620       377
46.640       397
46.660       383
46.680       446
46.700       370
46.720       430
46.740       397
46.760       403
46.780       410
46.800       403
46.820       377
46.840       443
46.860       397
46.880       453
46.900       390
46.920       350
46.940       377
46.960       410
46.980       453
47.000       380
47.020       530
47.040       403
47.060       413
47.080       400
47.100       466
47.120       483
47.140       470
47.160       450
47.180       417
47.200       387
47.220       500
47.240       503
47.260       590
47.280       510
47.300       523
47.320       470
47.340       516
47.360       430
47.380       583
47.400       390
47.420       493
47.440       380
47.460       397
47.480       397
47.500       377
47.520       380
47.540       440
47.560       363
47.580       470
47.600       363
47.620       367
47.640       363
47.660       436
47.680       383
47.700       417
47.720       363
47.740       357
47.760       357
47.780       340
47.800       370
47.820       400
47.840       357
47.860       403
47.880       410
47.900       363
47.920       373
47.940       446
47.960       377
47.980       307
48.000       377
48.020       473
48.040       463
48.060       320
48.080       370
48.100       430
48.120       410
48.140       353
48.160       456
48.180       360
48.200       380
48.220       426
48.240       526
48.260       453
48.280       443
48.300       486
48.320       500
48.340       560
48.360       446
48.380       466
48.400       400
48.420       383
48.440       347
48.460       367
48.480       377
48.500       307
48.520       333
48.540       360
48.560       353
48.580       390
48.600       347
48.620       380
48.640       283
48.660       370
48.680       393
48.700       380
48.720       323
48.740       327
48.760       353
48.780       347
48.800       357
48.820       327
48.840       373
48.860       370
48.880       360
48.900       300
48.920       337
48.940       383
48.960       323
48.980       300
49.000       426
49.020       377
49.040       340
49.060       390
49.080       343
49.100       313
49.120       357
49.140       323
49.160       383
49.180       340
49.200       380
49.220       387
49.240       360
49.260       347
49.280       380
49.300       360
49.320       397
49.340       337
49.360       393
49.380       343
49.400       363
49.420       387
49.440       337
49.460       383
49.480       327
49.500       350
49.520       323
49.540       323
49.560       377
49.580       287
49.600       380
49.620       327
49.640       363
49.660       403
49.680       330
49.700       307
49.720       330
49.740       297
49.760       333
49.780       320
49.800       357
49.820       327
49.840       407
49.860       320
49.880       370
49.900       360
49.920       353
49.940       300
49.960       367
49.980       300
50.000       357
50.020       333
50.040       323
50.060       380
50.080       310
50.100       367
50.120       357
50.140       323
50.160       333
50.180       333
50.200       360
50.220       350
50.240       340
50.260       373
50.280       347
50.300       373
50.320       390
50.340       347
50.360       293
50.380       417
50.400       363
50.420       443
50.440       310
50.460       323
50.480       333
50.500       307
50.520       330
50.540       317
50.560       310
50.580       347
50.600       377
50.620       320
50.640       353
50.660       367
50.680       337
50.700       323
50.720       426
50.740       333
50.760       433
50.780       323
50.800       390
50.820       320
50.840       370
50.860       403
50.880       373
50.900       367
50.920       377
50.940       340
50.960       323
50.980       343
51.000       310
51.020       327
51.040       327
51.060       357
51.080       387
51.100       383
51.120       333
51.140       330
51.160       363
51.180       370
51.200       300
51.220       317
51.240       320
51.260       310
51.280       333
51.300       363
51.320       353
51.340       373
51.360       360
51.380       327
51.400       436
51.420       337
51.440       330
51.460       327
51.480       360
51.500       337
51.520       393
51.540       393
51.560       307
51.580       313
51.600       373
51.620       370
51.640       337
51.660       387
51.680       347
51.700       387
51.720       367
51.740       313
51.760       393
51.780       363
51.800       317
51.820       370
51.840       323
51.860       387
51.880       330
51.900       373
51.920       350
51.940       377
51.960       327
51.980       390
52.000       323
52.020       367
52.040       340
52.060       370
52.080       443
52.100       383
52.120       363
52.140       347
52.160       393
52.180       360
52.200       400
52.220       380
52.240       380
52.260       440
52.280       337
52.300       343
52.320       317
52.340       347
52.360       357
52.380       410
52.400       423
52.420       360
52.440       403
52.460       353
52.480       360
52.500       377
52.520       463
52.540       370
52.560       343
52.580       340
52.600       410
52.620       403
52.640       413
52.660       393
52.680       363
52.700       330
52.720       343
52.740       323
52.760       363
52.780       313
52.800       337
52.820       327
52.840       380
52.860       347
52.880       383
52.900       377
52.920       297
52.940       330
52.960       397
52.980       380
53.000       317
53.020       387
53.040       320
53.060       360
53.080       313
53.100       353
53.120       333
53.140       380
53.160       393
53.180       353
53.200       340
53.220       320
53.240       317
53.260       330
53.280       397
53.300       333
53.320       383
53.340       333
53.360       323
53.380       413
53.400       303
53.420       400
53.440       320
53.460       367
53.480       303
53.500       337
53.520       313
53.540       370
53.560       360
53.580       310
53.600       317
53.620       340
53.640       280
53.660       383
53.680       430
53.700       400
53.720       397
53.740       357
53.760       333
53.780       383
53.800       367
53.820       330
53.840       440
53.860       350
53.880       330
53.900       363
53.920       337
53.940       313
53.960       337
53.980       307
54.000       330
54.020       327
54.040       387
54.060       370
54.080       307
54.100       387
54.120       350
54.140       426
54.160       410
54.180       400
54.200       400
54.220       343
54.240       426
54.260       423
54.280       373
54.300       363
54.320       450
54.340       397
54.360       430
54.380       506
54.400       500
54.420       580
54.440       650
54.460       666
54.480       700
54.500       763
54.520       913
54.540       936
54.560      1023
54.580      1113
54.600      1000
54.620      1060
54.640       980
54.660       933
54.680       973
54.700       940
54.720       880
54.740       770
54.760       796
54.780       686
54.800       663
54.820       673
54.840       576
54.860       436
54.880       463
54.900       490
54.920       393
54.940       370
54.960       426
54.980       433
55.000       433
55.020       426
55.040       367
55.060       390
55.080       350
55.100       387
55.120       333
55.140       413
55.160       377
55.180       370
55.200       377
55.220       347
55.240       307
55.260       337
55.280       353
55.300       367
55.320       297
55.340       370
55.360       350
55.380       417
55.400       340
55.420       350
55.440       310
55.460       317
55.480       367
55.500       307
55.520       330
55.540       367
55.560       277
55.580       297
55.600       317
55.620       290
55.640       320
55.660       340
55.680       247
55.700       357
55.720       313
55.740       313
55.760       293
55.780       307
55.800       317
55.820       360
55.840       273
55.860       307
55.880       353
55.900       267
55.920       307
55.940       323
55.960       310
55.980       320
56.000       303
56.020       383
56.040       290
56.060       277
56.080       277
56.100       287
56.120       310
56.140       267
56.160       297
56.180       337
56.200       357
56.220       337
56.240       380
56.260       333
56.280       323
56.300       353
56.320       333
56.340       397
56.360       397
56.380       317
56.400       307
56.420       367
56.440       277
56.460       330
56.480       407
56.500       327
56.520       313
56.540       323
56.560       277
56.580       337
56.600       340
56.620       290
56.640       377
56.660       337
56.680       310
56.700       327
56.720       337
56.740       350
56.760       283
56.780       303
56.800       267
56.820       283
56.840       323
56.860       347
56.880       300
56.900       317
56.920       313
56.940       343
56.960       333
56.980       347
57.000       377
57.020       383
57.040       390
57.060       323
57.080       357
57.100       350
57.120       313
57.140       337
57.160       347
57.180       327
57.200       347
57.220       293
57.240       363
57.260       340
57.280       370
57.300       353
57.320       323
57.340       333
57.360       287
57.380       327
57.400       270
57.420       380
57.440       333
57.460       287
57.480       283
57.500       300
57.520       307
57.540       233
57.560       323
57.580       280
57.600       307
57.620       247
57.640       293
57.660       327
57.680       270
57.700       257
57.720       283
57.740       267
57.760       287
57.780       283
57.800       333
57.820       300
57.840       257
57.860       270
57.880       313
57.900       307
57.920       343
57.940       290
57.960       327
57.980       310
58.000       283
58.020       353
58.040       300
58.060       263
58.080       313
58.100       293
58.120       317
58.140       320
58.160       307
58.180       310
58.200       347
58.220       307
58.240       293
58.260       300
58.280       230
58.300       347
58.320       257
58.340       280
58.360       303
58.380       290
58.400       290
58.420       273
58.440       343
58.460       250
58.480       287
58.500       260
58.520       267
58.540       283
58.560       257
58.580       287
58.600       323
58.620       327
58.640       237
58.660       270
58.680       303
58.700       257
58.720       270
58.740       337
58.760       307
58.780       267
58.800       330
58.820       230
58.840       307
58.860       240
58.880       277
58.900       273
58.920       280
58.940       307
58.960       263
58.980       327
59.000       267
59.020       303
59.040       300
59.060       300
59.080       257
59.100       380
59.120       233
59.140       330
59.160       240
59.180       267
59.200       303
59.220       277
59.240       303
59.260       263
59.280       317
59.300       283
59.320       353
59.340       307
59.360       273
59.380       303
59.400       243
59.420       273
59.440       313
59.460       253
59.480       320
59.500       277
59.520       293
59.540       247
59.560       240
59.580       290
59.600       273
59.620       303
59.640       233
59.660       320
59.680       277
59.700       260
59.720       260
59.740       263
59.760       300
59.780       307
59.800       270
59.820       300
59.840       300
59.860       327
59.880       263
59.900       210
59.920       300
59.940       280
59.960       283
59.980       247
60.000       257
