20.000         0
20.020         0
20.040         0
20.060         0
20.080         0
20.100         0
20.120         0
20.140         0
20.160         0
20.180         0
20.200         0
20.220         0
20.240         0
20.260         0
20.280         0
20.300         0
20.320         0
20.340         0
20.360         0
20.380        47
20.400       723
20.420       653
20.440       733
20.460       703
20.480       606
20.500       580
20.520       626
20.540       673
20.560       686
20.580       663
20.600       640
20.620       686
20.640       763
20.660       666
20.680       673
20.700       753
20.720       663
20.740       676
20.760       663
20.780       716
20.800       680
20.820       670
20.840       603
20.860       650
20.880       663
20.900       546
20.920       663
20.940       693
20.960       713
20.980       730
21.000       636
21.020       760
21.040       766
21.060       696
21.080       623
21.100       673
21.120       740
21.140       660
21.160       663
21.180       620
21.200       640
21.220       646
21.240       636
21.260       643
21.280       623
21.300       616
21.320       716
21.340       640
21.360       673
21.380       690
21.400       590
21.420       720
21.440       606
21.460       633
21.480       580
21.500       610
21.520       600
21.540       543
21.560       650
21.580       660
21.600       640
21.620       646
21.640       636
21.660       586
21.680       616
21.700       570
21.720       626
21.740       643
21.760       583
21.780       533
21.800       583
21.820       563
21.840       703
21.860       593
21.880       563
21.900       613
21.920       623
21.940       600
21.960       560
21.980       623
22.000       566
22.020       600
22.040       523
22.060       590
22.080       623
22.100       543
22.120       553
22.140       510
22.160       553
22.180       590
22.200       610
22.220       590
22.240       496
22.260       543
22.280       603
22.300       546
22.320       500
22.340       630
22.360       566
22.380       593
22.400       500
22.420       536
22.440       563
22.460       546
22.480       646
22.500       610
22.520       553
22.540       506
22.560       586
22.580       596
22.600       566
22.620       536
22.640       626
22.660       616
22.680       476
22.700       576
22.720       536
22.740       483
22.760       446
22.780       510
22.800       526
22.820       563
22.840       590
22.860       553
22.880       483
22.900       483
22.920       546
22.940       483
22.960       603
22.980       503
23.000       466
23.020       473
23.040       510
23.060       546
23.080       586
23.100       490
23.120       556
23.140       510
23.160       603
23.180       550
23.200       520
23.220       530
23.240       506
23.260       516
23.280       543
23.300       526
23.320       540
23.340       520
23.360       533
23.380       580
23.400       473
23.420       523
23.440       480
23.460       600
23.480       503
23.500       510
23.520       566
23.540       576
23.560       583
23.580       460
23.600       493
23.620       510
23.640       543
23.660       526
23.680       580
23.700       506
23.720       520
23.740       493
23.760       513
23.780       510
23.800       453
23.820       503
23.840       490
23.860       480
23.880       506
23.900       480
23.920       486
23.940       510
23.960       513
23.980       523
24.000       436
24.020       503
24.040       523
24.060       473
24.080       523
24.100       490
24.120       426
24.140       433
24.160       460
24.180       413
24.200       470
24.220       463
24.240       506
24.260       526
24.280       513
24.300       510
24.320       536
24.340       516
24.360       536
24.380       563
24.400       483
24.420       403
24.440       450
24.460       443
24.480       450
24.500       536
24.520       496
24.540       523
24.560       526
24.580       550
24.600       533
24.620       483
24.640       473
24.660       536
24.680       600
24.700       550
24.720       466
24.740       526
24.760       470
24.780       543
24.800       473
24.820       480
24.840       483
24.860       413
24.880       483
24.900       510
24.920       483
24.940       533
24.960       533
24.980       473
25.000       463
25.020       410
25.040       476
25.060       490
25.080       410
25.100       433
25.120       496
25.140       550
25.160       466
25.180       446
25.200       460
25.220       450
25.240       460
25.260       480
25.280       470
25.300       460
25.320       443
25.340       446
25.360       400
25.380       483
25.400       426
25.420       446
25.440       493
25.460       473
25.480       383
25.500       413
25.520       536
25.540       423
25.560       400
25.580       440
25.600       413
25.620       496
25.640       387
25.660       436
25.680       480
25.700       493
25.720       430
25.740       446
25.760       420
25.780       490
25.800       397
25.820       407
25.840       450
25.860       466
25.880       440
25.900       436
25.920       476
25.940       486
25.960       393
25.980       503
26.000       410
26.020       436
26.040       413
26.060       440
26.080       383
26.100       417
26.120       453
26.140       460
26.160       500
26.180       450
26.200       443
26.220       373
26.240       423
26.260       473
26.280       413
26.300       343
26.320       436
26.340       463
26.360       463
26.380       466
26.400       426
26.420       480
26.440       403
26.460       456
26.480       436
26.500       436
26.520       433
26.540       470
26.560       463
26.580       430
26.600       383
26.620       383
26.640       377
26.660       407
26.680       460
26.700       410
26.720       303
26.740       443
26.760       380
26.780       523
26.800       470
26.820       420
26.840       417
26.860       357
26.880       470
26.900       373
26.920       383
26.940       337
26.960       413
26.980       370
27.000       403
27.020       390
27.040       353
27.060       400
27.080       377
27.100       436
27.120       423
27.140       430
27.160       377
27.180       387
27.200       360
27.220       420
27.240       463
27.260       407
27.280       436
27.300       460
27.320       410
27.340       433
27.360       387
27.380       417
27.400       353
27.420       377
27.440       493
27.460       417
27.480       443
27.500       383
27.520       347
27.540       443
27.560       443
27.580       506
27.600       397
27.620       430
27.640       397
27.660       463
27.680       380
27.700       460
27.720       413
27.740       420
27.760       470
27.780       480
27.800       433
27.820       400
27.840       443
27.860       363
27.880       446
27.900       436
27.920       413
27.940       347
27.960       360
27.980       380
28.000       373
28.020       370
28.040       367
28.060       423
28.080       407
28.100       480
28.120       390
28.140       377
28.160       403
28.180       373
28.200       387
28.220       410
28.240       387
28.260       400
28.280       443
28.300       387
28.320       380
28.340       373
28.360       423
28.380       380
28.400       377
28.420       490
28.440       413
28.460       413
28.480       417
28.500       407
28.520       446
28.540       340
28.560       390
28.580       383
28.600       446
28.620       387
28.640       353
28.660       440
28.680       466
28.700       400
28.720       456
28.740       493
28.760       460
28.780       383
28.800       530
28.820       436
28.840       483
28.860       523
28.880       510
28.900       536
28.920       523
28.940       573
28.960       463
28.980       640
29.000       666
29.020       606
29.040       643
29.060       590
29.080       700
29.100       726
29.120       703
29.140       746
29.160       743
29.180       663
29.200       730
29.220       663
29.240       623
29.260       676
29.280       683
29.300       526
29.320       606
29.340       503
29.360       546
29.380       466
29.400       387
29.420       480
29.440       390
29.460       456
29.480       400
29.500       347
29.520       340
29.540       410
29.560       370
29.580       423
29.600       450
29.620       387
29.640       407
29.660       403
29.680       407
29.700       506
29.720       423
29.740       397
29.760       420
29.780       430
29.800       423
29.820       473
29.840       443
29.860       417
29.880       460
29.900       436
29.920       453
29.940       397
29.960       450
29.980       460
30.000       390
30.020       443
30.040       460
30.060       410
30.080       383
30.100       403
30.120       480
30.140       410
30.160       423
30.180       426
30.200       466
30.220       463
30.240       433
30.260       420
30.280       493
30.300       490
30.320       450
30.340       377
30.360       476
30.380       450
30.400       563
30.420       533
30.440       533
30.460       630
30.480       780
30.500       760
30.520      1000
30.540      1186
30.560      1366
30.580      1723
30.600      2029
30.620      2399
30.640      2935
30.660      3868
30.680      4418
30.700      5138
30.720      5841
30.740      6377
30.760      6671
30.780      6437
30.800      6337
30.820      5691
30.840      4848
30.860      4078
30.880      3269
30.900      2582
30.920      1976
30.940      1439
30.960      1196
30.980       880
31.000       740
31.020       600
31.040       610
31.060       536
31.080       540
31.100       540
31.120       500
31.140       536
31.160       430
31.180       493
31.200       420
31.220       503
31.240       466
31.260       420
31.280       476
31.300       436
31.320       420
31.340       403
31.360       496
31.380       470
31.400       473
31.420       417
31.440       433
31.460       387
31.480       400
31.500       400
31.520       407
31.540       390
31.560       446
31.580       426
31.600       446
31.620       417
31.640       367
31.660       367
31.680       390
31.700       370
31.720       393
31.740       407
31.760       413
31.780       450
31.800       387
31.820       397
31.840       393
31.860       307
31.880       403
31.900       403
31.920       480
31.940       410
31.960       403
31.980       360
32.000       413
32.020       407
32.040       400
32.060       417
32.080       420
32.100       413
32.120       430
32.140       423
32.160       403
32.180       413
32.200       410
32.220       353
32.240       423
32.260       257
32.280       407
32.300       390
32.320       377
32.340       343
32.360       423
32.380       353
32.400       417
32.420       357
32.440       423
32.460       317
32.480       373
32.500       470
32.520       410
32.540       446
32.560       417
32.580       403
32.600       403
32.620       400
32.640       403
32.660       387
32.680       363
32.700       446
32.720       330
32.740       360
32.760       373
32.780       350
32.800       323
32.820       343
32.840       350
32.860       456
32.880       370
32.900       330
32.920       420
32.940       363
32.960       390
32.980       350
33.000       417
33.020       370
33.040       360
33.060       353
33.080       443
33.100       367
33.120       340
33.140       413
33.160       333
33.180       446
33.200       377
33.220       353
33.240       430
33.260       350
33.280       383
33.300       423
33.320       450
33.340       330
33.360       370
33.380       436
33.400       446
33.420       383
33.440       410
33.460       426
33.480       423
33.500       400
33.520       360
33.540       443
33.560       380
33.580       397
33.600       353
33.620       373
33.640       373
33.660       393
33.680       383
33.700       360
33.720       360
33.740       503
33.760       380
33.780       357
33.800       493
33.820       387
33.840       436
33.860       357
33.880       413
33.900       330
33.920       403
33.940       387
33.960       367
33.980       353
34.000       440
34.020       393
34.040       390
34.060       380
34.080       390
34.100       430
34.120       353
34.140       363
34.160       377
34.180       337
34.200       400
34.220       407
34.240       423
34.260       470
34.280       426
34.300       426
34.320       450
34.340       360
34.360       370
34.380       400
34.400       390
34.420       330
34.440       373
34.460       420
34.480       363
34.500       440
34.520       373
34.540       436
34.560       347
34.580       433
34.600       420
34.620       343
34.640       380
34.660       423
34.680       383
34.700       397
34.720       383
34.740       426
34.760       400
34.780       413
34.800       393
34.820       453
34.840       367
34.860       373
34.880       383
34.900       380
34.920       413
34.940       403
34.960       403
34.980       367
35.000       373
35.020       473
35.040       417
35.060       273
35.080       426
35.100       400
35.120       407
35.140       370
35.160       420
35.180       450
35.200       440
35.220       423
35.240       443
35.260       350
35.280       353
35.300       383
35.320       380
35.340       333
35.360       370
35.380       340
35.400       380
35.420       363
35.440       400
35.460       343
35.480       337
35.500       403
35.520       456
35.540       343
35.560       410
35.580       360
35.600       337
35.620       373
35.640       456
35.660       413
35.680       333
35.700       403
35.720       343
35.740       390
35.760       463
35.780       390
35.800       423
35.820       343
35.840       433
35.860       377
35.880       373
35.900       426
35.920       420
35.940       383
35.960       377
35.980       380
36.000       397
36.020       363
36.040       340
36.060       403
36.080       397
36.100       373
36.120       343
36.140       456
36.160       446
36.180       370
36.200       403
36.220       436
36.240       350
36.260       383
36.280       357
36.300       436
36.320       390
36.340       330
36.360       383
36.380       430
36.400       347
36.420       403
36.440       387
36.460       390
36.480       347
36.500       340
36.520       303
36.540       413
36.560       390
36.580       393
36.600       403
36.620       373
36.640       340
36.660       440
36.680       343
36.700       380
36.720       307
36.740       400
36.760       370
36.780       453
36.800       337
36.820       343
36.840       397
36.860       350
36.880       350
36.900       377
36.920       446
36.940       397
36.960       387
36.980       413
37.000       377
37.020       360
37.040       417
37.060       387
37.080       436
37.100       357
37.120       417
37.140       407
37.160       377
37.180       413
37.200       426
37.220       426
37.240       357
37.260       373
37.280       400
37.300       310
37.320       370
37.340       357
37.360       310
37.380       450
37.400       347
37.420       393
37.440       387
37.460       380
37.480       343
37.500       390
37.520       453
37.540       373
37.560       353
37.580       383
37.600       483
37.620       373
37.640       397
37.660       337
37.680       330
37.700       373
37.720       397
37.740       323
37.760       397
37.780       367
37.800       340
37.820       397
37.840       357
37.860       446
37.880       370
37.900       350
37.920       430
37.940       397
37.960       456
37.980       420
38.000       400
38.020       436
38.040       393
38.060       383
38.080       417
38.100       420
38.120       383
38.140       440
38.160       390
38.180       407
38.200       383
38.220       400
38.240       470
38.260       353
38.280       337
38.300       387
38.320       407
38.340       430
38.360       476
38.380       393
38.400       343
38.420       446
38.440       383
38.460       403
38.480       347
38.500       436
38.520       360
38.540       350
38.560       357
38.580       440
38.600       426
38.620       343
38.640       380
38.660       403
38.680       407
38.700       430
38.720       350
38.740       393
38.760       410
38.780       343
38.800       390
38.820       380
38.840       337
38.860       373
38.880       380
38.900       397
38.920       403
