20.000        47
20.020        47
20.040         0
20.060        60
20.080        60
20.100         0
20.120        47
20.140         0
20.160        53
20.180        27
20.200         0
20.220       113
20.240       173
20.260         0
20.280        27
20.300       107
20.320         0
20.340        33
20.360        33
20.380         0
20.400        87
20.420       100
20.440        67
20.460        73
20.480         0
20.500         0
20.520         0
20.540         7
20.560         0
20.580        27
20.600        13
20.620        73
20.640         0
20.660       180
20.680        67
20.700        93
20.720        87
20.740       120
20.760       213
20.780        73
20.800        53
20.820        20
20.840       107
20.860        73
20.880       313
20.900       193
20.920        67
20.940        80
20.960       127
20.980       100
21.000       133
21.020       173
21.040       213
21.060       107
21.080       180
21.100       167
21.120       187
21.140        87
21.160       200
21.180       320
21.200        80
21.220       173
21.240       446
21.260       313
21.280       307
21.300       233
21.320       320
21.340       446
21.360       180
21.380       480
21.400       400
21.420       426
21.440       233
21.460       187
21.480       433
21.500       367
21.520       187
21.540       220
21.560       127
21.580       160
21.600       153
21.620        73
21.640       213
21.660        20
21.680         0
21.700        47
21.720         7
21.740       153
21.760         7
21.780        40
21.800         0
21.820         0
21.840         0
21.860       133
21.880        13
21.900        67
21.920        73
21.940       153
21.960        60
21.980         0
22.000         0
22.020        53
22.040        40
22.060        53
22.080         0
22.100         0
22.120         0
22.140        60
22.160         0
22.180         7
22.200        20
22.220         0
22.240        87
22.260        47
22.280        80
22.300        40
22.320       320
22.340        87
22.360        73
22.380        20
22.400         0
22.420         0
22.440       173
22.460       113
22.480       273
22.500       193
22.520       213
22.540       253
22.560        73
22.580        33
22.600       180
22.620       193
22.640       180
22.660       153
22.680        87
22.700         0
22.720       147
22.740       207
22.760       253
22.780        40
22.800        67
22.820        47
22.840       107
22.860       147
22.880         0
22.900        60
22.920        93
22.940       313
22.960       207
22.980       207
23.000       153
23.020       413
23.040       213
23.060       267
23.080       300
23.100       293
23.120       207
23.140       193
23.160        67
23.180       167
23.200       133
23.220       180
23.240       147
23.260       207
23.280        40
23.300       173
23.320        60
23.340        93
23.360         0
23.380       160
23.400       133
23.420       127
23.440         0
23.460       240
23.480       207
23.500       193
23.520       113
23.540       120
23.560       220
23.580        73
23.600       100
23.620       160
23.640       173
23.660       180
23.680       300
23.700       180
23.720       133
23.740       113
23.760       247
23.780        80
23.800       167
23.820       127
23.840       153
23.860       240
23.880       200
23.900        87
23.920       133
23.940       153
23.960       113
23.980       187
24.000       233
24.020        87
24.040       133
24.060       113
24.080       247
24.100       240
24.120        87
24.140       147
24.160        80
24.180         0
24.200         7
24.220         0
24.240        80
24.260       140
24.280        93
24.300       127
24.320       160
24.340       227
24.360       140
24.380        13
24.400        87
24.420       287
24.440       100
24.460       113
24.480       173
24.500       220
24.520       193
24.540       260
24.560       313
24.580       367
24.600       347
24.620       407
24.640       433
24.660       520
24.680       686
24.700       753
24.720       753
24.740      1166
24.760      1213
24.780      1439
24.800      1419
24.820      1953
24.840      1719
24.860      1993
24.880      1859
24.900      2132
24.920      2033
24.940      1679
24.960      1519
24.980      1319
25.000       793
25.020       786
25.040       566
25.060       580
25.080       620
25.100       280
25.120       160
25.140       247
25.160       120
25.180       180
25.200       220
25.220       173
25.240       173
25.260       153
25.280       227
25.300       207
25.320       127
25.340        60
25.360        33
25.380       120
25.400       167
25.420       187
25.440       127
25.460        93
25.480       153
25.500        13
25.520        60
25.540        53
25.560        60
25.580       120
25.600        67
25.620         0
25.640        67
25.660         7
25.680        80
25.700        67
25.720        13
25.740         0
25.760        87
25.780        47
25.800       120
25.820        20
25.840        80
25.860       167
25.880        67
25.900        73
25.920       113
25.940        27
25.960        13
25.980        80
26.000        33
26.020         0
26.040         0
26.060        93
26.080       107
26.100        60
26.120        93
26.140        53
26.160       113
26.180        67
26.200       140
26.220         7
26.240         0
26.260       127
26.280        80
26.300        73
26.320        80
26.340       153
26.360       100
26.380       147
26.400       227
26.420       133
26.440       120
26.460        67
26.480       193
26.500       207
26.520       213
26.540       207
26.560       167
26.580       173
26.600       180
26.620       140
26.640        93
26.660        27
26.680       160
26.700        73
26.720        27
26.740        27
26.760       200
26.780        80
26.800       107
26.820       107
26.840        93
26.860       113
26.880        93
26.900        60
26.920         0
26.940         7
26.960        40
26.980        40
27.000       113
27.020         0
27.040       127
27.060         0
27.080         0
27.100         7
27.120         0
27.140        33
27.160       120
27.180        73
27.200        93
27.220       187
27.240        87
27.260       187
27.280       160
27.300        47
27.320        40
27.340       307
27.360       120
27.380       120
27.400         0
27.420        33
27.440       100
27.460       133
27.480       133
27.500        87
27.520        93
27.540       193
27.560       107
27.580         0
27.600       153
27.620       147
27.640       100
27.660        40
27.680        47
27.700       173
27.720        47
27.740        40
27.760       233
27.780       147
27.800         0
27.820       160
27.840       200
27.860       160
27.880       160
27.900       200
27.920       107
27.940       187
27.960       200
27.980       200
28.000       133
28.020       193
28.040       133
28.060       227
28.080       260
28.100       240
28.120       120
28.140       167
28.160       113
28.180       160
28.200        60
28.220       213
28.240        87
28.260       107
28.280       207
28.300        53
28.320       107
28.340        67
28.360       107
28.380       140
28.400       120
28.420        53
28.440       160
28.460        73
28.480       133
28.500       160
28.520       113
28.540       127
28.560       233
28.580        80
28.600       147
28.620        93
28.640       173
28.660        47
28.680       133
28.700        87
28.720       120
28.740       147
28.760       233
28.780        53
28.800       207
28.820       107
28.840       140
28.860        60
28.880       247
28.900       147
28.920       247
28.940       213
28.960       127
28.980       347
29.000       147
29.020       240
29.040       300
29.060       413
29.080       493
29.100       466
29.120       493
29.140       620
29.160       686
29.180       800
29.200      1053
29.220       906
29.240      1060
29.260      1433
29.280      1866
29.300      1973
29.320      2312
29.340      2872
29.360      3259
29.380      3345
29.400      3672
29.420      3332
29.440      3592
29.460      3039
29.480      2426
29.500      1886
29.520      1373
29.540      1073
29.560       813
29.580       600
29.600       280
29.620       213
29.640       173
29.660       193
29.680       207
29.700       100
29.720       120
29.740       307
29.760       140
29.780        27
29.800       120
29.820       133
29.840        20
29.860       120
29.880       127
29.900        73
29.920       133
29.940       127
29.960        67
29.980         0
30.000        67
30.020        47
30.040        67
30.060       167
30.080        53
30.100        67
30.120       133
30.140         7
30.160         0
30.180       113
30.200       100
30.220       133
30.240        47
30.260        33
30.280       153
30.300         0
30.320        67
30.340       120
30.360        27
30.380         7
30.400        67
30.420        87
30.440        60
30.460       100
30.480        60
30.500        87
30.520        47
30.540        13
30.560         0
30.580       167
30.600        67
30.620       180
30.640        13
30.660        33
30.680        53
30.700        87
30.720         0
30.740       180
30.760        60
30.780        27
30.800        47
30.820       247
30.840        60
30.860       107
30.880         0
30.900        40
30.920       147
30.940         0
30.960        40
30.980        93
31.000         0
31.020         0
31.040        60
31.060       127
31.080        73
31.100        27
31.120        20
31.140        27
31.160        73
31.180       127
31.200       167
31.220        93
31.240       120
31.260       147
31.280        33
31.300        67
31.320       147
31.340       207
31.360        73
31.380         7
31.400       133
31.420        80
31.440       180
31.460       120
31.480        67
31.500        87
31.520       100
31.540        47
31.560        93
31.580       160
31.600         7
31.620        53
31.640        53
31.660        53
31.680        73
31.700        93
31.720       153
31.740        87
31.760       140
31.780         0
31.800        47
31.820        40
31.840        33
31.860         0
31.880         0
31.900       127
31.920        20
31.940        33
31.960       100
31.980        93
32.000        53
32.020       147
32.040       127
32.060       140
32.080       100
32.100       173
32.120        60
32.140        53
32.160        13
32.180       147
32.200       147
32.220         0
32.240        80
32.260        67
32.280        27
32.300         0
32.320       107
32.340        13
32.360       127
32.380       167
32.400        13
32.420        80
32.440       160
32.460       100
32.480        27
32.500        47
32.520        13
32.540       107
32.560        87
32.580       100
32.600         0
32.620         0
32.640        87
32.660        13
32.680         0
32.700       140
32.720       133
32.740         0
32.760         0
32.780         0
32.800       153
32.820         0
32.840        93
32.860        27
32.880         0
32.900        47
32.920        60
32.940        80
32.960         0
32.980         7
33.000        87
33.020        87
33.040        33
33.060        73
33.080        20
33.100       113
33.120        20
33.140        47
33.160       100
33.180         7
33.200        40
33.220         0
33.240        47
33.260        13
33.280        60
33.300         0
33.320       100
33.340         0
33.360        87
33.380       133
33.400        33
33.420         7
33.440        27
33.460        27
33.480        53
33.500        60
33.520        33
33.540        53
33.560         0
33.580         0
33.600        40
33.620         0
33.640        67
33.660       100
33.680        13
33.700        73
33.720        40
33.740       100
33.760         0
33.780         7
33.800         7
33.820       127
33.840       140
33.860        33
33.880        47
33.900        60
33.920        40
33.940         0
33.960        73
33.980        33
34.000         0
34.020       107
34.040        33
34.060        53
34.080        33
34.100        27
34.120        40
34.140       113
34.160        20
34.180        53
34.200        93
34.220         0
34.240       107
34.260        13
34.280        33
34.300        80
34.320        40
34.340        40
34.360       133
34.380       120
34.400       100
34.420       127
34.440       127
34.460        73
34.480       133
34.500        80
34.520         7
34.540        87
34.560       140
34.580       107
34.600         0
34.620        20
34.640        33
34.660        13
34.680       127
34.700       107
34.720       100
34.740        27
34.760        87
34.780       120
34.800        27
34.820       147
34.840        67
34.860       227
34.880       133
34.900       120
34.920       120
34.940        87
34.960       113
34.980       220
35.000        20
35.020       113
35.040       187
35.060       247
35.080        67
35.100       133
35.120        93
35.140         0
35.160       173
35.180       140
35.200        47
35.220       107
35.240       107
35.260        60
35.280       147
35.300       147
35.320        93
35.340         7
35.360       120
35.380       180
35.400       187
35.420       133
35.440       260
35.460       227
35.480       120
35.500        47
35.520        93
35.540       153
35.560       253
35.580        93
35.600       160
35.620       200
35.640       160
35.660       147
35.680       133
35.700       160
35.720        93
35.740       173
35.760       200
35.780       293
35.800       367
35.820       167
35.840       393
35.860       400
35.880       260
35.900       446
35.920       566
35.940       486
35.960       646
35.980       573
36.000       673
36.020       566
36.040       520
36.060       426
36.080       393
36.100       193
36.120       380
36.140       220
36.160       173
36.180       120
36.200       173
36.220        40
36.240        93
36.260       113
36.280        53
36.300       147
36.320        67
36.340       153
36.360       147
36.380        67
36.400        93
36.420        93
36.440        47
36.460        27
36.480        67
36.500        67
36.520         0
36.540        80
36.560        87
36.580        20
36.600       187
36.620        40
36.640       100
36.660         0
36.680       147
36.700        67
36.720         0
36.740         0
36.760        27
36.780       107
36.800       100
36.820         7
36.840         0
36.860        27
36.880         0
36.900       140
36.920        87
36.940        40
36.960        20
36.980        13
37.000        20
37.020        47
37.040        20
37.060       173
37.080        40
37.100         0
37.120        33
37.140        40
37.160        80
37.180        60
37.200       133
37.220        47
37.240        67
37.260        53
37.280       133
37.300         0
37.320        87
37.340       107
37.360       100
37.380        60
37.400       153
37.420       187
37.440       187
37.460        80
37.480       113
37.500       240
37.520       180
37.540       180
37.560       133
37.580       153
37.600       207
37.620       260
37.640       387
37.660       373
37.680       273
37.700       313
37.720       486
37.740       340
37.760       293
37.780       453
37.800       320
37.820       287
37.840       273
37.860       333
37.880       293
37.900        87
37.920       133
37.940       227
37.960       120
37.980       187
38.000       133
38.020        40
38.040       220
38.060       140
38.080       133
38.100       193
38.120        93
38.140       107
38.160       193
38.180       267
38.200       173
38.220       200
38.240       140
38.260       200
38.280       147
38.300       167
38.320       280
38.340       240
38.360       220
38.380       367
38.400       333
38.420       240
38.440       273
38.460       313
38.480       253
38.500       187
38.520       300
38.540       240
38.560       120
38.580       133
38.600        67
38.620       140
38.640       227
38.660       160
38.680       260
38.700       100
38.720       133
38.740       233
38.760       133
38.780       260
38.800       200
38.820       167
38.840       247
38.860        40
38.880       280
38.900       207
38.920       133
38.940       100
38.960       120
38.980       140
39.000       293
39.020       373
39.040       233
39.060       167
39.080       393
39.100       293
39.120       160
39.140       287
39.160       433
39.180       280
39.200       433
39.220       407
39.240       473
39.260       600
39.280       533
39.300       633
39.320       640
39.340       806
39.360       686
39.380       846
39.400       826
39.420       986
39.440       800
39.460       846
39.480       673
39.500       586
39.520       706
39.540       466
39.560       460
39.580       387
39.600       313
39.620       293
39.640       220
39.660       173
39.680       180
39.700       147
39.720        73
39.740       153
39.760       247
39.780       140
39.800        47
39.820       167
39.840       107
39.860        93
39.880       140
39.900       120
39.920       147
39.940       173
39.960        67
39.980       127
40.000       260
40.020        67
40.040        47
40.060       180
40.080       160
40.100       173
40.120        87
40.140       107
40.160        33
40.180       213
40.200       133
40.220       100
40.240        80
40.260       107
40.280       133
40.300       120
40.320       180
40.340       140
40.360       133
40.380       133
40.400        87
40.420        73
40.440       107
40.460       107
40.480        67
40.500       100
40.520       113
40.540        87
40.560       100
40.580       100
40.600        93
40.620        27
40.640       113
40.660       133
40.680        53
40.700       200
40.720        13
40.740       100
40.760       267
40.780       153
40.800       100
40.820        60
40.840       193
40.860        67
40.880       100
40.900        53
40.920       107
40.940       140
40.960       167
40.980        93
41.000       153
41.020        60
41.040       160
41.060        27
41.080       127
41.100       113
41.120       220
41.140        27
41.160        73
41.180       120
41.200       193
41.220       147
41.240        60
41.260         0
41.280       147
41.300        73
41.320       147
41.340       180
41.360       113
41.380         0
41.400       267
41.420        87
41.440        47
41.460       133
41.480       127
41.500       213
41.520        80
41.540       133
41.560        53
41.580       153
41.600       167
41.620        73
41.640       107
41.660       140
41.680        73
41.700        20
41.720       107
41.740       107
41.760        67
41.780        80
41.800        87
41.820        53
41.840       160
41.860       147
41.880       187
41.900       120
41.920       100
41.940       160
41.960       167
41.980        87
42.000       140
42.020        67
42.040        93
42.060        33
42.080        73
42.100        93
42.120        40
42.140       173
42.160       193
42.180       227
42.200       180
42.220       140
42.240        80
42.260       100
42.280        20
42.300       127
42.320       180
42.340       100
42.360       133
42.380       107
42.400       153
42.420       153
42.440       240
42.460       120
42.480       107
42.500        40
42.520        73
42.540       187
42.560       147
42.580        60
42.600       107
42.620       187
42.640       160
42.660       127
42.680        93
42.700       160
42.720       187
42.740       167
42.760       127
42.780        60
42.800         0
42.820       193
42.840       187
42.860       233
42.880       173
42.900        80
42.920       147
42.940       273
42.960       247
42.980       193
43.000       340
43.020       340
43.040       327
43.060       580
43.080       513
43.100       593
43.120       733
43.140       726
43.160       760
43.180       733
43.200       700
43.220       666
43.240       586
43.260       606
43.280       586
43.300       413
43.320       353
43.340       373
43.360       280
43.380       327
43.400       267
43.420        20
43.440       200
43.460       127
43.480        53
43.500        80
43.520        20
43.540       100
43.560       180
43.580       120
43.600        93
43.620       147
43.640       147
43.660       147
43.680        53
43.700       160
43.720        87
43.740        27
43.760         0
43.780       153
43.800       160
43.820       147
43.840       160
43.860       133
43.880       120
43.900        80
43.920        40
43.940       140
43.960        13
43.980        87
44.000         7
44.020       120
44.040        67
44.060       100
44.080        47
44.100       107
44.120         0
44.140       127
44.160       200
44.180         7
44.200       147
44.220        33
44.240       113
44.260        27
44.280       220
44.300       107
44.320        27
44.340        73
44.360        60
44.380        80
44.400        47
44.420       113
44.440        73
44.460        40
44.480        80
44.500       107
44.520       100
44.540         0
44.560        67
44.580         0
44.600        47
44.620       153
44.640       167
44.660        60
44.680       120
44.700        27
44.720        20
44.740        67
44.760       113
44.780        60
44.800       133
44.820       133
44.840        53
44.860        13
44.880       153
44.900        73
44.920         0
44.940       120
44.960       180
44.980       120
45.000        27
45.020       133
45.040       133
45.060       100
45.080        80
45.100       167
45.120       140
45.140       107
45.160       100
45.180        87
45.200       147
45.220       173
45.240       120
45.260       113
45.280       173
45.300       133
45.320       247
45.340       180
45.360       140
45.380       220
45.400       233
45.420       260
45.440       220
45.460       207
45.480       293
45.500       327
45.520       353
45.540       180
45.560       300
45.580       120
45.600       247
45.620       240
45.640       367
45.660       133
45.680       433
45.700       333
45.720       247
45.740       380
45.760       287
45.780       393
45.800       400
45.820       420
45.840       373
45.860       633
45.880       506
45.900       573
45.920       600
45.940       600
45.960       633
45.980       660
46.000       806
46.020       740
46.040       693
46.060       526
46.080       600
46.100       620
46.120       580
46.140       466
46.160       380
46.180       340
46.200       506
46.220       307
46.240       387
46.260       413
46.280       333
46.300       267
46.320       233
46.340       207
46.360       233
46.380       280
46.400       227
46.420       207
46.440       167
46.460       220
46.480       173
46.500       127
46.520       140
46.540       180
46.560       267
46.580        60
46.600       220
46.620       147
46.640       107
46.660       160
46.680       193
46.700       107
46.720       220
46.740       280
46.760        33
46.780       127
46.800       173
46.820       213
46.840       127
46.860       287
46.880       233
46.900       173
46.920       293
46.940       273
46.960       327
46.980       227
47.000       127
47.020       260
47.040       380
47.060       353
47.080       460
47.100       293
47.120       287
47.140       353
47.160       513
47.180       353
47.200       446
47.220       420
47.240       380
47.260       440
47.280       426
47.300       506
47.320       387
47.340       453
47.360       486
47.380       586
47.400       633
47.420       646
47.440       880
47.460       813
47.480       946
47.500       860
47.520      1053
47.540      1053
47.560       960
47.580       906
47.600       826
47.620       700
47.640       560
47.660       720
47.680       506
47.700       513
47.720       240
47.740       233
47.760       353
47.780       153
47.800       240
47.820       107
47.840       153
47.860       127
47.880        80
47.900       160
47.920       100
47.940        93
47.960       147
47.980         0
48.000       147
48.020       140
48.040       260
48.060       160
48.080        73
48.100       193
48.120        73
48.140       207
48.160        47
48.180       100
48.200       100
48.220       187
48.240       267
48.260       173
48.280       313
48.300       273
48.320       440
48.340       313
48.360       353
48.380       493
48.400       440
48.420       580
48.440       680
48.460       666
48.480      1000
48.500       940
48.520       853
48.540      1100
48.560       820
48.580       753
48.600       880
48.620       633
48.640       646
48.660       506
48.680       413
48.700       240
48.720       380
48.740       287
48.760       213
48.780       153
48.800       107
48.820       140
48.840       213
48.860       187
48.880       113
48.900         0
48.920         0
48.940        13
48.960        40
48.980         0
49.000        27
49.020       120
49.040        20
49.060        93
49.080        60
49.100        73
49.120        80
49.140        87
49.160        47
49.180        80
49.200       133
49.220        73
49.240        13
49.260       127
49.280        67
49.300        73
49.320        67
49.340        40
49.360       100
49.380        20
49.400        40
49.420        93
49.440        67
49.460       100
49.480        80
49.500        73
49.520        27
49.540        27
49.560        73
49.580        27
49.600       140
49.620        53
49.640        40
49.660       107
49.680       153
49.700         0
49.720        80
49.740       113
49.760        73
49.780       100
49.800         0
49.820        80
49.840        13
49.860        60
49.880         0
49.900        53
49.920        93
49.940         0
49.960        33
49.980       127
50.000         0
50.020       227
50.040        73
50.060        73
50.080         7
50.100        60
50.120         0
50.140       120
50.160       100
50.180         7
50.200       173
50.220        87
50.240       120
50.260        93
50.280       107
50.300        13
50.320        80
50.340        47
50.360       160
50.380         0
50.400         0
50.420         0
50.440        47
50.460         7
50.480        60
50.500         0
50.520         0
50.540        67
50.560       160
50.580        87
50.600       147
50.620        80
50.640        73
50.660        67
50.680        13
50.700         0
50.720        13
50.740       107
50.760        33
50.780         0
50.800        53
50.820        40
50.840       120
50.860        27
50.880       180
50.900       120
50.920       100
50.940       240
50.960        60
50.980       213
51.000       200
51.020       113
51.040       180
51.060       113
51.080       147
51.100       207
51.120       140
51.140        93
51.160       187
51.180       147
51.200       193
51.220       107
51.240       140
51.260        60
51.280       140
51.300       113
51.320        40
51.340       120
51.360       113
51.380         7
51.400         0
51.420         0
51.440        73
51.460        87
51.480        33
51.500         0
51.520         0
51.540         0
51.560        33
51.580       100
51.600        27
51.620         0
51.640        20
51.660        87
51.680         0
51.700         7
51.720         7
51.740        33
51.760        67
51.780         0
51.800        13
51.820        20
51.840         0
51.860         0
51.880         7
51.900        47
51.920        13
51.940         7
51.960        60
51.980       120
52.000        67
52.020         0
52.040         7
52.060        13
52.080         7
52.100        87
52.120        93
52.140         0
52.160        20
52.180       160
52.200        73
52.220        47
52.240        67
52.260        13
52.280        47
52.300        80
52.320        60
52.340         0
52.360        27
52.380        80
52.400         0
52.420       113
52.440         0
52.460       180
52.480         0
52.500        27
52.520        47
52.540        60
52.560        33
52.580         0
52.600       100
52.620        47
52.640       120
52.660        13
52.680        87
52.700       113
52.720        40
52.740        27
52.760        53
52.780        33
52.800        60
52.820       140
52.840        67
52.860       127
52.880         0
52.900        20
52.920         7
52.940        60
52.960       120
52.980        27
53.000       140
53.020         7
53.040       100
53.060         0
53.080       133
53.100         0
53.120        60
53.140         0
53.160        87
53.180        53
53.200       107
53.220        13
53.240        67
53.260       107
53.280         0
53.300         0
53.320        93
53.340        47
53.360         0
53.380       100
53.400       120
53.420       193
53.440         0
53.460        33
53.480        20
53.500        60
53.520        80
53.540        73
53.560        40
53.580        87
53.600       107
53.620        47
53.640        60
53.660        47
53.680         0
53.700        87
53.720        20
53.740         0
53.760        60
53.780        93
53.800       153
53.820       160
53.840        53
53.860         0
53.880        40
53.900        87
53.920        33
53.940        33
53.960       113
53.980       107
54.000        73
54.020         0
54.040       113
54.060       167
54.080        73
54.100        27
54.120        13
54.140       100
54.160       120
54.180       107
54.200        33
54.220        93
54.240        47
54.260       107
54.280        47
54.300       107
54.320       113
54.340       120
54.360       107
54.380         0
54.400        33
54.420        73
54.440       207
54.460        53
54.480       113
54.500       173
54.520       207
54.540        87
54.560        73
54.580       107
54.600        27
54.620       113
54.640        20
54.660       140
54.680       140
54.700       140
54.720        60
54.740       120
54.760       167
54.780        67
54.800       133
54.820       193
54.840        47
54.860       247
54.880       153
54.900       260
54.920       167
54.940       207
54.960       120
54.980       193
55.000       267
55.020       173
55.040       200
55.060       180
55.080       160
55.100       407
55.120       227
55.140       127
55.160       167
55.180       293
55.200       193
55.220       147
55.240       120
55.260       187
55.280       107
55.300       147
55.320       233
55.340        80
55.360       167
55.380        80
55.400       133
55.420       167
55.440        33
55.460       220
55.480       160
55.500       153
55.520        80
55.540       107
55.560       113
55.580        93
55.600        73
55.620       180
55.640        93
55.660       107
55.680        87
55.700        33
55.720        13
55.740        87
55.760       127
55.780        80
55.800       113
55.820       120
55.840       100
55.860        73
55.880         0
55.900        47
55.920        80
55.940        53
55.960       113
55.980        73
56.000       100
56.020        80
56.040        20
56.060         0
56.080       167
56.100       113
56.120        93
56.140        73
56.160       160
56.180        87
56.200        47
56.220        53
56.240        33
56.260        60
56.280        33
56.300       147
56.320        80
56.340        60
56.360        93
56.380       120
56.400        60
56.420       180
56.440        80
56.460       120
56.480       120
56.500       153
56.520       247
56.540       240
56.560       307
56.580       280
56.600        93
56.620       327
56.640       367
56.660       247
56.680       173
56.700       193
56.720       193
56.740       200
56.760       247
56.780        53
56.800       213
56.820       193
56.840        93
56.860       160
56.880       100
56.900       120
56.920       187
56.940        93
56.960        80
56.980       133
57.000       127
57.020        40
57.040       140
57.060       100
57.080        67
57.100        80
57.120         0
57.140        93
57.160       113
57.180       147
57.200       207
57.220       253
57.240       320
57.260       293
57.280       347
57.300       227
57.320       273
57.340       353
57.360       393
57.380       293
57.400       506
57.420       387
57.440       400
57.460       347
57.480       307
57.500       273
57.520       227
57.540       307
57.560       453
57.580       360
57.600       160
57.620       167
57.640       100
57.660       160
57.680       153
57.700        27
57.720        93
57.740        93
57.760       207
57.780         0
57.800        73
57.820        47
57.840        73
57.860       140
57.880        27
57.900        33
57.920       120
57.940        27
57.960        73
57.980        20
58.000       140
58.020       153
58.040       200
58.060       120
58.080       173
58.100       153
58.120       187
58.140       220
58.160        80
58.180       120
58.200       100
58.220       167
58.240       167
58.260       100
58.280       167
58.300        53
58.320         0
58.340        20
58.360        53
58.380        93
58.400        53
58.420       167
58.440         0
58.460        40
58.480         0
58.500         0
58.520        87
58.540        93
58.560        33
58.580        40
58.600        33
58.620       113
58.640       120
58.660        27
58.680        73
58.700        40
58.720         7
58.740         0
58.760        93
58.780         0
58.800         0
58.820        87
58.840        47
58.860        53
58.880         7
58.900         7
58.920        80
58.940        73
58.960        33
58.980        13
59.000        93
59.020         0
59.040        80
59.060         0
59.080         7
59.100       107
59.120         0
59.140         0
59.160        33
59.180        33
59.200         7
59.220        13
59.240        53
59.260        40
59.280        47
59.300        27
59.320         0
59.340        80
59.360        13
59.380         7
59.400        73
59.420        67
59.440         0
59.460        47
59.480        80
59.500       107
59.520       147
59.540        47
59.560        13
59.580         0
59.600         0
59.620        47
59.640       107
59.660        13
59.680        13
59.700       100
59.720        47
59.740         7
59.760        80
59.780       280
59.800       127
59.820        20
59.840        93
59.860       107
59.880       120
59.900       107
59.920       173
59.940       107
59.960       167
59.980       187
60.000        40
