20.000       671
20.020       728
20.040       785
20.060      1057
20.080       828
20.100       685
20.120       614
20.140       714
20.160       757
20.180       828
20.200       700
20.220       700
20.240       700
20.260       828
20.280       657
20.300       757
20.320       728
20.340       800
20.360       714
20.380       600
20.400       857
20.420       514
20.440       743
20.460       600
20.480       900
20.500       600
20.520       800
20.540       671
20.560       657
20.580       643
20.600       671
20.620       800
20.640       757
20.660       700
20.680       685
20.700       643
20.720       785
20.740       828
20.760       914
20.780       771
20.800       771
20.820       671
20.840       743
20.860       814
20.880       671
20.900       857
20.920       685
20.940       843
20.960       914
20.980       714
21.000       700
21.020       743
21.040       628
21.060       714
21.080       814
21.100       628
21.120       828
21.140       614
21.160       757
21.180       885
21.200       828
21.220       985
21.240       657
21.260       757
21.280       757
21.300       871
21.320      1057
21.340       942
21.360       757
21.380       671
21.400       828
21.420       671
21.440       643
21.460       785
21.480       800
21.500       800
21.520       757
21.540       585
21.560       657
21.580       685
21.600       443
21.620       514
21.640       771
21.660       486
21.680       714
21.700       800
21.720       614
21.740       743
21.760       671
21.780       700
21.800       614
21.820       671
21.840       685
21.860       457
21.880       685
21.900       643
21.920       657
21.940       614
21.960       814
21.980       557
22.000       571
22.020       500
22.040       414
22.060       585
22.080       528
22.100       528
22.120       700
22.140       714
22.160       585
22.180       628
22.200       428
22.220       657
22.240       585
22.260       543
22.280       557
22.300       643
22.320       700
22.340       471
22.360       643
22.380       585
22.400       685
22.420       571
22.440       600
22.460       571
22.480       671
22.500       685
22.520       543
22.540       600
22.560       628
22.580       671
22.600       800
22.620       900
22.640       871
22.660       900
22.680       885
22.700      1128
22.720       885
22.740      1142
22.760      1385
22.780      1257
22.800      1200
22.820      1471
22.840      1428
22.860      1385
22.880      1414
22.900      1414
22.920      1214
22.940      1128
22.960       971
22.980       800
23.000       743
23.020       728
23.040       700
23.060       628
23.080       557
23.100       714
23.120       557
23.140       571
23.160       585
23.180       728
23.200       785
23.220       557
23.240       685
23.260       643
23.280       514
23.300       714
23.320       628
23.340       557
23.360       457
23.380       585
23.400       571
23.420       557
23.440       671
23.460       843
23.480       414
23.500       500
23.520       714
23.540       643
23.560       671
23.580       500
23.600       514
23.620       528
23.640       543
23.660       643
23.680       614
23.700       528
23.720       443
23.740       486
23.760       428
23.780       386
23.800       457
23.820       600
23.840       443
23.860       800
23.880       571
23.900       457
23.920       643
23.940       543
23.960       600
23.980       371
24.000       443
24.020       585
24.040       585
24.060       571
24.080       471
24.100       528
24.120       585
24.140       514
24.160       486
24.180       785
24.200       671
24.220       614
24.240       528
24.260       557
24.280       714
24.300       543
24.320       600
24.340       728
24.360       486
24.380       514
24.400       500
24.420       528
24.440       700
24.460       514
24.480       643
24.500       600
24.520       714
24.540       600
24.560       800
24.580       800
24.600       743
24.620       571
24.640       614
24.660       628
24.680       643
24.700       743
24.720       728
24.740       743
24.760       671
24.780      1000
24.800       600
24.820       614
24.840       543
24.860       671
24.880       471
24.900       500
24.920       614
24.940       471
24.960       543
24.980       571
25.000       500
25.020       357
25.040       571
25.060       500
25.080       514
25.100       414
25.120       685
25.140       528
25.160       528
25.180       514
25.200       414
25.220       443
25.240       614
25.260       628
25.280       643
25.300       443
25.320       600
25.340       400
25.360       685
25.380       486
25.400       571
25.420       514
25.440       428
25.460       514
25.480       743
25.500       500
25.520       657
25.540       543
25.560       614
25.580       571
25.600       543
25.620       685
25.640       557
25.660       600
25.680       386
25.700       486
25.720       571
25.740       643
25.760       543
25.780       486
25.800       528
25.820       643
25.840       600
25.860       386
25.880       414
25.900       314
25.920       386
25.940       443
25.960       386
25.980       528
26.000       471
26.020       528
26.040       428
26.060       400
26.080       528
26.100       514
26.120       585
26.140       457
26.160       486
26.180       457
26.200       386
26.220       471
26.240       557
26.260       286
26.280       528
26.300       371
26.320       486
26.340       614
26.360       585
26.380       428
26.400       443
26.420       314
26.440       486
26.460       500
26.480       500
26.500       400
26.520       514
26.540       428
26.560       700
26.580       300
26.600       557
26.620       486
26.640       343
26.660       514
26.680       528
26.700       414
26.720       400
26.740       543
26.760       643
26.780       443
26.800       386
26.820       357
26.840       314
26.860       328
26.880       500
26.900       428
26.920       357
26.940       443
26.960       400
26.980       428
27.000       500
27.020       371
27.040       400
27.060       414
27.080       414
27.100       357
27.120       371
27.140       457
27.160       400
27.180       386
27.200       514
27.220       471
27.240       571
27.260       628
27.280       414
27.300       443
27.320       400
27.340       514
27.360       371
27.380       543
27.400       486
27.420       271
27.440       443
27.460       528
27.480       500
27.500       414
27.520       371
27.540       428
27.560       414
27.580       400
27.600       357
27.620       614
27.640       585
27.660       271
27.680       614
27.700       286
27.720       543
27.740       400
27.760       585
27.780       514
27.800       471
27.820       400
27.840       600
27.860       543
27.880       328
27.900       471
27.920       386
27.940       543
27.960       471
27.980       328
28.000       486
28.020       414
28.040       486
28.060       571
28.080       500
28.100       371
28.120       571
28.140       528
28.160       357
28.180       671
28.200       557
28.220       457
28.240       486
28.260       400
28.280       371
28.300       471
28.320       585
28.340       386
28.360       443
28.380       443
28.400       386
28.420       457
28.440       514
28.460       228
28.480       486
28.500       343
28.520       414
28.540       286
28.560       400
28.580       414
28.600       585
28.620       457
28.640       386
28.660       443
28.680       486
28.700       371
28.720       585
28.740       328
28.760       428
28.780       428
28.800       486
28.820       386
28.840       543
28.860       671
28.880       571
28.900       386
28.920       514
28.940       557
28.960       514
28.980       800
29.000       457
29.020       700
29.040       800
29.060       700
29.080       942
29.100       885
29.120       700
29.140       971
29.160      1114
29.180      1228
29.200      1214
29.220      1200
29.240      1328
29.260      1242
29.280      1285
29.300      1200
29.320      1000
29.340      1085
29.360       800
29.380       628
29.400       671
29.420       643
29.440       543
29.460       357
29.480       414
29.500       428
29.520       557
29.540       514
29.560       357
29.580       486
29.600       457
29.620       371
29.640       614
29.660       371
29.680       471
29.700       400
29.720       386
29.740       243
29.760       614
29.780       457
29.800       343
29.820       414
29.840       514
29.860       271
29.880       457
29.900       428
29.920       671
29.940       486
29.960       486
29.980       514
30.000       557
30.020       471
30.040       443
30.060       314
30.080       386
30.100       300
30.120       557
30.140       343
30.160       514
30.180       486
30.200       386
30.220       457
30.240       371
30.260       414
30.280       557
30.300       600
30.320       428
30.340       443
30.360       428
30.380       400
30.400       400
30.420       443
30.440       328
30.460       471
30.480       457
30.500       500
30.520       357
30.540       357
30.560       486
30.580       386
30.600       443
30.620       357
30.640       371
30.660       271
30.680       543
30.700       343
30.720       314
30.740       286
30.760       471
30.780       400
30.800       386
30.820       457
30.840       528
30.860       471
30.880       400
30.900       443
30.920       314
30.940       500
30.960       443
30.980       457
31.000       386
31.020       371
31.040       343
31.060       486
31.080       371
31.100       200
31.120       357
31.140       300
31.160       386
31.180       257
31.200       386
31.220       514
31.240       371
31.260       500
31.280       428
31.300       314
31.320       471
31.340       314
31.360       314
31.380       400
31.400       228
31.420       486
31.440       357
31.460       543
31.480       328
31.500       357
31.520       500
31.540       486
31.560       428
31.580       443
31.600       428
31.620       428
31.640       557
31.660       414
31.680       457
31.700       471
31.720       528
31.740       428
31.760       457
31.780       457
31.800       414
31.820       357
31.840       514
31.860       500
31.880       400
31.900       357
31.920       443
31.940       371
31.960       428
31.980       428
32.000       486
32.020       343
32.040       314
32.060       414
32.080       514
32.100       286
32.120       685
32.140       471
32.160       471
32.180       343
32.200       328
32.220       643
32.240       528
32.260       457
32.280       557
32.300       471
32.320       714
32.340       614
32.360       585
32.380       500
32.400       828
32.420      1000
32.440       714
32.460       785
32.480       985
32.500       900
32.520       928
32.540       814
32.560       757
32.580       914
32.600       957
32.620       671
32.640       900
32.660       500
32.680       571
32.700       643
32.720       528
32.740       585
32.760       628
32.780       486
32.800       414
32.820       414
32.840       528
32.860       400
32.880       600
32.900       414
32.920       457
32.940       500
32.960       428
32.980       386
33.000       357
33.020       400
33.040       357
33.060       414
33.080       514
33.100       314
33.120       328
33.140       386
33.160       414
33.180       414
33.200       386
33.220       328
33.240       428
33.260       386
33.280       371
33.300       400
33.320       428
33.340       314
33.360       514
33.380       428
33.400       414
33.420       414
33.440       386
33.460       428
33.480       400
33.500       271
33.520       443
33.540       257
33.560       286
33.580       443
33.600       357
33.620       428
33.640       443
33.660       328
33.680       343
33.700       343
33.720       371
33.740       228
33.760       371
33.780       371
33.800       471
33.820       414
33.840       528
33.860       471
33.880       257
33.900       386
33.920       400
33.940       371
33.960       500
33.980       371
34.000       428
34.020       471
34.040       271
34.060       471
34.080       571
34.100       386
34.120       471
34.140       457
34.160       471
34.180       600
34.200       443
34.220       386
34.240       314
34.260       457
34.280       428
34.300       443
34.320       386
34.340       428
34.360       414
34.380       314
34.400       514
34.420       543
34.440       343
34.460       443
34.480       428
34.500       343
34.520       400
34.540       443
34.560       457
34.580       428
34.600       514
34.620       514
34.640       486
34.660       414
34.680       471
34.700       543
34.720       414
34.740       428
34.760       386
34.780       400
34.800       486
34.820       386
34.840       500
34.860       400
34.880       400
34.900       328
34.920       400
34.940       371
34.960       500
34.980       443
35.000       414
35.020       486
35.040       443
35.060       443
35.080       343
35.100       386
35.120       428
35.140       357
35.160       357
35.180       514
35.200       500
35.220       500
35.240       314
35.260       457
35.280       371
35.300       428
35.320       400
35.340       428
35.360       471
35.380       471
35.400       428
35.420       585
35.440       486
35.460       400
35.480       585
35.500       514
35.520       428
35.540       543
35.560       457
35.580       457
35.600       486
35.620       628
35.640       328
35.660       514
35.680       514
35.700       500
35.720       557
35.740       600
35.760       657
35.780       528
35.800       414
35.820       486
35.840       743
35.860       428
35.880       557
35.900       585
35.920       557
35.940       343
35.960       486
35.980       371
36.000       371
36.020       486
36.040       414
36.060       443
36.080       400
36.100       371
36.120       486
36.140       400
36.160       357
36.180       271
36.200       314
36.220       400
36.240       557
36.260       443
36.280       371
36.300       314
36.320       257
36.340       486
36.360       414
36.380       371
36.400       443
36.420       471
36.440       386
36.460       386
36.480       557
36.500       343
36.520       357
36.540       328
36.560       300
36.580       343
36.600       414
36.620       343
36.640       457
36.660       328
36.680       386
36.700       414
36.720       371
36.740       357
36.760       386
36.780       500
36.800       343
36.820       443
36.840       357
36.860       300
36.880       328
36.900       457
36.920       343
36.940       471
36.960       343
36.980       585
37.000       428
37.020       400
37.040       386
37.060       471
37.080       457
37.100       371
37.120       443
37.140       443
37.160       257
37.180       400
37.200       386
37.220       400
37.240       343
37.260       328
37.280       457
37.300       357
37.320       585
37.340       371
37.360       486
37.380       414
37.400       386
37.420       414
37.440       314
37.460       471
37.480       400
37.500       514
37.520       471
37.540       371
37.560       371
37.580       357
37.600       343
37.620       400
37.640       400
37.660       286
37.680       428
37.700       400
37.720       500
37.740       400
37.760       357
37.780       471
37.800       471
37.820       414
37.840       371
37.860       457
37.880       286
37.900       357
37.920       486
37.940       443
37.960       400
37.980       400
38.000       471
38.020       457
38.040       357
38.060       428
38.080       314
38.100       486
38.120       414
38.140       643
38.160       471
38.180       443
38.200       500
38.220       486
38.240       500
38.260       471
38.280       443
38.300       657
38.320       443
38.340       600
38.360       386
38.380       428
38.400       486
38.420       614
38.440       271
38.460       471
38.480       514
38.500       357
38.520       528
38.540       414
38.560       443
38.580       471
38.600       571
38.620       414
38.640       400
38.660       371
38.680       486
38.700       500
38.720       443
38.740       286
38.760       414
38.780       400
38.800       328
38.820       443
38.840       471
38.860       371
38.880       500
38.900       428
38.920       543
38.940       571
38.960       457
38.980       514
39.000       471
39.020       528
39.040       585
39.060       557
39.080       514
39.100       571
39.120       743
39.140       628
39.160       543
39.180       685
39.200       800
39.220       714
39.240       571
39.260       785
39.280       671
39.300       657
39.320       614
39.340       714
39.360       614
39.380       585
39.400       486
39.420       557
39.440       328
39.460       457
39.480       371
39.500       471
39.520       357
39.540       300
39.560       528
39.580       443
39.600       486
39.620       343
39.640       471
39.660       514
39.680       486
39.700       457
39.720       414
39.740       500
39.760       543
39.780       371
39.800       386
39.820       428
39.840       543
39.860       400
39.880       486
39.900       414
39.920       457
39.940       428
39.960       514
39.980       386
40.000       457
40.020       557
40.040       428
40.060       514
40.080       357
40.100       471
40.120       457
40.140       743
40.160       414
40.180       514
40.200       528
40.220       528
40.240       543
40.260       500
40.280       585
40.300       371
40.320       443
40.340       457
40.360       557
40.380       471
40.400       400
40.420       357
40.440       528
40.460       571
40.480       443
40.500       286
40.520       600
40.540       643
40.560       328
40.580       514
40.600       557
40.620       357
40.640       457
40.660       257
40.680       428
40.700       400
40.720       500
40.740       457
40.760       443
40.780       543
40.800       443
40.820       343
40.840       400
40.860       486
40.880       457
40.900       528
40.920       443
40.940       528
40.960       543
40.980       371
41.000       486
41.020       471
41.040       400
41.060       486
41.080       471
41.100       486
41.120       386
41.140       514
41.160       386
41.180       371
41.200       414
41.220       371
41.240       457
41.260       471
41.280       614
41.300       414
41.320       514
41.340       286
41.360       457
41.380       343
41.400       543
41.420       414
41.440       357
41.460       428
41.480       300
41.500       386
41.520       457
41.540       443
41.560       414
41.580       471
41.600       371
41.620       357
41.640       443
41.660       443
41.680       357
41.700       314
41.720       371
41.740       271
41.760       400
41.780       428
41.800       343
41.820       600
41.840       543
41.860       443
41.880       457
41.900       500
41.920       328
41.940       557
41.960       343
41.980       443
42.000       443
42.020       457
42.040       286
42.060       414
42.080       457
42.100       386
42.120       585
42.140       386
42.160       457
42.180       300
42.200       500
42.220       357
42.240       414
42.260       428
42.280       357
42.300       400
42.320       371
42.340       486
42.360       343
42.380       328
42.400       543
42.420       386
42.440       457
42.460       300
42.480       471
42.500       443
42.520       500
42.540       414
42.560       471
42.580       514
42.600       328
42.620       457
42.640       414
42.660       428
42.680       457
42.700       457
42.720       514
42.740       471
42.760       685
42.780       471
42.800       500
42.820       371
42.840       743
42.860       386
42.880       543
42.900       500
42.920       500
42.940       628
42.960       600
42.980       457
43.000       714
43.020       643
43.040       428
43.060       614
43.080       457
43.100       528
43.120       557
43.140       414
43.160       514
43.180       414
43.200       357
43.220       486
43.240       471
43.260       500
43.280       343
43.300       300
43.320       471
43.340       357
43.360       443
43.380       328
43.400       371
43.420       371
43.440       443
43.460       414
43.480       443
43.500       514
43.520       457
43.540       400
43.560       528
43.580       386
43.600       386
43.620       471
43.640       486
43.660       457
43.680       400
43.700       628
43.720       471
43.740       357
43.760       343
43.780       400
43.800       471
43.820       414
43.840       357
43.860       471
43.880       328
43.900       571
43.920       443
43.940       314
43.960       286
43.980       443
44.000       343
44.020       428
44.040       371
44.060       543
44.080       386
44.100       357
44.120       343
44.140       328
44.160       400
44.180       457
44.200       371
44.220       257
44.240       328
44.260       328
44.280       443
44.300       357
44.320       471
44.340       400
44.360       443
44.380       400
44.400       428
44.420       386
44.440       443
44.460       386
44.480       443
44.500       457
44.520       328
44.540       528
44.560       557
44.580       486
44.600       543
44.620       414
44.640       400
44.660       371
44.680       343
44.700       314
44.720       414
44.740       357
44.760       343
44.780       585
44.800       443
44.820       428
44.840       386
44.860       371
44.880       400
44.900       471
44.920       471
44.940       400
44.960       486
44.980       557
45.000       528
45.020       328
45.040       400
45.060       500
45.080       500
45.100       400
45.120       571
45.140       414
45.160       443
45.180       643
45.200       500
45.220       500
45.240       471
45.260       500
45.280       443
45.300       371
45.320       371
45.340       371
45.360       428
45.380       500
45.400       471
45.420       357
45.440       400
45.460       257
45.480       371
45.500       457
45.520       400
45.540       371
45.560       400
45.580       300
45.600       300
45.620       386
45.640       500
45.660       500
45.680       328
45.700       357
45.720       471
45.740       328
45.760       371
45.780       314
45.800       300
45.820       371
45.840       414
45.860       357
45.880       428
45.900       471
45.920       286
45.940       471
45.960       414
45.980       428
46.000       371
46.020       443
46.040       414
46.060       300
46.080       328
46.100       500
46.120       400
46.140       428
46.160       400
46.180       543
46.200       314
46.220       257
46.240       371
46.260       600
46.280       628
46.300       428
46.320       643
46.340       500
46.360       471
46.380       471
46.400       571
46.420       843
46.440       628
46.460       785
46.480       843
46.500       757
46.520      1042
46.540      1214
46.560      1228
46.580      1171
46.600      1442
46.620      1699
46.640      2171
46.660      2071
46.680      2656
46.700      2271
46.720      2342
46.740      2442
46.760      2228
46.780      2313
46.800      2271
46.820      2256
46.840      2056
46.860      1914
46.880      1942
46.900      1714
46.920      1542
46.940      1342
46.960      1457
46.980      1228
47.000       885
47.020      1028
47.040       871
47.060       671
47.080       714
47.100       543
47.120       814
47.140       714
47.160       757
47.180       571
47.200       585
47.220       685
47.240       614
47.260       628
47.280       728
47.300       700
47.320       671
47.340       743
47.360       571
47.380       643
47.400       800
47.420       528
47.440       500
47.460       643
47.480       500
47.500       643
47.520       543
47.540       514
47.560       457
47.580       443
47.600       400
47.620       400
47.640       414
47.660       343
47.680       528
47.700       386
47.720       528
47.740       428
47.760       500
47.780       400
47.800       457
47.820       328
47.840       428
47.860       428
47.880       600
47.900       443
47.920       386
47.940       571
47.960       457
47.980       300
48.000       486
48.020       371
48.040       414
48.060       486
48.080       400
48.100       643
48.120       428
48.140       428
48.160       414
48.180       528
48.200       671
48.220       571
48.240       771
48.260       486
48.280       528
48.300       628
48.320       614
48.340       671
48.360       671
48.380       700
48.400       685
48.420       585
48.440       600
48.460       500
48.480       371
48.500       514
48.520       443
48.540       457
48.560       557
48.580       500
48.600       414
48.620       514
48.640       414
48.660       286
48.680       371
48.700       357
48.720       371
48.740       557
48.760       386
48.780       343
48.800       357
48.820       343
48.840       428
48.860       328
48.880       371
48.900       371
48.920       357
48.940       443
48.960       557
48.980       371
49.000       414
49.020       271
49.040       486
49.060       414
49.080       500
49.100       414
49.120       443
49.140       428
49.160       414
49.180       314
49.200       357
49.220       414
49.240       486
49.260       443
49.280       357
49.300       328
49.320       343
49.340       400
49.360       400
49.380       471
49.400       471
49.420       386
49.440       500
49.460       443
49.480       357
49.500       428
49.520       628
49.540       471
49.560       428
49.580       500
49.600       414
49.620       386
49.640       243
49.660       371
49.680       357
49.700       428
49.720       528
49.740       343
49.760       486
49.780       386
49.800       500
49.820       343
49.840       486
49.860       271
49.880       386
49.900       443
49.920       414
49.940       371
49.960       457
49.980       486
50.000       414
50.020       371
50.040       443
50.060       386
50.080       400
50.100       357
50.120       371
50.140       357
50.160       457
50.180       486
50.200       500
50.220       500
50.240       343
50.260       300
50.280       386
50.300       428
50.320       371
50.340       343
50.360       371
50.380       457
50.400       514
50.420       414
50.440       600
50.460       486
50.480       514
50.500       371
50.520       357
50.540       386
50.560       357
50.580       514
50.600       400
50.620       357
50.640       400
50.660       328
50.680       428
50.700       300
50.720       471
50.740       371
50.760       414
50.780       428
50.800       400
50.820       457
50.840       357
50.860       357
50.880       528
50.900       371
50.920       386
50.940       471
50.960       457
50.980       428
51.000       585
51.020       328
51.040       271
51.060       500
51.080       314
51.100       443
51.120       357
51.140       328
51.160       557
51.180       214
51.200       557
51.220       328
51.240       314
51.260       428
51.280       486
51.300       328
51.320       271
51.340       500
51.360       371
51.380       286
51.400       443
51.420       428
51.440       300
51.460       371
51.480       286
51.500       314
51.520       585
51.540       428
51.560       357
51.580       457
51.600       514
51.620       386
51.640       371
51.660       428
51.680       400
51.700       557
51.720       585
51.740       271
51.760       343
51.780       286
51.800       286
51.820       386
51.840       371
51.860       286
51.880       400
51.900       486
51.920       371
51.940       371
51.960       500
51.980       514
52.000       286
52.020       386
52.040       328
52.060       557
52.080       443
52.100       343
52.120       471
52.140       486
52.160       414
52.180       614
52.200       286
52.220       528
52.240       457
52.260       328
52.280       443
52.300       386
52.320       400
52.340       443
52.360       543
52.380       500
52.400       843
52.420       571
52.440       728
52.460       685
52.480       757
52.500       828
52.520       957
52.540      1028
52.560       814
52.580       928
52.600       757
52.620       900
52.640       757
52.660       657
52.680       628
52.700       671
52.720       486
52.740       571
52.760       714
52.780       614
52.800       614
52.820       628
52.840       486
52.860       543
52.880       500
52.900       428
52.920       414
52.940       457
52.960       371
52.980       400
53.000       443
53.020       443
53.040       457
53.060       443
53.080       457
53.100       400
53.120       414
53.140       428
53.160       328
53.180       486
53.200       371
53.220       428
53.240       386
53.260       400
53.280       357
53.300       414
53.320       443
53.340       428
53.360       400
53.380       457
53.400       300
53.420       428
53.440       371
53.460       514
53.480       300
53.500       357
53.520       428
53.540       286
53.560       357
53.580       243
53.600       243
53.620       286
53.640       386
53.660       428
53.680       243
53.700       386
53.720       357
53.740       457
53.760       343
53.780       286
53.800       257
53.820       371
53.840       314
53.860       471
53.880       314
53.900       328
53.920       628
53.940       357
53.960       457
53.980       443
54.000       243
54.020       357
54.040       343
54.060       371
54.080       286
54.100       343
54.120       300
54.140       471
54.160       371
54.180       414
54.200       271
54.220       328
54.240       300
54.260       257
54.280       314
54.300       443
54.320       443
54.340       428
54.360       371
54.380       414
54.400       328
54.420       428
54.440       286
54.460       386
54.480       486
54.500       428
54.520       486
54.540       486
54.560       328
54.580       328
54.600       557
54.620       386
54.640       443
54.660       428
54.680       428
54.700       528
54.720       328
54.740       557
54.760       400
54.780       343
54.800       614
54.820       414
54.840       400
54.860       357
54.880       386
54.900       400
54.920       514
54.940       328
54.960       471
54.980       371
55.000       443
55.020       457
55.040       500
55.060       514
55.080       457
55.100       557
55.120       300
55.140       314
55.160       400
55.180       271
55.200       243
55.220       428
55.240       371
55.260       271
55.280       486
55.300       400
55.320       500
55.340       343
55.360       528
55.380       371
55.400       400
55.420       414
55.440       386
55.460       271
55.480       386
55.500       300
55.520       314
55.540       457
55.560       343
55.580       257
55.600       386
55.620       414
55.640       286
55.660       271
55.680       428
55.700       300
55.720       343
55.740       486
55.760       386
55.780       343
55.800       386
55.820       328
55.840       457
55.860       257
55.880       486
55.900       300
55.920       314
55.940       300
55.960       414
55.980       400
56.000       443
56.020       343
56.040       328
56.060       257
56.080       286
56.100       343
56.120       443
56.140       286
56.160       386
56.180       457
56.200       457
56.220       386
56.240       228
56.260       314
56.280       471
56.300       457
56.320       386
56.340       328
56.360       343
56.380       357
56.400       328
56.420       414
56.440       300
56.460       371
56.480       300
56.500       557
56.520       343
56.540       428
56.560       471
56.580       371
56.600       357
56.620       428
56.640       328
56.660       414
56.680       557
56.700       443
56.720       414
56.740       314
56.760       343
56.780       443
56.800       371
56.820       500
56.840       343
56.860       257
56.880       328
56.900       386
56.920       414
56.940       314
56.960       443
56.980       357
57.000       328
57.020       400
57.040       471
57.060       614
57.080       471
57.100       357
57.120       328
57.140       343
57.160       214
57.180       571
57.200       528
57.220       528
57.240       400
57.260       528
57.280       471
57.300       343
57.320       414
57.340       486
57.360       471
57.380       357
57.400       443
57.420       328
57.440       486
57.460       386
57.480       386
57.500       357
57.520       571
57.540       314
57.560       243
57.580       357
57.600       357
57.620       228
57.640       228
57.660       371
57.680       428
57.700       386
57.720       300
57.740       414
57.760       500
57.780       228
57.800       300
57.820       514
57.840       557
57.860       571
57.880       428
57.900       514
57.920       585
57.940       486
57.960       743
57.980       571
58.000       557
58.020       428
58.040       471
58.060       500
58.080       443
58.100       543
58.120       571
58.140       457
58.160       457
58.180       486
58.200       600
58.220       457
58.240       457
58.260       371
58.280       414
58.300       400
58.320       628
58.340       357
58.360       457
58.380       357
58.400       371
58.420       243
58.440       486
58.460       571
58.480       400
58.500       357
58.520       357
58.540       571
58.560       428
58.580       371
58.600       371
58.620       471
58.640       400
58.660       357
58.680       257
58.700       357
58.720       471
58.740       286
58.760       414
58.780       314
58.800       414
58.820       271
58.840       271
58.860       271
58.880       471
58.900       543
58.920       300
58.940       457
58.960       286
58.980       286
59.000       300
59.020       228
59.040       343
59.060       243
59.080       300
59.100       400
59.120       457
59.140       271
59.160       271
59.180       343
59.200       371
59.220       186
59.240       357
59.260       343
59.280       228
59.300       328
59.320       243
59.340       457
59.360       286
59.380       314
59.400       386
59.420       271
59.440       400
59.460       400
59.480       200
59.500       428
59.520       271
59.540       257
59.560       457
59.580       486
59.600       428
59.620       243
59.640       243
59.660       443
59.680       328
59.700       328
59.720       371
59.740       257
59.760       528
59.780       371
59.800       314
59.820       300
59.840       257
59.860       257
59.880       457
59.900       300
59.920       357
59.940       300
59.960        43
59.980         0
60.000         0
