20.000       100
20.020       100
20.040       113
20.060       147
20.080       127
20.100       113
20.120       120
20.140       100
20.160       160
20.180       187
20.200       153
20.220       193
20.240       133
20.260        93
20.280       100
20.300       140
20.320        93
20.340       140
20.360       113
20.380       167
20.400       147
20.420       120
20.440       133
20.460        87
20.480       140
20.500       113
20.520        93
20.540        93
20.560       120
20.580        87
20.600       127
20.620       100
20.640       147
20.660       107
20.680        87
20.700       147
20.720       153
20.740       120
20.760       107
20.780       100
20.800       180
20.820       100
20.840       147
20.860        87
20.880       140
20.900        87
20.920        80
20.940       100
20.960       127
20.980       153
21.000       107
21.020        73
21.040       120
21.060       113
21.080       100
21.100       113
21.120        73
21.140       100
21.160       127
21.180        87
21.200       160
21.220        80
21.240       140
21.260       180
21.280       133
21.300       133
21.320       120
21.340        87
21.360       113
21.380       120
21.400        80
21.420       133
21.440       113
21.460       133
21.480       100
21.500       100
21.520       100
21.540       147
21.560        53
21.580       153
21.600       120
21.620       153
21.640       107
21.660       113
21.680        93
21.700       120
21.720        93
21.740       133
21.760        93
21.780       140
21.800       147
21.820       133
21.840        87
21.860       127
21.880       133
21.900       140
21.920       153
21.940        87
21.960       160
21.980       133
22.000       140
22.020       153
22.040       127
22.060        60
22.080        87
22.100       100
22.120       107
22.140        93
22.160        60
22.180       133
22.200       153
22.220       100
22.240       120
22.260        93
22.280       153
22.300        80
22.320       113
22.340       107
22.360       127
22.380       113
22.400       107
22.420       147
22.440       100
22.460       100
22.480       107
22.500        80
22.520       120
22.540       113
22.560       127
22.580       133
22.600        73
22.620        93
22.640       107
22.660       120
22.680       127
22.700       127
22.720       127
22.740        40
22.760       107
22.780        80
22.800        93
22.820       127
22.840       133
22.860       107
22.880       113
22.900       140
22.920       107
22.940       107
22.960       113
22.980       153
23.000        93
23.020       100
23.040       147
23.060       167
23.080       160
23.100       100
23.120       120
23.140       140
23.160        93
23.180        93
23.200       100
23.220        93
23.240       100
23.260       113
23.280       113
23.300        73
23.320       113
23.340        67
23.360       133
23.380        53
23.400        73
23.420       120
23.440        87
23.460       160
23.480       140
23.500       113
23.520       120
23.540       127
23.560       127
23.580        93
23.600        87
23.620       100
23.640       127
23.660       107
23.680       160
23.700        73
23.720       113
23.740       100
23.760       107
23.780       120
23.800        93
23.820       127
23.840        73
23.860       140
23.880        67
23.900       107
23.920       107
23.940       100
23.960       100
23.980       153
24.000        87
24.020       120
24.040        93
24.060       100
24.080        93
24.100        80
24.120       127
24.140       107
24.160       120
24.180       100
24.200        67
24.220        67
24.240       107
24.260        73
24.280        93
24.300       107
24.320        93
24.340        93
24.360        73
24.380       107
24.400       120
24.420       153
24.440        87
24.460        67
24.480       127
24.500        47
24.520       133
24.540        93
24.560       133
24.580       120
24.600       127
24.620       100
24.640       120
24.660       133
24.680        93
24.700        67
24.720       113
24.740       100
24.760        93
24.780       107
24.800        87
24.820       127
24.840        60
24.860        60
24.880       100
24.900        73
24.920        67
24.940       127
24.960        53
24.980        73
25.000        60
25.020        93
25.040       100
25.060       100
25.080       100
25.100        60
25.120        80
25.140        73
25.160        87
25.180       160
25.200       113
25.220        67
25.240       107
25.260       120
25.280       113
25.300       107
25.320       120
25.340       107
25.360        80
25.380        80
25.400        93
25.420        67
25.440       120
25.460        73
25.480       107
25.500       133
25.520        53
25.540        67
25.560        60
25.580        87
25.600       100
25.620        73
25.640        80
25.660        80
25.680       113
25.700        87
25.720       127
25.740        60
25.760        93
25.780        80
25.800       120
25.820        93
25.840        33
25.860       120
25.880       147
25.900       107
25.920        53
25.940       100
25.960        80
25.980        47
26.000        80
26.020        93
26.040        53
26.060        80
26.080        47
26.100       113
26.120       113
26.140        73
26.160        87
26.180       120
26.200        60
26.220        80
26.240        87
26.260        47
26.280        93
26.300       127
26.320        80
26.340        93
26.360       107
26.380       100
26.400        87
26.420        60
26.440       100
26.460        93
26.480        87
26.500        60
26.520       127
26.540        53
26.560        67
26.580        67
26.600       100
26.620        73
26.640       107
26.660        33
26.680        73
26.700        33
26.720        60
26.740        87
26.760        80
26.780        67
26.800        67
26.820        80
26.840        53
26.860        93
26.880        60
26.900        80
26.920        60
26.940        33
26.960       100
26.980        80
27.000        40
27.020        80
27.040       107
27.060        80
27.080        73
27.100        73
27.120        67
27.140       113
27.160        27
27.180        80
27.200        67
27.220        93
27.240       100
27.260        27
27.280        73
27.300        47
27.320        87
27.340        67
27.360       107
27.380       113
27.400        87
27.420        53
27.440        87
27.460        80
27.480        93
27.500       107
27.520        73
27.540        60
27.560        47
27.580        73
27.600        73
27.620        87
27.640        73
27.660        80
27.680        60
27.700        53
27.720        40
27.740        87
27.760        73
27.780       133
27.800        53
27.820        73
27.840        93
27.860        80
27.880       113
27.900        73
27.920        80
27.940        67
27.960        80
27.980        47
28.000        80
28.020        53
28.040        80
28.060        60
28.080        87
28.100       107
28.120       140
28.140       100
28.160       113
28.180        67
28.200        33
28.220       107
28.240        73
28.260        53
28.280        60
28.300        47
28.320        67
28.340        73
28.360       133
28.380        40
28.400        73
28.420        73
28.440        53
28.460        73
28.480        73
28.500        87
28.520        60
28.540       107
28.560        53
28.580        93
28.600        33
28.620        60
28.640        60
28.660        67
28.680        53
28.700        73
28.720       147
28.740        60
28.760        60
28.780        73
28.800        80
28.820        87
28.840        67
28.860        20
28.880        60
28.900        53
28.920        47
28.940        33
28.960        53
28.980        87
29.000        67
29.020        67
29.040        53
29.060        67
29.080        53
29.100        73
29.120        87
29.140        53
29.160        47
29.180        60
29.200        53
29.220        27
29.240        80
29.260        53
29.280        60
29.300        40
29.320        47
29.340        47
29.360        53
29.380        53
29.400        33
29.420        47
29.440        80
29.460        40
29.480        73
29.500        87
29.520        53
29.540        60
29.560        40
29.580        67
29.600        47
29.620        47
29.640        73
29.660        20
29.680        40
29.700        73
29.720        73
29.740        93
29.760        67
29.780        67
29.800        93
29.820        27
29.840        80
29.860        80
29.880        80
29.900        67
29.920        67
29.940        73
29.960        33
29.980        67
30.000        53
30.020        33
30.040        80
30.060        47
30.080        53
30.100        53
30.120       100
30.140       100
30.160        73
30.180        80
30.200        47
30.220        47
30.240        53
30.260        27
30.280        60
30.300        47
30.320        60
30.340        33
30.360        40
30.380        60
30.400        47
30.420        47
30.440        73
30.460        33
30.480        53
30.500        40
30.520        53
30.540        53
30.560        27
30.580        60
30.600        53
30.620        20
30.640        80
30.660        73
30.680        47
30.700        40
30.720        20
30.740        80
30.760        40
30.780        47
30.800        67
30.820        87
30.840        33
30.860        80
30.880        67
30.900        80
30.920       113
30.940        80
30.960       107
30.980        67
31.000        93
31.020        67
31.040       140
31.060        80
31.080        73
31.100        60
31.120        20
31.140        93
31.160        47
31.180        60
31.200        40
31.220        80
31.240        87
31.260        47
31.280        60
31.300        27
31.320        60
31.340        40
31.360        67
31.380        27
31.400        60
31.420        40
31.440        60
31.460        33
31.480        67
31.500        47
31.520         7
31.540        67
31.560        67
31.580        47
31.600        53
31.620        33
31.640        53
31.660        47
31.680         7
31.700        60
31.720        40
31.740        47
31.760        53
31.780        53
31.800        20
31.820        67
31.840        53
31.860        73
31.880        60
31.900        33
31.920        73
31.940        27
31.960        47
31.980        47
32.000        47
32.020        47
32.040        40
32.060        47
32.080        60
32.100        53
32.120        33
32.140        13
32.160        40
32.180        60
32.200        67
32.220        60
32.240        47
32.260        27
32.280        80
32.300        73
32.320        27
32.340        60
32.360        53
32.380        60
32.400        60
32.420        27
32.440        60
32.460        53
32.480        33
32.500        60
32.520        27
32.540        93
32.560        27
32.580        73
32.600        33
32.620        33
32.640        33
32.660        27
32.680        53
32.700        53
32.720        40
32.740        33
32.760        67
32.780        33
32.800        67
32.820        47
32.840        40
32.860        60
32.880        47
32.900        53
32.920        40
32.940        27
32.960        13
32.980        73
33.000        67
33.020        60
33.040        60
33.060        53
33.080        27
33.100        47
33.120        73
33.140        40
33.160        13
33.180        13
33.200        80
33.220        27
33.240        20
33.260        27
33.280        53
33.300        47
33.320        33
33.340        20
33.360        40
33.380        27
33.400        53
33.420        87
33.440        20
33.460        40
33.480        67
33.500        47
33.520        53
33.540        60
33.560        13
33.580        47
33.600        40
33.620        27
33.640        27
33.660        40
33.680        60
33.700        33
33.720        40
33.740        53
33.760        33
33.780        40
33.800        40
33.820        40
33.840        47
33.860        53
33.880        93
33.900        53
33.920        47
33.940        73
33.960        53
33.980        47
34.000        27
34.020        47
34.040        33
34.060        73
34.080        40
34.100        87
34.120       100
34.140       107
34.160        80
34.180        87
34.200       113
34.220       113
34.240        80
34.260       100
34.280        67
34.300        53
34.320       113
34.340       173
34.360       193
34.380       233
34.400       213
34.420       413
34.440       460
34.460       486
34.480       480
34.500       426
34.520       400
34.540       360
34.560       227
34.580       127
34.600       120
34.620       107
34.640       107
34.660       107
34.680        93
34.700        53
34.720       107
34.740        40
34.760        67
34.780        80
34.800       113
34.820        93
34.840        67
34.860        40
34.880        60
34.900       107
34.920       107
34.940        67
34.960        53
34.980       107
35.000        87
35.020        87
35.040        40
35.060       133
35.080        33
35.100        40
35.120       107
35.140       200
35.160       213
35.180       233
35.200       193
35.220       107
35.240       113
35.260       100
35.280       120
35.300       100
35.320        73
35.340        73
35.360        47
35.380        93
35.400        53
35.420        33
35.440        33
35.460        60
35.480        60
35.500        53
35.520        47
35.540        33
35.560        80
35.580        67
35.600       100
35.620       100
35.640        47
35.660        60
35.680        20
35.700        47
35.720        47
35.740        53
35.760       100
35.780        80
35.800        67
35.820        67
35.840        47
35.860        60
35.880        67
35.900        13
35.920        73
35.940        60
35.960       100
35.980        60
36.000        60
36.020        73
36.040        87
36.060        40
36.080        47
36.100        47
36.120        53
36.140        80
36.160        20
36.180        87
36.200        40
36.220       107
36.240        60
36.260        53
36.280        20
36.300        40
36.320        67
36.340        47
36.360        93
36.380        67
36.400       127
36.420        87
36.440        93
36.460        73
36.480        27
36.500        33
36.520        47
36.540        53
36.560        47
36.580        73
36.600        93
36.620        67
36.640        93
36.660        80
36.680       107
36.700        93
36.720        73
36.740       120
36.760       133
36.780       127
36.800       107
36.820        67
36.840       153
36.860        80
36.880       213
36.900       167
36.920       287
36.940       287
36.960       313
36.980       367
37.000       440
37.020       360
37.040       413
37.060       340
37.080       433
37.100       426
37.120       387
37.140       327
37.160       486
37.180       387
37.200       446
37.220       373
37.240       433
37.260       367
37.280       440
37.300       373
37.320       466
37.340       533
37.360       513
37.380       446
37.400       420
37.420       533
37.440       453
37.460       560
37.480       453
37.500       586
37.520       480
37.540       546
37.560       586
37.580       540
37.600       493
37.620       633
37.640       546
37.660       666
37.680       646
37.700       640
37.720       700
37.740       860
37.760       900
37.780       706
37.800       800
37.820       893
37.840      1040
37.860      1073
37.880      1153
37.900      1433
37.920      1579
37.940      1699
37.960      2092
37.980      2806
38.000      3465
38.020      4352
38.040      5031
38.060      6604
38.080      7510
38.100      8477
38.120     11369
38.140     13328
38.160     18626
38.180     25530
38.200     33806
38.220     44522
38.240     55038
38.260     64827
38.280     69506
38.300     70019
38.320     67360
38.340     62242
38.360     56937
38.380     50180
38.400     43862
38.420     35432
38.440     28175
38.460     20912
38.480     15560
38.500     11942
38.520      9623
38.540      7923
38.560      5878
38.580      4711
38.600      4085
38.620      3252
38.640      2886
38.660      2446
38.680      2066
38.700      2219
38.720      1559
38.740      1579
38.760      1313
38.780      1200
38.800      1180
38.820      1140
38.840       986
38.860       860
38.880       973
38.900       846
38.920       753
38.940       753
38.960       620
38.980       620
39.000       740
39.020       626
39.040       526
39.060       606
39.080       566
39.100       700
39.120       493
39.140       500
39.160       553
39.180       446
39.200       446
39.220       480
39.240       460
39.260       380
39.280       426
39.300       387
39.320       387
39.340       313
39.360       480
39.380       340
39.400       393
39.420       353
39.440       293
39.460       426
39.480       333
39.500       387
39.520       327
39.540       347
39.560       287
39.580       367
39.600       233
39.620       353
39.640       367
39.660       267
39.680       233
39.700       367
39.720       367
39.740       260
39.760       347
39.780       327
39.800       220
39.820       320
39.840       313
39.860       253
39.880       320
39.900       213
39.920       307
39.940       240
39.960       287
39.980       260
40.000       227
40.020       147
40.040       267
40.060       233
40.080       260
40.100       280
40.120       240
40.140       173
40.160       260
40.180       167
40.200       213
40.220       253
40.240       153
40.260       233
40.280       280
40.300       213
40.320       220
40.340       260
40.360       213
40.380       147
40.400       160
40.420       160
40.440       207
40.460       233
40.480       227
40.500       187
40.520       233
40.540       160
40.560       240
40.580       213
40.600       313
40.620       140
40.640       200
40.660       187
40.680       240
40.700       227
40.720       147
40.740       173
40.760       200
40.780       200
40.800       227
40.820       267
40.840       207
40.860       167
40.880       247
40.900       200
40.920       213
40.940       173
40.960       140
40.980       207
41.000       167
41.020       233
41.040       160
41.060       207
41.080       240
41.100       167
41.120       240
41.140       220
41.160       167
41.180       233
41.200       160
41.220       147
41.240       153
41.260       240
41.280       147
41.300       233
41.320       247
41.340       227
41.360       213
41.380       220
41.400       133
41.420       200
41.440       227
41.460       127
41.480       193
41.500       127
41.520       160
41.540       153
41.560       127
41.580       227
41.600       207
41.620       227
41.640       160
41.660       373
41.680       353
41.700       253
41.720       200
41.740       260
41.760       207
41.780       213
41.800       313
41.820       227
41.840       187
41.860       147
41.880       133
41.900       180
41.920       167
41.940       133
41.960       240
41.980       213
42.000       207
42.020       253
42.040        87
42.060       180
42.080       107
42.100       173
42.120       140
42.140       180
42.160       153
42.180       100
42.200       133
42.220       187
42.240        87
42.260       180
42.280       140
42.300       200
42.320       120
42.340       173
42.360       133
42.380       133
42.400       173
42.420       113
42.440       147
42.460        80
42.480       140
42.500       160
42.520       113
42.540       153
42.560       193
42.580       133
42.600       107
42.620       173
42.640       180
42.660       147
42.680       133
42.700       113
42.720       180
42.740       107
42.760       127
42.780       140
42.800       147
42.820       180
42.840        87
42.860       133
42.880       153
42.900       113
42.920       173
42.940       160
42.960       153
42.980       120
43.000       167
43.020       160
43.040       147
43.060       147
43.080       133
43.100       153
43.120        93
43.140        80
43.160       167
43.180        80
43.200       200
43.220       160
43.240       140
43.260       133
43.280       120
43.300       147
43.320       147
43.340       113
43.360       127
43.380       187
43.400       140
43.420       160
43.440       213
43.460       153
43.480       187
43.500       167
43.520       180
43.540        87
43.560       153
43.580       120
43.600        93
43.620       107
43.640       120
43.660       120
43.680       167
43.700       147
43.720       120
43.740       167
43.760       113
43.780       107
43.800       167
43.820       133
43.840       120
43.860       133
43.880       127
43.900        80
43.920       173
43.940        87
43.960        80
43.980       100
44.000       107
44.020       107
44.040       140
44.060       160
44.080       107
44.100       160
44.120       120
44.140       127
44.160       153
44.180       187
44.200       167
44.220       160
44.240       133
44.260       147
44.280       160
44.300       127
44.320       160
44.340       167
44.360       167
44.380       227
44.400       140
44.420       167
44.440       160
44.460       187
44.480       213
44.500       180
44.520       220
44.540       167
44.560       187
44.580       147
44.600       160
44.620       133
44.640       147
44.660       147
44.680       193
44.700       167
44.720        93
44.740       220
44.760       160
44.780       107
44.800       187
44.820       127
44.840       100
44.860        93
44.880       160
44.900        87
44.920       147
44.940        87
44.960        80
44.980       120
45.000        87
45.020       100
45.040        93
45.060       107
45.080        93
45.100        93
45.120       107
45.140       147
45.160        93
45.180       120
45.200       100
45.220        87
45.240       127
45.260       120
45.280       100
45.300       120
45.320       107
45.340       120
45.360       120
45.380       133
45.400       113
45.420       147
45.440        60
45.460       100
45.480        93
45.500        73
45.520       140
45.540       100
45.560        67
45.580        40
45.600       120
45.620        93
45.640        67
45.660        73
45.680        87
45.700       107
45.720       113
45.740       100
45.760        67
45.780        87
45.800       107
45.820        87
45.840        93
45.860        93
45.880        93
45.900        67
45.920       113
45.940        67
45.960        67
45.980        80
46.000        80
46.020       133
46.040       133
46.060        87
46.080        67
46.100       113
46.120       107
46.140        80
46.160        80
46.180        93
46.200        87
46.220       107
46.240       120
46.260        67
46.280        73
46.300       153
46.320       120
46.340       140
46.360        73
46.380       107
46.400        93
46.420       100
46.440        53
46.460       107
46.480        67
46.500       100
46.520        67
46.540        93
46.560        73
46.580        93
46.600        40
46.620        80
46.640        73
46.660        73
46.680        80
46.700        60
46.720        47
46.740        60
46.760        87
46.780        47
46.800        87
46.820        60
46.840        80
46.860        73
46.880        47
46.900        67
46.920        60
46.940        60
46.960        53
46.980        93
47.000       100
47.020        73
47.040        60
47.060        87
47.080        80
47.100        67
47.120        53
47.140       147
47.160       100
47.180       120
47.200        87
47.220        40
47.240        73
47.260        53
47.280        93
47.300        53
47.320        73
47.340        60
47.360        87
47.380       100
47.400       127
47.420       100
47.440        80
47.460        47
47.480       113
47.500        53
47.520       140
47.540        53
47.560        67
47.580       107
47.600        87
47.620        53
47.640        87
47.660        73
47.680        93
47.700        47
47.720        87
47.740        73
47.760        87
47.780        73
47.800       140
47.820        67
47.840        53
47.860        93
47.880       113
47.900        87
47.920        60
47.940        67
47.960        73
47.980        80
48.000        87
48.020        53
48.040        73
48.060        27
48.080       120
48.100       100
48.120        53
48.140        73
48.160        73
48.180        73
48.200        60
48.220        73
48.240        40
48.260        73
48.280        73
48.300        73
48.320        47
48.340        27
48.360        73
48.380       100
48.400        93
48.420        73
48.440        60
48.460        73
48.480        40
48.500        33
48.520        27
48.540        60
48.560        93
48.580        67
48.600        67
48.620        33
48.640        60
48.660        67
48.680        47
48.700        93
48.720        53
48.740        40
48.760        40
48.780        40
48.800        40
48.820        47
48.840        87
48.860       120
48.880       107
48.900        60
48.920        40
48.940        53
48.960        87
48.980        67
49.000        53
49.020        73
49.040        60
49.060        40
49.080       107
49.100        73
49.120        47
49.140        60
49.160        27
49.180        87
49.200        80
49.220        40
49.240        40
49.260        40
49.280        33
49.300        73
49.320        80
49.340        40
49.360        53
49.380        53
49.400        20
49.420        47
49.440        33
49.460        40
49.480        47
49.500        80
49.520        73
49.540        47
49.560        60
49.580        40
49.600        67
49.620        67
49.640        87
49.660        60
49.680        73
49.700        73
49.720        60
49.740        47
49.760        60
49.780        53
49.800        73
49.820        60
49.840        33
49.860        93
49.880        67
49.900        53
49.920        73
49.940        73
49.960        53
49.980        20
50.000        73
50.020        40
50.040        53
50.060        80
50.080        47
50.100        33
50.120        47
50.140        53
50.160        73
50.180        33
50.200        47
50.220        67
50.240        27
50.260        73
50.280        60
50.300        33
50.320        87
50.340        40
50.360        67
50.380        40
50.400        27
50.420        87
50.440        53
50.460        47
50.480        80
50.500        33
50.520        53
50.540        40
50.560        33
50.580        60
50.600        53
50.620        33
50.640        33
50.660        67
50.680        40
50.700        53
50.720        27
50.740        20
50.760        53
50.780        53
50.800        47
50.820        33
50.840        20
50.860        67
50.880        20
50.900        33
50.920        33
50.940        73
50.960        87
50.980        73
51.000        53
51.020        33
51.040        80
51.060        33
51.080        33
51.100        47
51.120        53
51.140        40
51.160        33
51.180        60
51.200        47
51.220        40
51.240        13
51.260        53
51.280        93
51.300        73
51.320        27
51.340        47
51.360       120
51.380        53
51.400        47
51.420        60
51.440        33
51.460        47
51.480        33
51.500        47
51.520        47
51.540        60
51.560        27
51.580        33
51.600        47
51.620        33
51.640        53
51.660        27
51.680        27
51.700        20
51.720        47
51.740        60
51.760        27
51.780        33
51.800        53
51.820        67
51.840        47
51.860        60
51.880        60
51.900        27
51.920        53
51.940        60
51.960        33
51.980        53
52.000        93
52.020        67
52.040        80
52.060        33
52.080        67
52.100        40
52.120        47
52.140        33
52.160        20
52.180        27
52.200        73
52.220        40
52.240        47
52.260        53
52.280        60
52.300        47
52.320        53
52.340        73
52.360        40
52.380        27
52.400        80
52.420        53
52.440        40
52.460        27
52.480        53
52.500        20
52.520        87
52.540       133
52.560       153
52.580       147
52.600       160
52.620       107
52.640        80
52.660        93
52.680        67
52.700       100
52.720       107
52.740        87
52.760        87
52.780        40
52.800        33
52.820        73
52.840        47
52.860        27
52.880        20
52.900        40
52.920        33
52.940        27
52.960        47
52.980        27
53.000        47
53.020        53
53.040        40
53.060        53
53.080        67
53.100        40
53.120        40
53.140        33
53.160        33
53.180        87
53.200        27
53.220        67
53.240        27
53.260        33
53.280        33
53.300        20
53.320        40
53.340        20
53.360        33
53.380        33
53.400        33
53.420        53
53.440        47
53.460        33
53.480        73
53.500        40
53.520        20
53.540        27
53.560        27
53.580        40
53.600        40
53.620        33
53.640        27
53.660        60
53.680        13
53.700        73
53.720        20
53.740        33
53.760        53
53.780        47
53.800        13
53.820        47
53.840        27
53.860        33
53.880        53
53.900        27
53.920        40
53.940        13
53.960        33
53.980        47
54.000        33
54.020        27
54.040        27
54.060        53
54.080        53
54.100        40
54.120        53
54.140        47
54.160        20
54.180        33
54.200        47
54.220        47
54.240        40
54.260        73
54.280        47
54.300        40
54.320        27
54.340        33
54.360        20
54.380        67
54.400        40
54.420        27
54.440        20
54.460        33
54.480        27
54.500        47
54.520        40
54.540        33
54.560        47
54.580        20
54.600        27
54.620        40
54.640        47
54.660        53
54.680        33
54.700        27
54.720        67
54.740        33
54.760        40
54.780        40
54.800        60
54.820       120
54.840        40
54.860        33
54.880        40
54.900        87
54.920        33
54.940        53
54.960        47
54.980        73
55.000        80
55.020        40
55.040        60
55.060        73
55.080        40
55.100        33
55.120         7
55.140        53
55.160        73
55.180        53
55.200        60
55.220        47
55.240        53
55.260        73
55.280        73
55.300        40
55.320        53
55.340        40
55.360        40
55.380        40
55.400        47
55.420        33
55.440        13
55.460        60
55.480        27
55.500        47
55.520        47
55.540         7
55.560        47
55.580        53
55.600        33
55.620        40
55.640        40
55.660        40
55.680        60
55.700        67
55.720        40
55.740        40
55.760        33
55.780        33
55.800        73
55.820        27
55.840        20
55.860        53
55.880        40
55.900        27
55.920        27
55.940        33
55.960        60
55.980        47
56.000        27
56.020        20
56.040        33
56.060        47
56.080        27
56.100         7
56.120        20
56.140        33
56.160        27
56.180        53
56.200        27
56.220        67
56.240        53
56.260        33
56.280        53
56.300        27
56.320        27
56.340        20
56.360        47
56.380        47
56.400        33
56.420        60
56.440        40
56.460        60
56.480        27
56.500        53
56.520        33
56.540        27
56.560        27
56.580        33
56.600        27
56.620        40
56.640        47
56.660        13
56.680        53
56.700        13
56.720        47
56.740        27
56.760        40
56.780        20
56.800        13
56.820        40
56.840        27
56.860        47
56.880        33
56.900        53
56.920        53
56.940        13
56.960        13
56.980        27
57.000        60
57.020        67
57.040        47
57.060        13
57.080        53
57.100        27
57.120        33
57.140        27
57.160        53
57.180        47
57.200        47
57.220        27
57.240        20
57.260        27
57.280        27
57.300        47
57.320        47
57.340        27
57.360        33
57.380        47
57.400        20
57.420        40
57.440        53
57.460        93
57.480        87
57.500       133
57.520       240
57.540       293
57.560       253
57.580       147
57.600       113
57.620        60
57.640       107
57.660       140
57.680       120
57.700       133
57.720        80
57.740        40
57.760        13
57.780        60
57.800        60
57.820        27
57.840        67
57.860        33
57.880        40
57.900        20
57.920        47
57.940        20
57.960        33
57.980        27
58.000        27
58.020        33
58.040        27
58.060        40
58.080        27
58.100        27
58.120        13
58.140        20
58.160        33
58.180        20
58.200        33
58.220         7
58.240        33
58.260        13
58.280        40
58.300         7
58.320        40
58.340        33
58.360        33
58.380        27
58.400        27
58.420        27
58.440        33
58.460        60
58.480        40
58.500        33
58.520        40
58.540        33
58.560        40
58.580        47
58.600        27
58.620        67
58.640        40
58.660        20
58.680        33
58.700        40
58.720        33
58.740        33
58.760        53
58.780        73
58.800        40
58.820        27
58.840        27
58.860        47
58.880        27
58.900        53
58.920        13
58.940        27
58.960        13
58.980        40
59.000        33
59.020        33
59.040        40
59.060        27
59.080        40
59.100        33
59.120        47
59.140        33
59.160        20
59.180        27
59.200        20
59.220        20
59.240        53
59.260        33
59.280        33
59.300        33
59.320        13
59.340        20
59.360        60
59.380        53
59.400        27
59.420        40
59.440        40
59.460        33
59.480        33
59.500        33
59.520        33
59.540        20
59.560        27
59.580        27
59.600        33
59.620        40
59.640        27
59.660        20
59.680        53
59.700         7
59.720        53
59.740        53
59.760        40
59.780        60
59.800        33
59.820        20
59.840        60
59.860        47
59.880        47
59.900        13
59.920        33
59.940        13
59.960        27
59.980        20
60.000         7
