20.000       117
20.020       100
20.040        87
20.060       103
20.080       113
20.100       117
20.120       120
20.140       103
20.160        77
20.180       103
20.200       150
20.220        93
20.240       110
20.260        93
20.280       157
20.300       190
20.320       197
20.340       177
20.360       167
20.380       137
20.400       143
20.420       110
20.440        90
20.460       107
20.480        87
20.500       103
20.520       140
20.540       137
20.560       100
20.580       110
20.600        97
20.620       103
20.640        87
20.660       113
20.680        57
20.700        97
20.720        97
20.740       107
20.760       110
20.780        73
20.800        97
20.820       143
20.840       117
20.860       143
20.880        90
20.900       127
20.920       147
20.940       133
20.960       107
20.980       127
21.000        73
21.020       123
21.040        87
21.060        93
21.080       153
21.100       133
21.120       123
21.140        93
21.160       107
21.180       123
21.200       110
21.220       107
21.240       103
21.260       120
21.280       113
21.300       107
21.320       127
21.340       153
21.360       113
21.380        87
21.400       113
21.420       103
21.440        87
21.460       130
21.480       127
21.500       100
21.520        87
21.540        87
21.560        97
21.580       113
21.600        87
21.620        90
21.640       137
21.660        73
21.680        77
21.700        80
21.720        77
21.740        93
21.760        87
21.780        77
21.800        87
21.820        93
21.840       117
21.860       103
21.880        93
21.900       137
21.920        97
21.940       133
21.960       107
21.980       127
22.000        80
22.020       107
22.040        73
22.060        93
22.080       100
22.100        57
22.120       107
22.140       117
22.160        83
22.180        83
22.200        57
22.220       103
22.240       120
22.260       107
22.280        60
22.300        97
22.320        67
22.340        93
22.360        87
22.380        90
22.400        83
22.420        67
22.440        90
22.460        93
22.480        63
22.500       100
22.520       113
22.540        77
22.560        87
22.580        97
22.600        93
22.620        53
22.640        73
22.660        57
22.680        83
22.700        67
22.720       103
22.740        90
22.760       100
22.780       100
22.800       100
22.820        83
22.840       120
22.860        87
22.880        77
22.900        77
22.920        97
22.940        93
22.960        97
22.980        90
23.000       107
23.020        87
23.040       113
23.060        97
23.080        87
23.100        93
23.120        83
23.140        80
23.160        83
23.180        73
23.200        80
23.220       120
23.240        80
23.260        83
23.280       103
23.300        57
23.320        87
23.340        93
23.360        63
23.380        80
23.400        90
23.420        67
23.440        60
23.460        77
23.480        83
23.500       107
23.520        63
23.540        83
23.560        70
23.580        70
23.600        87
23.620        63
23.640        77
23.660        93
23.680       110
23.700        87
23.720        60
23.740       113
23.760        93
23.780       113
23.800        73
23.820        93
23.840        77
23.860        47
23.880        80
23.900        73
23.920       107
23.940        67
23.960        90
23.980        77
24.000        50
24.020        73
24.040        80
24.060        80
24.080       107
24.100        43
24.120       107
24.140        80
24.160        73
24.180        50
24.200        57
24.220        80
24.240        67
24.260        63
24.280        60
24.300        97
24.320        50
24.340       107
24.360        80
24.380        43
24.400        67
24.420        80
24.440        60
24.460        90
24.480        83
24.500        97
24.520        63
24.540        80
24.560       113
24.580        77
24.600        90
24.620       107
24.640        77
24.660        93
24.680        50
24.700        93
24.720       113
24.740       137
24.760       137
24.780       130
24.800       147
24.820       127
24.840       133
24.860        97
24.880       110
24.900        90
24.920       107
24.940       120
24.960        97
24.980        77
25.000        77
25.020        97
25.040        70
25.060        97
25.080        47
25.100       100
25.120        73
25.140        73
25.160        70
25.180        73
25.200        73
25.220        50
25.240        47
25.260        60
25.280        47
25.300        67
25.320        77
25.340        87
25.360       117
25.380        73
25.400        60
25.420        53
25.440        63
25.460        87
25.480        77
25.500        60
25.520        90
25.540        70
25.560        60
25.580       107
25.600        77
25.620        80
25.640       113
25.660        67
25.680        73
25.700        60
25.720        73
25.740        87
25.760       103
25.780        90
25.800       140
25.820       133
25.840       157
25.860       130
25.880       143
25.900        93
25.920        93
25.940       103
25.960        80
25.980        90
26.000        73
26.020        80
26.040        47
26.060        60
26.080        60
26.100        83
26.120        63
26.140        70
26.160        63
26.180        83
26.200        67
26.220        57
26.240        63
26.260        47
26.280        70
26.300        63
26.320        87
26.340        47
26.360        70
26.380        53
26.400        47
26.420        60
26.440        83
26.460        57
26.480        53
26.500        60
26.520        67
26.540        77
26.560        63
26.580        53
26.600        63
26.620       120
26.640        63
26.660        73
26.680        50
26.700        53
26.720        67
26.740        67
26.760        63
26.780        67
26.800        73
26.820        70
26.840        33
26.860        63
26.880        33
26.900        57
26.920        77
26.940        40
26.960        57
26.980        37
27.000        47
27.020        33
27.040        63
27.060        60
27.080        50
27.100        57
27.120        57
27.140        57
27.160        57
27.180        80
27.200        47
27.220        67
27.240        43
27.260        50
27.280        50
27.300        53
27.320        50
27.340        20
27.360        50
27.380        30
27.400        73
27.420        43
27.440        40
27.460        50
27.480        27
27.500        57
27.520        60
27.540        57
27.560        57
27.580        80
27.600        73
27.620        40
27.640        40
27.660        40
27.680        23
27.700        67
27.720        50
27.740        60
27.760        60
27.780        60
27.800        10
27.820        53
27.840        60
27.860        57
27.880        47
27.900        43
27.920        33
27.940        50
27.960        50
27.980        50
28.000        40
28.020        37
28.040        47
28.060        60
28.080        73
28.100        53
28.120        40
28.140        50
28.160        50
28.180        60
28.200        83
28.220        40
28.240        37
28.260        50
28.280        60
28.300        40
28.320        40
28.340        63
28.360        77
28.380        50
28.400        40
28.420        50
28.440        67
28.460        60
28.480        33
28.500        43
28.520        37
28.540        40
28.560        30
28.580        47
28.600        50
28.620        30
28.640        67
28.660        67
28.680        67
28.700        23
28.720        53
28.740        53
28.760        37
28.780        33
28.800        50
28.820        70
28.840        23
28.860        23
28.880        53
28.900        50
28.920        43
28.940       110
28.960        60
28.980        50
29.000        37
29.020        83
29.040        70
29.060        77
29.080        63
29.100        87
29.120        87
29.140        80
29.160       113
29.180       110
29.200        87
29.220       133
29.240       167
29.260       177
29.280       177
29.300       230
29.320       250
29.340       247
29.360       213
29.380       180
29.400       203
29.420       130
29.440       160
29.460       153
29.480       110
29.500        67
29.520        87
29.540        53
29.560        63
29.580        37
29.600        73
29.620        50
29.640        37
29.660        77
29.680        40
29.700        57
29.720        57
29.740        60
29.760        37
29.780        33
29.800        60
29.820        33
29.840        20
29.860        47
29.880        63
29.900        40
29.920        43
29.940        23
29.960        70
29.980        33
30.000        67
30.020        43
30.040        63
30.060        30
30.080        37
30.100        53
30.120        50
30.140        43
30.160        40
30.180        27
30.200        33
30.220        47
30.240        40
30.260        47
30.280        60
30.300        37
30.320        60
30.340        57
30.360        47
30.380        30
30.400        37
30.420        50
30.440        50
30.460        67
30.480        43
30.500        30
30.520        43
30.540        40
30.560        33
30.580        20
30.600        30
30.620        50
30.640        47
30.660        43
30.680        23
30.700        33
30.720        53
30.740        47
30.760        50
30.780        43
30.800        27
30.820        37
30.840        43
30.860        50
30.880        40
30.900        17
30.920        27
30.940        77
30.960        30
30.980        30
31.000        33
31.020        30
31.040        37
31.060        47
31.080        40
31.100        67
31.120        50
31.140        53
31.160        57
31.180        37
31.200        37
31.220        27
31.240        40
31.260        30
31.280        53
31.300        43
31.320        40
31.340        47
31.360        43
31.380        23
31.400        47
31.420        27
31.440        50
31.460        50
31.480        30
31.500        40
31.520        60
31.540        37
31.560        47
31.580        47
31.600        47
31.620        47
31.640        37
31.660        57
31.680        33
31.700        43
31.720        20
31.740        23
31.760        23
31.780        40
31.800        43
31.820        37
31.840        37
31.860        37
31.880        43
31.900        37
31.920        50
31.940        33
31.960        27
31.980        50
32.000        40
32.020        37
32.040        50
32.060        33
32.080        43
32.100        40
32.120        43
32.140        33
32.160        40
32.180        37
32.200        30
32.220        40
32.240        40
32.260        53
32.280        60
32.300        43
32.320        63
32.340        53
32.360        50
32.380        53
32.400        43
32.420        23
32.440        30
32.460        40
32.480        37
32.500        57
32.520        23
32.540        37
32.560        33
32.580        37
32.600        50
32.620        40
32.640        47
32.660        20
32.680        23
32.700        47
32.720        37
32.740        40
32.760        27
32.780        30
32.800        53
32.820        50
32.840        40
32.860        37
32.880        37
32.900        30
32.920        30
32.940        40
32.960        37
32.980        33
33.000        40
33.020        60
33.040        57
33.060        37
33.080        23
33.100        53
33.120        40
33.140        33
33.160        47
33.180        23
33.200        23
33.220        57
33.240        33
33.260        30
33.280        33
33.300        37
33.320        27
33.340        27
33.360        33
33.380        50
33.400        37
33.420        20
33.440        40
33.460        33
33.480        27
33.500        40
33.520        17
33.540        20
33.560        43
33.580        33
33.600        50
33.620        40
33.640        30
33.660        20
33.680        27
33.700        17
33.720        33
33.740        17
33.760        27
33.780        47
33.800        30
33.820        37
33.840        53
33.860        43
33.880        40
33.900        33
33.920        23
33.940        33
33.960        30
33.980        30
34.000        17
34.020        30
34.040        33
34.060        20
34.080        23
34.100        37
34.120        33
34.140        17
34.160        40
34.180        33
34.200        43
34.220        27
34.240        50
34.260        37
34.280        23
34.300        10
34.320        23
34.340        40
34.360        37
34.380        37
34.400        17
34.420        57
34.440        40
34.460        33
34.480        17
34.500        30
34.520        30
34.540        63
34.560        40
34.580        33
34.600        53
34.620        47
34.640        37
34.660        27
34.680        33
34.700        23
34.720        37
34.740        40
34.760        37
34.780        30
34.800        23
34.820        43
34.840        43
34.860        37
34.880        37
34.900        37
34.920        40
34.940        47
34.960        43
34.980        43
35.000        43
35.020        37
35.040        47
35.060        20
35.080        53
35.100        53
35.120        13
35.140        23
35.160        33
35.180        33
35.200        23
35.220        47
35.240        33
35.260        40
35.280        33
35.300        13
35.320        63
35.340        40
35.360        57
35.380        27
35.400        43
35.420        27
35.440        40
35.460        23
35.480        23
35.500        20
35.520        40
35.540        40
35.560        17
35.580        50
35.600        50
35.620        37
35.640        37
35.660        37
35.680        23
35.700        47
35.720        70
35.740        73
35.760        53
35.780        70
35.800        70
35.820        50
35.840        57
35.860        53
35.880        80
35.900        87
35.920        67
35.940        90
35.960        57
35.980        67
36.000        47
36.020        83
36.040        50
36.060        47
36.080        30
36.100        30
36.120        43
36.140        40
36.160        47
36.180        57
36.200        47
36.220        40
36.240        47
36.260        33
36.280        30
36.300        33
36.320        33
36.340        23
36.360        30
36.380        30
36.400        37
36.420        50
36.440        40
36.460        37
36.480        53
36.500        17
36.520        30
36.540        10
36.560        37
36.580        20
36.600        27
36.620        30
36.640        20
36.660        30
36.680        27
36.700        23
36.720        30
36.740        17
36.760        30
36.780        50
36.800        23
36.820        47
36.840        23
36.860        30
36.880        40
36.900        37
36.920        47
36.940        43
36.960        30
36.980        37
37.000        33
37.020        33
37.040        40
37.060        60
37.080        33
37.100        47
37.120        23
37.140        30
37.160        33
37.180        30
37.200        47
37.220        30
37.240        40
37.260        30
37.280        30
37.300        30
37.320        47
37.340        40
37.360        30
37.380        27
37.400        37
37.420        37
37.440        47
37.460        20
37.480        33
37.500        27
37.520        33
37.540        33
37.560        30
37.580        47
37.600        53
37.620        40
37.640        40
37.660        43
37.680        50
37.700        27
37.720        43
37.740        50
37.760        53
37.780        30
37.800        33
37.820        13
37.840        27
37.860        37
37.880        40
37.900        17
37.920        40
37.940        37
37.960        53
37.980        23
38.000        37
38.020        40
38.040        53
38.060        57
38.080        47
38.100        27
38.120        47
38.140        40
38.160        60
38.180        90
38.200        50
38.220        73
38.240        73
38.260        90
38.280       123
38.300       147
38.320       130
38.340       157
38.360       177
38.380       180
38.400       187
38.420       170
38.440       200
38.460       133
38.480       160
38.500       153
38.520       133
38.540       120
38.560       100
38.580        70
38.600        43
38.620        53
38.640        40
38.660        60
38.680        60
38.700        47
38.720        63
38.740        53
38.760        47
38.780        47
38.800        30
38.820        23
38.840        47
38.860        20
38.880        33
38.900        43
38.920        63
38.940        40
38.960        57
38.980        70
39.000        67
39.020        47
39.040        73
39.060        70
39.080        47
39.100        77
39.120        93
39.140       103
39.160       120
39.180        90
39.200        90
39.220        87
39.240        50
39.260        97
39.280        90
39.300       117
39.320        77
39.340        60
39.360        97
39.380        77
39.400        97
39.420        77
39.440       103
39.460        60
39.480        63
39.500        30
39.520        80
39.540        40
39.560        33
39.580        40
39.600        27
39.620        53
39.640        43
39.660        43
39.680         7
39.700        30
39.720        37
39.740        57
39.760        30
39.780        30
39.800        23
39.820        27
39.840        37
39.860        50
39.880        30
39.900        17
39.920        37
39.940        27
39.960        37
39.980        33
40.000        37
40.020        37
40.040        37
40.060        37
40.080        37
40.100        33
40.120        20
40.140        27
40.160        37
40.180        20
40.200        23
40.220        57
40.240        47
40.260        30
40.280        40
40.300        57
40.320        20
40.340        40
40.360        30
40.380        33
40.400        40
40.420        33
40.440        30
40.460        53
40.480        17
40.500        30
40.520        40
40.540        27
40.560        17
40.580        27
40.600        23
40.620        53
40.640        43
40.660        43
40.680        37
40.700        37
40.720        60
40.740        27
40.760        27
40.780        50
40.800        20
40.820        23
40.840        53
40.860        40
40.880        60
40.900        50
40.920        50
40.940        63
40.960        83
40.980        67
41.000        57
41.020        70
41.040        87
41.060       127
41.080       113
41.100        83
41.120       140
41.140       127
41.160       177
41.180       200
41.200       213
41.220       213
41.240       183
41.260       160
41.280       187
41.300       170
41.320       140
41.340       147
41.360       100
41.380       113
41.400        70
41.420        70
41.440        63
41.460        40
41.480        53
41.500        43
41.520        47
41.540        43
41.560        30
41.580        47
41.600        23
41.620        17
41.640        43
41.660        20
41.680        33
41.700        37
41.720        27
41.740        40
41.760        30
41.780        20
41.800        40
41.820        27
41.840        17
41.860        43
41.880        33
41.900        20
41.920        33
41.940        27
41.960        30
41.980        33
42.000        50
42.020        33
42.040        33
42.060        47
42.080        17
42.100        20
42.120        20
42.140        37
42.160        37
42.180        53
42.200        37
42.220        43
42.240        43
42.260        50
42.280        27
42.300        33
42.320        17
42.340        20
42.360        30
42.380        43
42.400        40
42.420        47
42.440        67
42.460        23
42.480        23
42.500        27
42.520        20
42.540        33
42.560        53
42.580        17
42.600        47
42.620        47
42.640        40
42.660        27
42.680        30
42.700        20
42.720        50
42.740        53
42.760        57
42.780        43
42.800        23
42.820        33
42.840        43
42.860        30
42.880        57
42.900        53
42.920        60
42.940        60
42.960        47
42.980        47
43.000        60
43.020        40
43.040        87
43.060        53
43.080       103
43.100        80
43.120        87
43.140        73
43.160        77
43.180        87
43.200        50
43.220        53
43.240        43
43.260        80
43.280        60
43.300        40
43.320        50
43.340        30
43.360        53
43.380        37
43.400        33
43.420        47
43.440        30
43.460        30
43.480        27
43.500        43
43.520        27
43.540        33
43.560        23
43.580        33
43.600        20
43.620        23
43.640        20
43.660        27
43.680        40
43.700        30
43.720        37
43.740        50
43.760        10
43.780        20
43.800        23
43.820        50
43.840        37
43.860        30
43.880        23
43.900        33
43.920        43
43.940        37
43.960        20
43.980        20
44.000        33
44.020        40
44.040        33
44.060        37
44.080        40
44.100        17
44.120        30
44.140        50
44.160        43
44.180        47
44.200        30
44.220        53
44.240        20
44.260        23
44.280        43
44.300        40
44.320        50
44.340        53
44.360        50
44.380        27
44.400        33
44.420        60
44.440        43
44.460        50
44.480        43
44.500        90
44.520        57
44.540        50
44.560        87
44.580        40
44.600        60
44.620        47
44.640        53
44.660        57
44.680        50
44.700        77
44.720        67
44.740        80
44.760        70
44.780        90
44.800        57
44.820        70
44.840        80
44.860        60
44.880        27
44.900        50
44.920        43
44.940        27
44.960        37
44.980        40
45.000        30
45.020        50
45.040        37
45.060        40
45.080        40
45.100        57
45.120        33
45.140        30
45.160        43
45.180        13
45.200        37
45.220        37
45.240        47
45.260        53
45.280        53
45.300        33
45.320        60
45.340        43
45.360        23
45.380        40
45.400        33
45.420        37
45.440        40
45.460        50
45.480        53
45.500        27
45.520        63
45.540        43
45.560        33
45.580        43
45.600        30
45.620        40
45.640        37
45.660        33
45.680        47
45.700        40
45.720        33
45.740        40
45.760        40
45.780        33
45.800        30
45.820        37
45.840        50
45.860        37
45.880        50
45.900        33
45.920        33
45.940        23
45.960        17
45.980        30
46.000        30
46.020        20
46.040        30
46.060        37
46.080        23
46.100        37
46.120        30
46.140        40
46.160        23
46.180        27
46.200        20
46.220        20
46.240        30
46.260        37
46.280        47
46.300        53
46.320        50
46.340        37
46.360        43
46.380        43
46.400        23
46.420        50
46.440        23
46.460        43
46.480        37
46.500        33
46.520        43
46.540        50
46.560        37
46.580        50
46.600        47
46.620        37
46.640        53
46.660        40
46.680        37
46.700        33
46.720        60
46.740        40
46.760        27
46.780        17
46.800        43
46.820        50
46.840        43
46.860        23
46.880        30
46.900        30
46.920        37
46.940        37
46.960        30
46.980        53
47.000        67
47.020        63
47.040        43
47.060        90
47.080        43
47.100        57
47.120        73
47.140        73
47.160       100
47.180        90
47.200        57
47.220        77
47.240        67
47.260        97
47.280        67
47.300        73
47.320        97
47.340        80
47.360        87
47.380        90
47.400       107
47.420       120
47.440       113
47.460       107
47.480        80
47.500       123
47.520        83
47.540       130
47.560        77
47.580        50
47.600        83
47.620        63
47.640        47
47.660        37
47.680        53
47.700        27
47.720        50
47.740        27
47.760        33
47.780        30
47.800        30
47.820        27
47.840        57
47.860        63
47.880        60
47.900        20
47.920        50
47.940        23
47.960        33
47.980        37
48.000        60
48.020        30
48.040        30
48.060        30
48.080        53
48.100        57
48.120        30
48.140        53
48.160        70
48.180        53
48.200        47
48.220        83
48.240        40
48.260        70
48.280        60
48.300        70
48.320        83
48.340        77
48.360       107
48.380       117
48.400        97
48.420       123
48.440       127
48.460       107
48.480        73
48.500       103
48.520        87
48.540        57
48.560       117
48.580        83
48.600        70
48.620        80
48.640        53
48.660        30
48.680        40
48.700        70
48.720        30
48.740        53
48.760        13
48.780        50
48.800        33
48.820        27
48.840        60
48.860        23
48.880        53
48.900        67
48.920        50
48.940        20
48.960        53
48.980        20
49.000        33
49.020        37
49.040        40
49.060        43
49.080        40
49.100        33
49.120        30
49.140        27
49.160        47
49.180        27
49.200        30
49.220        43
49.240        27
49.260        30
49.280        33
49.300        43
49.320        23
49.340        57
49.360        23
49.380        23
49.400        30
49.420        23
49.440        50
49.460        30
49.480        13
49.500        60
49.520        40
49.540        43
49.560        50
49.580        40
49.600        33
49.620        40
49.640        53
49.660        37
49.680        50
49.700        40
49.720        43
49.740        20
49.760        33
49.780        20
49.800        37
49.820        37
49.840        33
49.860        23
49.880        27
49.900        23
49.920        43
49.940        37
49.960        50
49.980        33
50.000        30
50.020        37
50.040        43
50.060        27
50.080        20
50.100        53
50.120        30
50.140        33
50.160        13
50.180        23
50.200        13
50.220        27
50.240        23
50.260        37
50.280        53
50.300        40
50.320        17
50.340        27
50.360        37
50.380        37
50.400        27
50.420        30
50.440        20
50.460        27
50.480        20
50.500        20
50.520        37
50.540        53
50.560        27
50.580        33
50.600        43
50.620        27
50.640        30
50.660        30
50.680        30
50.700        27
50.720        40
50.740        47
50.760        37
50.780        27
50.800        33
50.820        20
50.840        47
50.860        20
50.880        27
50.900        30
50.920        43
50.940        30
50.960        37
50.980        37
51.000        50
51.020        57
51.040        40
51.060        33
51.080        50
51.100        20
51.120        43
51.140        40
51.160        37
51.180        17
51.200        40
51.220        43
51.240        37
51.260        53
51.280        23
51.300        27
51.320        53
51.340        20
51.360        47
51.380        37
51.400        33
51.420        47
51.440        23
51.460        37
51.480        27
51.500        33
51.520        30
51.540        23
51.560        47
51.580        40
51.600        40
51.620        27
51.640        37
51.660        40
51.680        37
51.700        37
51.720        43
51.740        30
51.760        33
51.780        37
51.800        37
51.820        40
51.840        37
51.860        20
51.880        33
51.900        30
51.920        37
51.940        57
51.960        37
51.980        27
52.000        40
52.020        50
52.040        33
52.060        40
52.080        30
52.100        40
52.120        47
52.140        23
52.160        60
52.180        40
52.200        37
52.220        30
52.240        20
52.260        47
52.280        70
52.300        40
52.320        27
52.340        37
52.360        57
52.380        40
52.400        27
52.420        47
52.440        47
52.460        47
52.480        93
52.500        70
52.520        70
52.540        87
52.560        77
52.580       107
52.600       100
52.620       107
52.640        87
52.660       103
52.680        70
52.700       110
52.720        93
52.740        80
52.760        80
52.780        63
52.800        33
52.820        60
52.840        80
52.860        47
52.880        47
52.900        53
52.920        37
52.940        63
52.960        40
52.980        30
53.000       100
53.020        33
53.040        50
53.060        63
53.080        30
53.100        30
53.120        53
53.140        47
53.160        53
53.180        67
53.200        27
53.220        47
53.240        33
53.260        30
53.280        30
53.300        50
53.320        33
53.340        53
53.360        63
53.380        27
53.400        50
53.420        27
53.440        40
53.460        27
53.480        40
53.500        37
53.520        37
53.540        33
53.560        40
53.580        33
53.600        40
53.620        40
53.640        43
53.660        33
53.680        33
53.700        63
53.720        53
53.740        23
53.760        33
53.780        47
53.800        20
53.820        17
53.840        53
53.860        37
53.880        37
53.900        27
53.920        40
53.940        23
53.960        33
53.980        53
54.000        37
54.020        20
54.040        23
54.060        30
54.080        40
54.100        17
54.120        23
54.140        33
54.160        33
54.180        33
54.200        40
54.220        30
54.240        40
54.260        30
54.280        40
54.300        10
54.320        27
54.340        20
54.360        23
54.380        67
54.400        33
54.420        57
54.440        40
54.460        50
54.480        43
54.500        33
54.520        70
54.540        43
54.560        30
54.580        37
54.600        43
54.620        57
54.640        43
54.660        23
54.680        20
54.700        73
54.720        30
54.740        43
54.760        53
54.780        40
54.800        73
54.820        50
54.840        50
54.860        50
54.880        40
54.900        40
54.920        50
54.940        73
54.960        77
54.980        53
55.000        67
55.020        63
55.040        33
55.060        70
55.080        47
55.100        47
55.120        40
55.140        60
55.160        50
55.180        40
55.200        47
55.220        57
55.240        47
55.260        57
55.280        60
55.300        47
55.320        40
55.340        57
55.360        47
55.380        73
55.400        37
55.420        50
55.440        57
55.460        27
55.480        43
55.500        43
55.520        57
55.540        47
55.560        47
55.580        50
55.600        30
55.620        47
55.640        53
55.660        47
55.680        37
55.700        47
55.720        40
55.740        40
55.760        40
55.780        30
55.800        33
55.820        43
55.840        23
55.860        63
55.880        40
55.900        40
55.920        50
55.940        50
55.960        57
55.980        40
56.000        20
56.020        30
56.040        27
56.060        27
56.080        63
56.100        40
56.120        57
56.140        27
56.160        40
56.180        43
56.200        40
56.220        27
56.240        33
56.260        53
56.280        20
56.300        67
56.320        47
56.340        37
56.360        67
56.380        57
56.400        50
56.420        63
56.440        40
56.460        73
56.480        30
56.500        80
56.520        60
56.540        77
56.560        77
56.580        50
56.600        80
56.620        53
56.640        50
56.660        23
56.680        57
56.700        40
56.720        40
56.740        43
56.760        40
56.780        40
56.800        40
56.820        43
56.840        33
56.860        53
56.880        60
56.900        50
56.920        73
56.940        57
56.960        50
56.980        43
57.000        60
57.020        43
57.040        27
57.060        43
57.080        63
57.100        57
57.120        37
57.140        53
57.160        50
57.180        87
57.200        47
57.220        53
57.240        83
57.260        77
57.280        57
57.300        70
57.320        73
57.340        60
57.360        70
57.380        53
57.400        70
57.420        63
57.440        70
57.460        50
57.480        77
57.500        67
57.520        63
57.540        70
57.560        43
57.580        40
57.600        53
57.620        30
57.640        33
57.660        47
57.680        50
57.700        37
57.720        40
57.740        27
57.760        57
57.780        33
57.800        43
57.820        37
57.840        43
57.860        33
57.880        50
57.900        37
57.920        37
57.940        37
57.960        27
57.980        30
58.000        33
58.020        37
58.040        60
58.060        47
58.080        47
58.100        53
58.120        30
58.140        60
58.160        60
58.180        40
58.200        37
58.220        40
58.240        40
58.260        27
58.280        27
58.300        47
58.320        20
58.340        10
58.360        27
58.380        60
58.400        37
58.420        47
58.440        27
58.460        43
58.480        50
58.500        53
58.520        23
58.540        20
58.560        33
58.580        43
58.600        37
58.620        30
58.640        57
58.660        53
58.680        33
58.700        60
58.720        47
58.740        40
58.760        50
58.780        30
58.800        20
58.820        33
58.840        23
58.860        27
58.880        40
58.900        47
58.920        10
58.940        23
58.960        53
58.980        43
59.000        23
59.020        33
59.040        33
59.060        33
59.080        43
59.100        50
59.120        33
59.140        40
59.160        13
59.180        40
59.200        37
59.220        37
59.240        47
59.260        50
59.280        27
59.300        27
59.320        37
59.340        40
59.360        33
59.380        27
59.400        43
59.420        23
59.440        40
59.460        33
59.480        23
59.500        27
59.520        33
59.540        30
59.560        37
59.580        43
59.600        40
59.620        23
59.640        37
59.660        40
59.680        43
59.700        43
59.720        50
59.740        37
59.760        63
59.780        37
59.800        57
59.820        30
59.840        40
59.860        40
59.880        43
59.900        50
59.920        30
59.940        43
59.960        33
59.980        40
60.000        53
60.020        57
60.040        57
60.060        50
60.080        60
60.100        47
60.120        43
60.140        57
60.160        13
60.180        27
60.200        23
60.220        40
60.240        23
60.260        30
60.280        30
60.300        40
60.320        60
60.340        40
60.360        50
60.380        27
60.400        37
60.420        73
60.440        53
60.460        53
60.480        73
60.500        47
60.520        37
60.540        60
60.560        97
60.580        57
60.600        47
60.620        53
60.640        37
60.660        70
60.680        67
60.700        60
60.720        53
60.740        67
60.760        47
60.780        47
60.800        47
60.820        33
60.840        47
60.860        43
60.880        50
60.900        47
60.920        33
60.940        33
60.960        37
60.980        50
61.000        63
61.020        33
61.040        57
61.060        37
61.080        47
61.100        47
61.120        47
61.140        30
61.160        50
61.180        30
61.200        60
61.220        60
61.240        47
61.260        67
61.280        43
61.300        37
61.320        40
61.340        50
61.360        57
61.380        50
61.400        37
61.420        17
61.440        27
61.460        73
61.480        53
61.500        37
61.520        30
61.540        27
61.560        50
61.580        37
61.600        47
61.620        37
61.640        30
61.660        40
61.680        33
61.700        50
61.720        27
61.740        37
61.760        20
61.780        37
61.800        37
61.820        50
61.840        23
61.860        43
61.880        43
61.900        60
61.920        37
61.940        40
61.960        43
61.980        40
62.000        57
62.020        47
62.040        33
62.060        37
62.080        60
62.100        40
62.120        50
62.140        30
62.160        47
62.180        63
62.200        47
62.220        77
62.240        50
62.260        37
62.280        43
62.300        47
62.320        53
62.340        30
62.360        47
62.380        53
62.400        27
62.420        47
62.440        60
62.460        43
62.480        37
62.500        40
62.520        27
62.540        43
62.560        27
62.580        47
62.600        30
62.620        43
62.640        27
62.660        40
62.680        17
62.700        50
62.720        30
62.740        17
62.760        50
62.780        30
62.800        30
62.820        37
62.840        53
62.860        53
62.880        47
62.900        33
62.920        17
62.940        33
62.960        30
62.980        47
63.000        37
63.020        40
63.040        27
63.060        27
63.080        43
63.100        30
63.120        47
63.140        27
63.160        47
63.180        43
63.200        33
63.220        23
63.240        43
63.260        53
63.280        17
63.300        20
63.320        37
63.340        47
63.360        30
63.380        30
63.400        17
63.420        20
63.440        37
63.460        33
63.480        40
63.500        27
63.520        40
63.540        53
63.560        57
63.580        63
63.600        60
63.620        40
63.640        90
63.660        40
63.680        70
63.700        60
63.720        43
63.740        50
63.760        70
63.780        47
63.800        40
63.820        50
63.840        53
63.860        53
63.880        37
63.900        30
63.920        43
63.940        30
63.960        27
63.980        63
64.000        50
64.020        43
64.040        30
64.060        40
64.080        53
64.100        40
64.120        57
64.140        27
64.160        30
64.180        30
64.200        37
64.220        47
64.240        47
64.260        40
64.280        60
64.300        37
64.320        47
64.340        30
64.360        30
64.380        57
64.400        47
64.420        33
64.440        37
64.460        50
64.480        63
64.500        43
64.520        63
64.540        63
64.560        43
64.580        57
64.600        67
64.620        67
64.640        63
64.660        50
64.680        67
64.700        67
64.720        70
64.740        37
64.760        77
64.780        47
64.800        43
64.820        50
64.840        63
64.860        37
64.880        63
64.900        27
64.920        43
64.940        27
64.960        33
64.980        27
65.000        53
65.020        47
65.040        40
65.060        47
65.080        17
65.100        47
65.120        23
65.140        27
65.160        37
65.180        50
65.200        43
65.220        23
65.240        47
65.260        23
65.280        57
65.300        37
65.320        67
65.340        47
65.360        57
65.380        47
65.400        30
65.420        40
65.440        73
65.460        53
65.480        47
65.500        73
65.520        43
65.540        37
65.560        70
65.580        57
65.600        50
65.620        50
65.640        37
65.660        37
65.680        47
65.700        40
65.720        37
65.740        70
65.760        27
65.780        37
65.800        37
65.820        53
65.840        37
65.860        37
65.880        37
65.900        27
65.920        17
65.940        33
65.960        40
65.980        33
66.000        23
66.020        23
66.040        43
66.060        37
66.080        40
66.100        43
66.120        40
66.140        27
66.160        37
66.180        33
66.200        33
66.220        17
66.240        23
66.260        37
66.280        33
66.300        50
66.320        30
66.340        17
66.360        50
66.380        23
66.400        47
66.420        57
66.440        33
66.460        30
66.480        37
66.500        33
66.520        30
66.540        37
66.560        20
66.580        33
66.600        40
66.620        23
66.640        30
66.660        33
66.680        33
66.700        40
66.720        67
66.740        30
66.760        33
66.780        30
66.800        37
66.820        37
66.840        43
66.860        33
66.880        30
66.900        20
66.920        50
66.940        37
66.960        30
66.980        53
67.000        30
67.020        33
67.040        20
67.060        23
67.080        17
67.100        20
67.120        23
67.140        37
67.160        33
67.180        20
67.200        30
67.220        43
67.240        30
67.260        40
67.280        20
67.300        30
67.320        40
67.340        37
67.360        43
67.380        20
67.400        23
67.420        23
67.440        43
67.460        43
67.480        37
67.500        33
67.520        23
67.540        30
67.560        50
67.580        33
67.600        23
67.620        33
67.640        30
67.660        43
67.680        30
67.700        43
67.720        53
67.740        30
67.760        47
67.780        43
67.800        30
67.820        60
67.840        30
67.860        43
67.880        60
67.900        40
67.920        33
67.940        40
67.960        43
67.980        27
68.000        17
68.020        30
68.040        50
68.060        30
68.080        43
68.100        57
68.120        33
68.140        43
68.160        30
68.180        23
68.200        50
68.220        30
68.240        23
68.260        27
68.280        47
68.300        73
68.320        40
68.340        30
68.360        47
68.380        43
68.400        27
68.420        27
68.440        23
68.460        50
68.480        40
68.500        27
68.520        17
68.540        30
68.560        23
68.580        27
68.600        37
68.620        37
68.640        30
68.660        30
68.680        10
68.700        30
68.720        37
68.740        27
68.760        13
68.780        33
68.800        40
68.820        33
68.840        33
68.860        47
68.880        27
68.900        33
68.920        30
68.940        27
68.960        47
68.980        40
69.000        60
69.020        20
69.040        37
69.060        23
69.080        27
69.100        50
69.120        40
69.140        33
69.160        23
69.180        27
69.200        47
69.220        37
69.240        47
69.260        40
69.280        37
69.300        37
69.320        27
69.340        33
69.360        27
69.380        33
69.400        33
69.420        47
69.440        27
69.460        23
69.480        43
69.500        30
69.520        23
69.540        33
69.560        40
69.580        37
69.600        33
69.620        37
69.640        33
69.660        43
69.680        33
69.700        33
69.720        37
69.740        33
69.760        23
69.780        50
69.800        60
69.820        37
69.840        23
69.860        30
69.880        40
69.900        67
69.920        70
69.940        40
69.960        43
69.980        40
70.000        53
70.020        37
70.040        53
70.060        37
70.080        40
70.100        57
70.120        70
70.140        67
70.160        57
70.180        70
70.200        23
70.220        47
70.240        47
70.260        60
70.280        43
70.300        47
70.320        40
70.340        40
70.360        37
70.380        27
70.400        27
70.420        37
70.440        43
70.460        33
70.480        43
70.500        20
70.520        30
70.540        33
70.560        30
70.580        33
70.600        47
70.620        10
70.640        40
70.660        27
70.680        20
70.700        23
70.720        30
70.740        27
70.760        37
70.780         7
70.800        20
70.820        47
70.840        33
70.860        20
70.880        37
70.900        27
70.920        30
70.940        30
70.960        33
70.980        30
71.000        37
71.020        23
71.040        53
71.060        40
71.080        30
71.100        37
71.120        30
71.140        37
71.160        30
71.180        43
71.200        43
71.220        30
71.240        43
71.260        17
71.280        27
71.300        40
71.320        33
71.340        33
71.360        47
71.380        33
71.400        37
71.420        47
71.440        27
71.460        27
71.480        17
71.500        33
71.520        30
71.540        30
71.560        30
71.580        37
71.600        37
71.620        37
71.640        17
71.660        47
71.680        30
71.700        27
71.720        40
71.740        47
71.760        23
71.780        17
71.800        20
71.820        57
71.840        37
71.860        30
71.880        37
71.900        33
71.920        30
71.940        33
71.960        50
71.980        43
72.000        43
72.020        47
72.040        57
72.060        40
72.080        83
72.100        47
72.120        57
72.140        80
72.160        43
72.180        47
72.200        40
72.220        43
72.240        23
72.260        47
72.280        43
72.300        27
72.320        63
72.340        40
72.360        53
72.380        43
72.400        23
72.420        37
72.440        67
72.460        33
72.480        47
72.500        37
72.520        33
72.540        30
72.560        60
72.580        47
72.600        27
72.620        57
72.640        43
72.660        43
72.680        67
72.700        53
72.720        50
72.740        60
72.760        47
72.780        33
72.800        47
72.820        50
72.840        67
72.860        67
72.880        57
72.900        47
72.920        40
72.940        53
72.960        53
72.980        47
73.000        53
73.020        43
73.040        40
73.060        23
73.080        37
73.100        23
73.120        47
73.140        37
73.160        63
73.180        53
73.200        30
73.220        37
73.240        30
73.260        30
73.280        23
73.300        17
73.320        33
73.340        47
73.360        40
73.380        17
73.400        47
73.420        43
73.440        50
73.460        17
73.480        27
73.500        43
73.520        50
73.540        33
73.560        57
73.580        30
73.600        60
73.620        37
73.640        27
73.660        37
73.680        40
73.700        47
73.720        27
73.740        37
73.760        43
73.780        23
73.800        40
73.820        47
73.840        27
73.860        27
73.880        23
73.900        33
73.920        33
73.940        27
73.960        33
73.980        50
74.000        53
74.020        10
74.040        37
74.060        40
74.080        37
74.100        40
74.120        30
74.140        27
74.160        33
74.180        17
74.200        40
74.220        23
74.240        27
74.260        10
74.280        23
74.300        23
74.320        30
74.340        37
74.360        17
74.380        17
74.400        23
74.420        10
74.440        23
74.460        43
74.480        33
74.500        37
74.520        30
74.540        23
74.560        23
74.580        37
74.600        40
74.620        20
74.640        50
74.660        23
74.680        37
74.700        13
74.720        27
74.740        40
74.760        33
74.780        27
74.800        40
74.820        27
74.840        30
74.860        27
74.880        43
74.900        27
74.920        27
74.940        40
74.960        50
74.980        47
75.000        23
75.020        30
75.040        40
75.060        20
75.080        40
75.100        50
75.120        37
75.140        33
75.160        27
75.180        37
75.200        43
75.220        20
75.240        60
75.260        23
75.280        37
75.300        37
75.320        40
75.340        43
75.360        23
75.380        20
75.400        33
75.420        23
75.440        30
75.460        37
75.480        53
75.500        33
75.520        23
75.540        40
75.560        60
75.580        23
75.600        57
75.620        27
75.640        40
75.660        33
75.680        50
75.700        47
75.720        33
75.740        33
75.760        40
75.780        43
75.800        40
75.820        50
75.840        37
75.860        50
75.880        23
75.900        53
75.920        10
75.940        37
75.960        47
75.980        60
76.000        70
76.020        70
76.040        37
76.060        50
76.080        33
76.100        20
76.120        47
76.140        37
76.160        60
76.180        37
76.200        37
76.220        33
76.240        43
76.260        50
76.280        30
76.300        40
76.320        43
76.340        37
76.360        27
76.380        43
76.400        47
76.420        40
76.440        47
76.460        37
76.480        27
76.500        17
76.520        37
76.540        30
76.560        23
76.580        43
76.600        43
76.620        20
76.640        40
76.660        43
76.680        33
76.700        60
76.720        37
76.740        53
76.760        33
76.780        33
76.800        23
76.820        63
76.840        20
76.860        50
76.880        30
76.900        53
76.920        40
76.940        43
76.960        33
76.980        40
77.000        40
77.020        50
77.040        47
77.060        43
77.080        60
77.100        37
77.120        33
77.140        50
77.160        60
77.180        43
77.200        67
77.220        47
77.240        30
77.260         7
77.280        30
77.300        37
77.320        27
77.340        37
77.360        33
77.380        33
77.400        23
77.420        23
77.440        43
77.460        47
77.480        33
77.500        23
77.520        27
77.540        30
77.560        30
77.580        33
77.600         7
77.620        17
77.640        37
77.660        30
77.680        33
77.700        23
77.720        23
77.740        33
77.760        33
77.780        37
77.800        53
77.820        33
77.840        27
77.860        27
77.880        33
77.900        23
77.920        37
77.940        30
77.960        23
77.980        37
78.000        20
78.020        17
78.040        37
78.060        47
78.080        40
78.100        23
78.120        33
78.140        50
78.160        17
78.180        27
78.200        30
78.220        27
78.240        23
78.260        20
78.280        30
78.300        33
78.320        17
78.340        27
78.360        43
78.380        23
78.400        27
78.420        20
78.440        40
78.460        50
78.480        33
78.500        33
78.520        13
78.540        37
78.560        43
78.580        23
78.600        37
78.620        40
78.640        30
78.660        27
78.680        20
78.700        40
78.720        40
78.740        37
78.760        27
78.780        33
78.800        20
78.820        33
78.840        17
78.860        23
78.880        33
78.900        30
78.920        33
78.940        27
78.960        33
78.980        33
79.000        40
79.020        27
79.040        47
79.060        37
79.080        40
79.100        27
79.120        37
79.140        37
79.160        13
79.180        40
79.200        43
79.220        33
79.240        30
79.260        47
79.280        30
79.300        27
79.320        30
79.340        43
79.360        37
79.380        43
79.400        17
79.420        30
79.440        20
79.460        33
79.480        40
79.500        30
79.520        33
79.540        43
79.560        37
79.580        23
79.600        37
79.620        33
79.640        37
79.660        37
79.680        30
79.700        17
79.720        30
79.740        27
79.760        20
79.780        20
79.800         0
79.820         0
79.840         0
79.860         0
79.880         0
79.900         0
79.920         0
79.940         0
79.960         0
79.980         0
80.000         0
