20.000         0
20.020         0
20.040         0
20.060         3
20.080         0
20.100         0
20.120         0
20.140         0
20.160         0
20.180         0
20.200         0
20.220         0
20.240         0
20.260         0
20.280         0
20.300       473
20.320       780
20.340       673
20.360       713
20.380       646
20.400       780
20.420       746
20.440       706
20.460       720
20.480       790
20.500       776
20.520       696
20.540       700
20.560       726
20.580       766
20.600       710
20.620       673
20.640       773
20.660       690
20.680       730
20.700       713
20.720       773
20.740       733
20.760       836
20.780       646
20.800       693
20.820       683
20.840       726
20.860       820
20.880       776
20.900       760
20.920       723
20.940       810
20.960       806
20.980       773
21.000       806
21.020       756
21.040       743
21.060       823
21.080       796
21.100       863
21.120       863
21.140       920
21.160       973
21.180       886
21.200       930
21.220       976
21.240       900
21.260       926
21.280       823
21.300       740
21.320       756
21.340       820
21.360       820
21.380       713
21.400       830
21.420       760
21.440       650
21.460       703
21.480       726
21.500       766
21.520       680
21.540       806
21.560       833
21.580       656
21.600       700
21.620       656
21.640       616
21.660       576
21.680       666
21.700       716
21.720       676
21.740       680
21.760       630
21.780       680
21.800       680
21.820       650
21.840       626
21.860       580
21.880       630
21.900       526
21.920       633
21.940       623
21.960       553
21.980       600
22.000       546
22.020       550
22.040       660
22.060       556
22.080       680
22.100       563
22.120       616
22.140       523
22.160       546
22.180       526
22.200       610
22.220       606
22.240       630
22.260       613
22.280       583
22.300       573
22.320       596
22.340       523
22.360       563
22.380       600
22.400       636
22.420       643
22.440       696
22.460       586
22.480       653
22.500       613
22.520       636
22.540       576
22.560       543
22.580       626
22.600       536
22.620       580
22.640       623
22.660       640
22.680       636
22.700       636
22.720       676
22.740       620
22.760       736
22.780       613
22.800       526
22.820       706
22.840       646
22.860       633
22.880       620
22.900       523
22.920       650
22.940       633
22.960       566
22.980       536
23.000       620
23.020       593
23.040       586
23.060       570
23.080       563
23.100       573
23.120       553
23.140       570
23.160       573
23.180       573
23.200       556
23.220       560
23.240       543
23.260       560
23.280       573
23.300       530
23.320       506
23.340       563
23.360       513
23.380       563
23.400       550
23.420       580
23.440       516
23.460       616
23.480       613
23.500       653
23.520       630
23.540       570
23.560       533
23.580       563
23.600       646
23.620       613
23.640       646
23.660       533
23.680       613
23.700       516
23.720       556
23.740       573
23.760       570
23.780       440
23.800       503
23.820       566
23.840       580
23.860       500
23.880       500
23.900       626
23.920       513
23.940       533
23.960       520
23.980       470
24.000       533
24.020       566
24.040       466
24.060       580
24.080       550
24.100       540
24.120       473
24.140       483
24.160       480
24.180       553
24.200       530
24.220       543
24.240       496
24.260       536
24.280       500
24.300       623
24.320       566
24.340       576
24.360       546
24.380       543
24.400       580
24.420       530
24.440       593
24.460       623
24.480       653
24.500       700
24.520       633
24.540       733
24.560       690
24.580       703
24.600       813
24.620       713
24.640       696
24.660       710
24.680       646
24.700       666
24.720       680
24.740       633
24.760       650
24.780       673
24.800       533
24.820       536
24.840       583
24.860       480
24.880       593
24.900       496
24.920       546
24.940       463
24.960       523
24.980       506
25.000       433
25.020       526
25.040       523
25.060       473
25.080       486
25.100       526
25.120       530
25.140       460
25.160       420
25.180       483
25.200       480
25.220       493
25.240       480
25.260       470
25.280       443
25.300       500
25.320       563
25.340       560
25.360       510
25.380       443
25.400       483
25.420       500
25.440       506
25.460       543
25.480       483
25.500       503
25.520       583
25.540       536
25.560       530
25.580       513
25.600       563
25.620       570
25.640       563
25.660       456
25.680       493
25.700       546
25.720       570
25.740       483
25.760       430
25.780       490
25.800       413
25.820       446
25.840       433
25.860       483
25.880       463
25.900       523
25.920       483
25.940       476
25.960       460
25.980       480
26.000       423
26.020       387
26.040       543
26.060       486
26.080       546
26.100       463
26.120       520
26.140       470
26.160       420
26.180       493
26.200       510
26.220       473
26.240       486
26.260       513
26.280       520
26.300       473
26.320       503
26.340       503
26.360       536
26.380       550
26.400       583
26.420       586
26.440       546
26.460       583
26.480       503
26.500       486
26.520       460
26.540       463
26.560       473
26.580       443
26.600       400
26.620       433
26.640       387
26.660       446
26.680       413
26.700       483
26.720       476
26.740       430
26.760       360
26.780       453
26.800       436
26.820       430
26.840       383
26.860       420
26.880       446
26.900       456
26.920       433
26.940       423
26.960       380
26.980       436
27.000       443
27.020       460
27.040       503
27.060       410
27.080       380
27.100       397
27.120       413
27.140       413
27.160       463
27.180       410
27.200       433
27.220       387
27.240       420
27.260       480
27.280       440
27.300       473
27.320       436
27.340       423
27.360       430
27.380       413
27.400       413
27.420       387
27.440       390
27.460       343
27.480       423
27.500       400
27.520       463
27.540       440
27.560       503
27.580       460
27.600       407
27.620       506
27.640       417
27.660       463
27.680       503
27.700       456
27.720       400
27.740       546
27.760       476
27.780       373
27.800       426
27.820       407
27.840       413
27.860       423
27.880       407
27.900       476
27.920       436
27.940       390
27.960       387
27.980       443
28.000       420
28.020       470
28.040       410
28.060       400
28.080       433
28.100       423
28.120       453
28.140       433
28.160       460
28.180       430
28.200       420
28.220       430
28.240       417
28.260       450
28.280       506
28.300       360
28.320       407
28.340       450
28.360       463
28.380       383
28.400       433
28.420       397
28.440       393
28.460       400
28.480       506
28.500       493
28.520       426
28.540       413
28.560       430
28.580       413
28.600       443
28.620       480
28.640       440
28.660       460
28.680       423
28.700       460
28.720       410
28.740       433
28.760       490
28.780       426
28.800       493
28.820       530
28.840       533
28.860       583
28.880       536
28.900       593
28.920       616
28.940       716
28.960       720
28.980       806
29.000       846
29.020       993
29.040      1036
29.060      1126
29.080      1073
29.100      1173
29.120      1210
29.140      1333
29.160      1349
29.180      1416
29.200      1289
29.220      1186
29.240      1160
29.260       960
29.280       990
29.300       803
29.320       776
29.340       693
29.360       660
29.380       463
29.400       466
29.420       430
29.440       397
29.460       456
29.480       383
29.500       387
29.520       483
29.540       436
29.560       446
29.580       493
29.600       493
29.620       440
29.640       413
29.660       450
29.680       420
29.700       430
29.720       443
29.740       413
29.760       350
29.780       400
29.800       456
29.820       443
29.840       440
29.860       446
29.880       393
29.900       377
29.920       430
29.940       470
29.960       423
29.980       367
30.000       407
30.020       400
30.040       373
30.060       436
30.080       397
30.100       413
30.120       450
30.140       373
30.160       426
30.180       450
30.200       407
30.220       430
30.240       433
30.260       420
30.280       476
30.300       470
30.320       476
30.340       570
30.360       630
30.380       543
30.400       570
30.420       606
30.440       566
30.460       563
30.480       603
30.500       603
30.520       533
30.540       686
30.560       633
30.580       630
30.600       616
30.620       630
30.640       530
30.660       590
30.680       653
30.700       596
30.720       536
30.740       430
30.760       523
30.780       450
30.800       433
30.820       486
30.840       550
30.860       473
30.880       513
30.900       417
30.920       367
30.940       407
30.960       387
30.980       423
31.000       473
31.020       387
31.040       446
31.060       423
31.080       417
31.100       407
31.120       466
31.140       520
31.160       446
31.180       353
31.200       390
31.220       450
31.240       476
31.260       433
31.280       400
31.300       430
31.320       433
31.340       460
31.360       526
31.380       363
31.400       420
31.420       413
31.440       430
31.460       367
31.480       400
31.500       413
31.520       357
31.540       430
31.560       350
31.580       380
31.600       363
31.620       377
31.640       403
31.660       403
31.680       423
31.700       350
31.720       446
31.740       413
31.760       400
31.780       353
31.800       377
31.820       393
31.840       417
31.860       387
31.880       380
31.900       436
31.920       403
31.940       383
31.960       393
31.980       380
32.000       363
32.020       403
32.040       327
32.060       400
32.080       413
32.100       387
32.120       367
32.140       403
32.160       413
32.180       367
32.200       333
32.220       377
32.240       387
32.260       357
32.280       403
32.300       357
32.320       327
32.340       410
32.360       473
32.380       353
32.400       410
32.420       350
32.440       320
32.460       353
32.480       380
32.500       380
32.520       377
32.540       317
32.560       430
32.580       367
32.600       377
32.620       380
32.640       367
32.660       307
32.680       400
32.700       380
32.720       410
32.740       443
32.760       417
32.780       350
32.800       337
32.820       383
32.840       323
32.860       397
32.880       446
32.900       410
32.920       367
32.940       393
32.960       383
32.980       403
33.000       456
33.020       357
33.040       407
33.060       370
33.080       327
33.100       353
33.120       330
33.140       357
33.160       370
33.180       350
33.200       373
33.220       353
33.240       383
33.260       347
33.280       313
33.300       397
33.320       383
33.340       340
33.360       363
33.380       377
33.400       360
33.420       370
33.440       466
33.460       383
33.480       390
33.500       413
33.520       397
33.540       407
33.560       470
33.580       387
33.600       397
33.620       320
33.640       423
33.660       397
33.680       373
33.700       363
33.720       293
33.740       367
33.760       443
33.780       353
33.800       377
33.820       383
33.840       383
33.860       393
33.880       400
33.900       377
33.920       323
33.940       426
33.960       377
33.980       407
34.000       337
34.020       383
34.040       383
34.060       397
34.080       380
34.100       373
34.120       433
34.140       303
34.160       380
34.180       463
34.200       343
34.220       426
34.240       340
34.260       333
34.280       377
34.300       407
34.320       387
34.340       363
34.360       347
34.380       453
34.400       353
34.420       373
34.440       347
34.460       390
34.480       403
34.500       373
34.520       443
34.540       407
34.560       443
34.580       440
34.600       407
34.620       383
34.640       433
34.660       403
34.680       380
34.700       357
34.720       393
34.740       473
34.760       436
34.780       480
34.800       466
34.820       400
34.840       440
34.860       393
34.880       350
34.900       393
34.920       407
34.940       373
34.960       377
34.980       426
35.000       383
35.020       410
35.040       393
35.060       380
35.080       410
35.100       363
35.120       387
35.140       426
35.160       400
35.180       460
35.200       417
35.220       397
35.240       330
35.260       420
35.280       363
35.300       433
35.320       513
35.340       407
35.360       330
35.380       453
35.400       440
35.420       483
35.440       357
35.460       403
35.480       526
35.500       510
35.520       400
35.540       460
35.560       490
35.580       556
35.600       546
35.620       563
35.640       560
35.660       583
35.680       603
35.700       530
35.720       563
35.740       566
35.760       556
35.780       546
35.800       570
35.820       553
35.840       536
35.860       510
35.880       490
35.900       496
35.920       423
35.940       496
35.960       413
35.980       357
36.000       387
36.020       433
36.040       390
36.060       370
36.080       373
36.100       410
36.120       436
36.140       417
36.160       387
36.180       423
36.200       433
36.220       533
36.240       403
36.260       410
36.280       420
36.300       403
36.320       403
36.340       373
36.360       310
36.380       453
36.400       390
36.420       347
36.440       453
36.460       480
36.480       340
36.500       383
36.520       367
36.540       430
36.560       393
36.580       357
36.600       383
36.620       357
36.640       426
36.660       363
36.680       367
36.700       383
36.720       360
36.740       343
36.760       380
36.780       360
36.800       300
36.820       357
36.840       383
36.860       367
36.880       313
36.900       403
36.920       357
36.940       470
36.960       407
36.980       407
37.000       343
37.020       327
37.040       450
37.060       387
37.080       390
37.100       423
37.120       317
37.140       433
37.160       446
37.180       367
37.200       390
37.220       347
37.240       423
37.260       433
37.280       397
37.300       460
37.320       440
37.340       407
37.360       410
37.380       453
37.400       470
37.420       470
37.440       423
37.460       510
37.480       493
37.500       430
37.520       473
37.540       453
37.560       453
37.580       456
37.600       483
37.620       463
37.640       463
37.660       493
37.680       463
37.700       553
37.720       556
37.740       480
37.760       493
37.780       516
37.800       516
37.820       583
37.840       506
37.860       543
37.880       530
37.900       526
37.920       543
37.940       556
37.960       543
37.980       586
38.000       540
38.020       530
38.040       536
38.060       563
38.080       553
38.100       553
38.120       536
38.140       546
38.160       563
38.180       513
38.200       600
38.220       543
38.240       553
38.260       533
38.280       413
38.300       506
38.320       436
38.340       463
38.360       383
38.380       473
38.400       410
38.420       393
38.440       433
38.460       423
38.480       443
38.500       433
38.520       397
38.540       443
38.560       466
38.580       430
38.600       407
38.620       417
38.640       503
38.660       503
38.680       450
38.700       450
38.720       390
38.740       443
38.760       450
38.780       510
38.800       503
38.820       463
38.840       480
38.860       546
38.880       500
38.900       490
38.920       500
38.940       510
38.960       530
38.980       610
39.000       576
39.020       570
39.040       586
39.060       733
39.080       673
39.100       720
39.120       720
39.140       593
39.160       666
39.180       673
39.200       643
39.220       640
39.240       666
39.260       576
39.280       706
39.300       520
39.320       543
39.340       503
39.360       466
39.380       476
39.400       466
39.420       493
39.440       506
39.460       410
39.480       456
39.500       466
39.520       430
39.540       397
39.560       420
39.580       397
39.600       450
39.620       417
39.640       456
39.660       426
39.680       417
39.700       450
39.720       423
39.740       367
39.760       387
39.780       407
39.800       426
39.820       347
39.840       466
39.860       436
39.880       390
39.900       397
39.920       423
39.940       426
39.960       387
39.980       417
40.000       387
40.020       430
40.040       417
40.060       390
40.080       470
40.100       426
40.120       353
40.140       433
40.160       430
40.180       476
40.200       433
40.220       393
40.240       463
40.260       403
40.280       420
40.300       407
40.320       453
40.340       400
40.360       357
40.380       363
40.400       393
40.420       403
40.440       387
40.460       323
40.480       426
40.500       393
40.520       373
40.540       380
40.560       426
40.580       413
40.600       400
40.620       343
40.640       370
40.660       367
40.680       377
40.700       430
40.720       463
40.740       400
40.760       360
40.780       350
40.800       367
40.820       390
40.840       387
40.860       397
40.880       377
40.900       377
40.920       407
40.940       443
40.960       353
40.980       387
41.000       436
41.020       390
41.040       440
41.060       363
41.080       367
41.100       417
41.120       430
41.140       420
41.160       423
41.180       380
41.200       347
41.220       480
41.240       387
41.260       320
41.280       393
41.300       333
41.320       357
41.340       343
41.360       446
41.380       426
41.400       347
41.420       347
41.440       426
41.460       397
41.480       407
41.500       390
41.520       390
41.540       347
41.560       413
41.580       423
41.600       413
41.620       443
41.640       390
41.660       443
41.680       417
41.700       363
41.720       436
41.740       357
41.760       430
41.780       476
41.800       490
41.820       373
41.840       397
41.860       347
41.880       436
41.900       473
41.920       420
41.940       397
41.960       430
41.980       476
42.000       400
42.020       413
42.040       413
42.060       390
42.080       410
42.100       433
42.120       353
42.140       410
42.160       486
42.180       420
42.200       353
42.220       436
42.240       433
42.260       436
42.280       443
42.300       410
42.320       380
42.340       466
42.360       456
42.380       463
42.400       430
42.420       476
42.440       413
42.460       363
42.480       430
42.500       453
42.520       460
42.540       350
42.560       407
42.580       390
42.600       393
42.620       476
42.640       426
42.660       443
42.680       513
42.700       460
42.720       506
42.740       530
42.760       563
42.780       540
42.800       566
42.820       620
42.840       616
42.860       730
42.880       726
42.900       653
42.920       663
42.940       646
42.960       730
42.980       733
43.000       723
43.020       653
43.040       640
43.060       596
43.080       530
43.100       606
43.120       550
43.140       466
43.160       533
43.180       566
43.200       543
43.220       450
43.240       503
43.260       633
43.280       530
43.300       526
43.320       560
43.340       503
43.360       520
43.380       546
43.400       560
43.420       663
43.440       646
43.460       636
43.480       650
43.500       656
43.520       623
43.540       646
43.560       583
43.580       663
43.600       666
43.620       606
43.640       643
43.660       633
43.680       653
43.700       690
43.720       583
43.740       643
43.760       630
43.780       506
43.800       616
43.820       543
43.840       523
43.860       563
43.880       520
43.900       536
43.920       500
43.940       443
43.960       470
43.980       520
44.000       503
44.020       436
44.040       476
44.060       503
44.080       466
44.100       493
44.120       460
44.140       483
44.160       453
44.180       450
44.200       407
44.220       420
44.240       483
44.260       466
44.280       443
44.300       417
44.320       453
44.340       430
44.360       453
44.380       440
44.400       383
44.420       453
44.440       413
44.460       420
44.480       373
44.500       380
44.520       397
44.540       407
44.560       357
44.580       410
44.600       417
44.620       403
44.640       430
44.660       393
44.680       373
44.700       390
44.720       496
44.740       383
44.760       490
44.780       393
44.800       433
44.820       476
44.840       390
44.860       383
44.880       466
44.900       433
44.920       523
44.940       350
44.960       393
44.980       347
45.000       410
45.020       503
45.040       420
45.060       353
45.080       397
45.100       446
45.120       426
45.140       436
45.160       443
45.180       390
45.200       436
45.220       446
45.240       483
45.260       483
45.280       373
45.300       446
45.320       450
45.340       423
45.360       423
45.380       460
45.400       413
45.420       393
45.440       393
45.460       403
45.480       377
45.500       436
45.520       403
45.540       407
45.560       490
45.580       390
45.600       420
45.620       393
45.640       397
45.660       393
45.680       410
45.700       353
45.720       400
45.740       317
45.760       367
45.780       380
45.800       370
45.820       313
45.840       400
45.860       360
45.880       436
45.900       420
45.920       393
45.940       413
45.960       337
45.980       456
46.000       413
46.020       370
46.040       387
46.060       370
46.080       397
46.100       303
46.120       410
46.140       370
46.160       420
46.180       397
46.200       393
46.220       423
46.240       377
46.260       380
46.280       443
46.300       340
46.320       377
46.340       397
46.360       433
46.380       426
46.400       490
46.420       407
46.440       417
46.460       367
46.480       460
46.500       403
46.520       390
46.540       350
46.560       400
46.580       453
46.600       420
46.620       353
46.640       423
46.660       407
46.680       430
46.700       500
46.720       460
46.740       440
46.760       423
46.780       496
46.800       407
46.820       463
46.840       500
46.860       523
46.880       520
46.900       443
46.920       486
46.940       593
46.960       510
46.980       560
47.000       550
47.020       573
47.040       500
47.060       543
47.080       606
47.100       573
47.120       620
47.140       653
47.160       633
47.180       660
47.200       706
47.220       766
47.240       753
47.260       793
47.280       746
47.300       763
47.320       733
47.340       643
47.360       693
47.380       666
47.400       566
47.420       510
47.440       516
47.460       480
47.480       533
47.500       443
47.520       500
47.540       436
47.560       420
47.580       363
47.600       367
47.620       403
47.640       377
47.660       330
47.680       390
47.700       403
47.720       413
47.740       433
47.760       360
47.780       417
47.800       367
47.820       420
47.840       400
47.860       367
47.880       357
47.900       363
47.920       446
47.940       357
47.960       440
47.980       380
48.000       430
48.020       413
48.040       486
48.060       480
48.080       456
48.100       590
48.120       560
48.140       653
48.160       586
48.180       653
48.200       776
48.220       746
48.240       736
48.260       740
48.280       660
48.300       626
48.320       706
48.340       696
48.360       550
48.380       636
48.400       676
48.420       533
48.440       496
48.460       483
48.480       516
48.500       430
48.520       353
48.540       380
48.560       310
48.580       463
48.600       420
48.620       420
48.640       393
48.660       380
48.680       347
48.700       323
48.720       323
48.740       337
48.760       380
48.780       383
48.800       353
48.820       380
48.840       353
48.860       310
48.880       380
48.900       300
48.920       350
48.940       400
48.960       340
48.980       393
49.000       370
49.020       363
49.040       380
49.060       340
49.080       373
49.100       357
49.120       333
49.140       353
49.160       340
49.180       417
49.200       353
49.220       340
49.240       350
49.260       397
49.280       383
49.300       367
49.320       373
49.340       397
49.360       350
49.380       367
49.400       337
49.420       377
49.440       337
49.460       317
49.480       353
49.500       317
49.520       370
49.540       313
49.560       330
49.580       330
49.600       313
49.620       373
49.640       283
49.660       357
49.680       377
49.700       327
49.720       363
49.740       340
49.760       387
49.780       367
49.800       343
49.820       410
49.840       403
49.860       363
49.880       377
49.900       370
49.920       360
49.940       313
49.960       363
49.980       320
50.000       360
50.020       303
50.040       410
50.060       426
50.080       360
50.100       330
50.120       400
50.140       403
50.160       350
50.180       327
50.200       300
50.220       357
50.240       303
50.260       350
50.280       393
50.300       327
50.320       317
50.340       383
50.360       273
50.380       393
50.400       360
50.420       273
50.440       290
50.460       337
50.480       360
50.500       400
50.520       357
50.540       317
50.560       393
50.580       373
50.600       387
50.620       290
50.640       380
50.660       310
50.680       313
50.700       313
50.720       380
50.740       383
50.760       370
50.780       390
50.800       423
50.820       433
50.840       413
50.860       373
50.880       387
50.900       360
50.920       377
50.940       360
50.960       323
50.980       393
51.000       373
51.020       310
51.040       403
51.060       377
51.080       393
51.100       340
51.120       383
51.140       377
51.160       350
51.180       363
51.200       357
51.220       357
51.240       333
51.260       353
51.280       247
51.300       317
51.320       323
51.340       357
51.360       327
51.380       343
51.400       320
51.420       393
51.440       393
51.460       360
51.480       357
51.500       317
51.520       327
51.540       343
51.560       357
51.580       417
51.600       370
51.620       393
51.640       327
51.660       383
51.680       403
51.700       383
51.720       347
51.740       310
51.760       340
51.780       267
51.800       387
51.820       383
51.840       397
51.860       323
51.880       333
51.900       373
51.920       403
51.940       333
51.960       280
51.980       436
52.000       370
52.020       436
52.040       380
52.060       413
52.080       407
52.100       373
52.120       400
52.140       373
52.160       387
52.180       383
52.200       337
52.220       383
52.240       393
52.260       433
52.280       340
52.300       397
52.320       387
52.340       453
52.360       426
52.380       410
52.400       423
52.420       466
52.440       423
52.460       533
52.480       506
52.500       530
52.520       553
52.540       493
52.560       470
52.580       496
52.600       580
52.620       573
52.640       473
52.660       407
52.680       453
52.700       503
52.720       480
52.740       476
52.760       407
52.780       500
52.800       446
52.820       407
52.840       407
52.860       390
52.880       420
52.900       436
52.920       407
52.940       423
52.960       410
52.980       466
53.000       317
53.020       410
53.040       350
53.060       383
53.080       347
53.100       320
53.120       373
53.140       337
53.160       373
53.180       383
53.200       387
53.220       377
53.240       343
53.260       390
53.280       360
53.300       400
53.320       343
53.340       350
53.360       337
53.380       327
53.400       337
53.420       380
53.440       373
53.460       347
53.480       370
53.500       430
53.520       350
53.540       373
53.560       363
53.580       387
53.600       343
53.620       337
53.640       397
53.660       357
53.680       293
53.700       343
53.720       310
53.740       387
53.760       436
53.780       370
53.800       423
53.820       360
53.840       377
53.860       436
53.880       333
53.900       403
53.920       397
53.940       350
53.960       387
53.980       360
54.000       413
54.020       383
54.040       410
54.060       436
54.080       403
54.100       423
54.120       483
54.140       483
54.160       483
54.180       403
54.200       476
54.220       466
54.240       393
54.260       417
54.280       493
54.300       433
54.320       423
54.340       413
54.360       500
54.380       476
54.400       513
54.420       450
54.440       553
54.460       533
54.480       540
54.500       460
54.520       530
54.540       536
54.560       496
54.580       530
54.600       480
54.620       516
54.640       430
54.660       556
54.680       506
54.700       560
54.720       490
54.740       463
54.760       490
54.780       456
54.800       463
54.820       476
54.840       410
54.860       483
54.880       473
54.900       417
54.920       450
54.940       516
54.960       430
54.980       516
55.000       440
55.020       466
55.040       450
55.060       436
55.080       476
55.100       446
55.120       433
55.140       370
55.160       353
55.180       417
55.200       350
55.220       463
55.240       370
55.260       423
55.280       407
55.300       380
55.320       333
55.340       330
55.360       323
55.380       343
55.400       350
55.420       353
55.440       347
55.460       357
55.480       320
55.500       360
55.520       410
55.540       390
55.560       343
55.580       387
55.600       373
55.620       343
55.640       367
55.660       353
55.680       330
55.700       320
55.720       303
55.740       350
55.760       283
55.780       333
55.800       373
55.820       327
55.840       426
55.860       350
55.880       330
55.900       333
55.920       343
55.940       317
55.960       390
55.980       323
56.000       310
56.020       373
56.040       340
56.060       397
56.080       337
56.100       327
56.120       393
56.140       403
56.160       397
56.180       347
56.200       343
56.220       370
56.240       407
56.260       350
56.280       426
56.300       433
56.320       516
56.340       443
56.360       353
56.380       446
56.400       373
56.420       393
56.440       443
56.460       400
56.480       393
56.500       423
56.520       383
56.540       423
56.560       383
56.580       410
56.600       337
56.620       383
56.640       350
56.660       367
56.680       383
56.700       430
56.720       310
56.740       383
56.760       383
56.780       357
56.800       333
56.820       343
56.840       330
56.860       403
56.880       293
56.900       377
56.920       330
56.940       360
56.960       353
56.980       430
57.000       443
57.020       417
57.040       340
57.060       450
57.080       440
57.100       446
57.120       490
57.140       496
57.160       503
57.180       486
57.200       506
57.220       397
57.240       456
57.260       440
57.280       530
57.300       393
57.320       430
57.340       367
57.360       463
57.380       347
57.400       353
57.420       377
57.440       323
57.460       330
57.480       270
57.500       307
57.520       340
57.540       310
57.560       363
57.580       293
57.600       327
57.620       340
57.640       303
57.660       287
57.680       337
57.700       327
57.720       303
57.740       290
57.760       343
57.780       347
57.800       300
57.820       373
57.840       340
57.860       317
57.880       363
57.900       360
57.920       290
57.940       393
57.960       293
57.980       310
58.000       350
58.020       340
58.040       333
58.060       293
58.080       310
58.100       380
58.120       373
58.140       363
58.160       253
58.180       300
58.200       343
58.220       283
58.240       323
58.260       337
58.280       333
58.300       313
58.320       283
58.340       297
58.360       323
58.380       337
58.400       323
58.420       287
58.440       287
58.460       317
58.480       300
58.500       270
58.520       300
58.540       260
58.560       283
58.580       280
58.600       357
58.620       273
58.640       287
58.660       280
58.680       313
58.700       303
58.720       310
58.740       290
58.760       297
58.780       233
58.800       313
58.820       257
58.840       260
58.860       333
58.880       297
58.900       303
58.920       283
58.940       337
58.960       253
58.980       280
59.000       313
59.020       320
59.040       307
59.060       290
59.080       307
59.100       317
59.120       290
59.140       310
59.160       290
59.180       323
59.200       310
59.220       323
59.240       250
59.260       333
59.280       287
59.300       350
59.320       300
59.340       303
59.360       350
59.380       237
59.400       380
59.420       303
59.440       367
59.460       317
59.480       353
59.500       367
59.520       347
59.540       333
59.560       410
59.580       287
59.600       293
59.620       313
59.640       317
59.660       340
59.680       297
59.700       313
59.720       330
59.740       387
59.760       330
59.780       323
59.800       323
59.820       310
59.840       310
59.860       377
59.880       310
59.900       380
59.920       353
59.940       350
59.960       293
59.980       313
60.000       373
