20.000       840
20.020       670
20.040       650
20.060       606
20.080       753
20.100       740
20.120       800
20.140       763
20.160       806
20.180       640
20.200       730
20.220       686
20.240       673
20.260       720
20.280       726
20.300       786
20.320       763
20.340       780
20.360       806
20.380       770
20.400       766
20.420       693
20.440       743
20.460       646
20.480       763
20.500       780
20.520       733
20.540       753
20.560       783
20.580       753
20.600       686
20.620       736
20.640       763
20.660       720
20.680       773
20.700       640
20.720       700
20.740       723
20.760       746
20.780       770
20.800       766
20.820       770
20.840       793
20.860       673
20.880       720
20.900       723
20.920       776
20.940       763
20.960       660
20.980       720
21.000       836
21.020       743
21.040       753
21.060       736
21.080       763
21.100       746
21.120       750
21.140       763
21.160       780
21.180       686
21.200       800
21.220       763
21.240       813
21.260       756
21.280       783
21.300       723
21.320       733
21.340       676
21.360       736
21.380       736
21.400       680
21.420       766
21.440       793
21.460       800
21.480       740
21.500       710
21.520       876
21.540       683
21.560       683
21.580       723
21.600       860
21.620       716
21.640       746
21.660       766
21.680       783
21.700       790
21.720       766
21.740       793
21.760       723
21.780       750
21.800       776
21.820       716
21.840       690
21.860       813
21.880       713
21.900       753
21.920       730
21.940       753
21.960       743
21.980       776
22.000       710
22.020       756
22.040       726
22.060       713
22.080       673
22.100       723
22.120       810
22.140       650
22.160       750
22.180       746
22.200       730
22.220       683
22.240       753
22.260       703
22.280       770
22.300       726
22.320       706
22.340       826
22.360       790
22.380       830
22.400       643
22.420       686
22.440       633
22.460       706
22.480       670
22.500       706
22.520       756
22.540       846
22.560       683
22.580       820
22.600       730
22.620       713
22.640       806
22.660       690
22.680       726
22.700       790
22.720       726
22.740       746
22.760       793
22.780       770
22.800       776
22.820       750
22.840       796
22.860       826
22.880       686
22.900       786
22.920       846
22.940       820
22.960       786
22.980       763
23.000       766
23.020       686
23.040       733
23.060       796
23.080       800
23.100       776
23.120       753
23.140       790
23.160       763
23.180       800
23.200       823
23.220       766
23.240       816
23.260       833
23.280       743
23.300       813
23.320       736
23.340       790
23.360       743
23.380       733
23.400       683
23.420       733
23.440       740
23.460       813
23.480       830
23.500       740
23.520       816
23.540       823
23.560       726
23.580       826
23.600       670
23.620       763
23.640       753
23.660       763
23.680       680
23.700       726
23.720       696
23.740       720
23.760       633
23.780       740
23.800       803
23.820       630
23.840       823
23.860       713
23.880       740
23.900       793
23.920       753
23.940       693
23.960       676
23.980       730
24.000       876
24.020       826
24.040       736
24.060       743
24.080       766
24.100       710
24.120       730
24.140       740
24.160       756
24.180       626
24.200       683
24.220       830
24.240       810
24.260       733
24.280       646
24.300       866
24.320       733
24.340       770
24.360       793
24.380       673
24.400       816
24.420       840
24.440       763
24.460       790
24.480       793
24.500       896
24.520       923
24.540       840
24.560      1100
24.580      1013
24.600      1023
24.620       983
24.640       943
24.660      1053
24.680       886
24.700       853
24.720       803
24.740       843
24.760       633
24.780       680
24.800       646
24.820       700
24.840       623
24.860       576
24.880       553
24.900       546
24.920       543
24.940       550
24.960       596
24.980       646
25.000       553
25.020       453
25.040       570
25.060       523
25.080       533
25.100       546
25.120       563
25.140       486
25.160       526
25.180       610
25.200       493
25.220       563
25.240       486
25.260       526
25.280       533
25.300       540
25.320       446
25.340       463
25.360       530
25.380       500
25.400       593
25.420       476
25.440       630
25.460       433
25.480       526
25.500       486
25.520       550
25.540       533
25.560       496
25.580       500
25.600       566
25.620       520
25.640       483
25.660       486
25.680       566
25.700       540
25.720       530
25.740       540
25.760       513
25.780       466
25.800       433
25.820       476
25.840       510
25.860       506
25.880       436
25.900       460
25.920       503
25.940       560
25.960       526
25.980       576
26.000       480
26.020       490
26.040       546
26.060       520
26.080       570
26.100       556
26.120       486
26.140       533
26.160       473
26.180       490
26.200       513
26.220       463
26.240       506
26.260       486
26.280       633
26.300       540
26.320       586
26.340       623
26.360       613
26.380       600
26.400       626
26.420       553
26.440       553
26.460       563
26.480       583
26.500       563
26.520       493
26.540       450
26.560       470
26.580       433
26.600       500
26.620       496
26.640       500
26.660       476
26.680       476
26.700       550
26.720       453
26.740       426
26.760       453
26.780       480
26.800       347
26.820       476
26.840       387
26.860       473
26.880       473
26.900       450
26.920       456
26.940       490
26.960       440
26.980       493
27.000       403
27.020       397
27.040       473
27.060       516
27.080       417
27.100       460
27.120       480
27.140       433
27.160       433
27.180       460
27.200       450
27.220       450
27.240       423
27.260       413
27.280       506
27.300       453
27.320       407
27.340       456
27.360       476
27.380       420
27.400       483
27.420       397
27.440       446
27.460       443
27.480       430
27.500       400
27.520       560
27.540       440
27.560       367
27.580       466
27.600       450
27.620       526
27.640       460
27.660       480
27.680       440
27.700       426
27.720       400
27.740       473
27.760       446
27.780       500
27.800       460
27.820       410
27.840       470
27.860       476
27.880       480
27.900       460
27.920       450
27.940       506
27.960       436
27.980       463
28.000       333
28.020       423
28.040       516
28.060       456
28.080       383
28.100       483
28.120       503
28.140       486
28.160       460
28.180       476
28.200       510
28.220       503
28.240       466
28.260       426
28.280       466
28.300       373
28.320       446
28.340       430
28.360       440
28.380       473
28.400       363
28.420       373
28.440       450
28.460       506
28.480       433
28.500       460
28.520       493
28.540       506
28.560       483
28.580       440
28.600       456
28.620       450
28.640       453
28.660       563
28.680       536
28.700       453
28.720       580
28.740       606
28.760       613
28.780       586
28.800       693
28.820       666
28.840       736
28.860       756
28.880       743
28.900       916
28.920       913
28.940       943
28.960      1170
28.980      1060
29.000      1416
29.020      1369
29.040      1739
29.060      1813
29.080      1893
29.100      1949
29.120      2066
29.140      1893
29.160      2076
29.180      1793
29.200      1583
29.220      1446
29.240      1226
29.260      1183
29.280      1036
29.300       880
29.320       863
29.340       583
29.360       680
29.380       550
29.400       510
29.420       486
29.440       456
29.460       483
29.480       463
29.500       526
29.520       433
29.540       480
29.560       350
29.580       473
29.600       480
29.620       436
29.640       413
29.660       456
29.680       510
29.700       400
29.720       383
29.740       387
29.760       523
29.780       450
29.800       426
29.820       423
29.840       387
29.860       340
29.880       373
29.900       473
29.920       470
29.940       450
29.960       380
29.980       463
30.000       330
30.020       413
30.040       383
30.060       426
30.080       450
30.100       430
30.120       360
30.140       397
30.160       400
30.180       423
30.200       453
30.220       466
30.240       440
30.260       480
30.280       466
30.300       483
30.320       466
30.340       440
30.360       466
30.380       496
30.400       483
30.420       466
30.440       440
30.460       570
30.480       536
30.500       513
30.520       443
30.540       543
30.560       613
30.580       526
30.600       530
30.620       636
30.640       530
30.660       543
30.680       530
30.700       540
30.720       500
30.740       510
30.760       473
30.780       503
30.800       423
30.820       463
30.840       463
30.860       503
30.880       520
30.900       486
30.920       403
30.940       463
30.960       483
30.980       426
31.000       486
31.020       436
31.040       456
31.060       483
31.080       510
31.100       490
31.120       516
31.140       493
31.160       436
31.180       466
31.200       526
31.220       473
31.240       430
31.260       463
31.280       463
31.300       367
31.320       436
31.340       410
31.360       413
31.380       420
31.400       367
31.420       470
31.440       436
31.460       430
31.480       496
31.500       403
31.520       373
31.540       373
31.560       433
31.580       473
31.600       440
31.620       446
31.640       430
31.660       420
31.680       407
31.700       436
31.720       407
31.740       397
31.760       436
31.780       433
31.800       420
31.820       393
31.840       357
31.860       430
31.880       446
31.900       463
31.920       373
31.940       413
31.960       446
31.980       400
32.000       486
32.020       410
32.040       456
32.060       426
32.080       407
32.100       397
32.120       486
32.140       426
32.160       390
32.180       400
32.200       476
32.220       407
32.240       373
32.260       407
32.280       380
32.300       360
32.320       470
32.340       383
32.360       456
32.380       400
32.400       360
32.420       383
32.440       400
32.460       473
32.480       426
32.500       423
32.520       357
32.540       413
32.560       453
32.580       440
32.600       387
32.620       377
32.640       417
32.660       353
32.680       440
32.700       363
32.720       383
32.740       320
32.760       317
32.780       367
32.800       357
32.820       390
32.840       420
32.860       367
32.880       330
32.900       387
32.920       357
32.940       373
32.960       423
32.980       377
33.000       403
33.020       340
33.040       350
33.060       360
33.080       320
33.100       383
33.120       370
33.140       443
33.160       470
33.180       373
33.200       410
33.220       360
33.240       443
33.260       450
33.280       460
33.300       423
33.320       393
33.340       317
33.360       390
33.380       357
33.400       380
33.420       417
33.440       390
33.460       357
33.480       450
33.500       370
33.520       383
33.540       387
33.560       377
33.580       383
33.600       520
33.620       327
33.640       426
33.660       393
33.680       353
33.700       373
33.720       446
33.740       340
33.760       403
33.780       370
33.800       337
33.820       387
33.840       410
33.860       317
33.880       450
33.900       357
33.920       337
33.940       367
33.960       410
33.980       446
34.000       393
34.020       360
34.040       423
34.060       380
34.080       423
34.100       377
34.120       440
34.140       380
34.160       426
34.180       426
34.200       423
34.220       357
34.240       453
34.260       327
34.280       383
34.300       433
34.320       393
34.340       403
34.360       436
34.380       413
34.400       387
34.420       443
34.440       463
34.460       496
34.480       473
34.500       430
34.520       380
34.540       410
34.560       463
34.580       430
34.600       456
34.620       397
34.640       490
34.660       510
34.680       433
34.700       436
34.720       463
34.740       426
34.760       426
34.780       410
34.800       423
34.820       440
34.840       520
34.860       476
34.880       456
34.900       456
34.920       510
34.940       417
34.960       440
34.980       417
35.000       403
35.020       483
35.040       387
35.060       410
35.080       470
35.100       456
35.120       490
35.140       476
35.160       473
35.180       440
35.200       486
35.220       377
35.240       440
35.260       493
35.280       420
35.300       470
35.320       440
35.340       576
35.360       403
35.380       420
35.400       516
35.420       546
35.440       546
35.460       446
35.480       516
35.500       500
35.520       620
35.540       583
35.560       556
35.580       606
35.600       643
35.620       666
35.640       603
35.660       663
35.680       693
35.700       763
35.720       823
35.740       703
35.760       620
35.780       576
35.800       740
35.820       640
35.840       630
35.860       563
35.880       510
35.900       556
35.920       436
35.940       490
35.960       476
35.980       423
36.000       417
36.020       483
36.040       436
36.060       333
36.080       417
36.100       413
36.120       423
36.140       426
36.160       417
36.180       413
36.200       413
36.220       476
36.240       393
36.260       380
36.280       496
36.300       400
36.320       410
36.340       340
36.360       466
36.380       433
36.400       486
36.420       413
36.440       323
36.460       417
36.480       383
36.500       440
36.520       417
36.540       357
36.560       357
36.580       403
36.600       417
36.620       473
36.640       420
36.660       380
36.680       400
36.700       383
36.720       390
36.740       426
36.760       400
36.780       390
36.800       423
36.820       353
36.840       353
36.860       377
36.880       367
36.900       430
36.920       473
36.940       436
36.960       370
36.980       360
37.000       393
37.020       353
37.040       426
37.060       413
37.080       390
37.100       357
37.120       433
37.140       377
37.160       407
37.180       423
37.200       423
37.220       403
37.240       373
37.260       450
37.280       473
37.300       433
37.320       523
37.340       510
37.360       473
37.380       496
37.400       486
37.420       526
37.440       446
37.460       496
37.480       470
37.500       456
37.520       473
37.540       420
37.560       496
37.580       400
37.600       476
37.620       470
37.640       476
37.660       476
37.680       473
37.700       500
37.720       400
37.740       560
37.760       503
37.780       486
37.800       573
37.820       583
37.840       573
37.860       536
37.880       570
37.900       456
37.920       560
37.940       583
37.960       536
37.980       533
38.000       516
38.020       540
38.040       540
38.060       550
38.080       540
38.100       556
38.120       583
38.140       590
38.160       603
38.180       616
38.200       616
38.220       583
38.240       506
38.260       556
38.280       483
38.300       473
38.320       513
38.340       490
38.360       433
38.380       500
38.400       493
38.420       513
38.440       463
38.460       480
38.480       440
38.500       430
38.520       433
38.540       403
38.560       473
38.580       470
38.600       453
38.620       483
38.640       476
38.660       516
38.680       523
38.700       410
38.720       523
38.740       550
38.760       526
38.780       546
38.800       433
38.820       506
38.840       523
38.860       640
38.880       560
38.900       630
38.920       573
38.940       723
38.960       733
38.980       656
39.000       670
39.020       710
39.040       693
39.060       773
39.080       830
39.100       950
39.120       916
39.140       936
39.160       853
39.180       800
39.200       736
39.220       810
39.240       743
39.260       710
39.280       553
39.300       596
39.320       620
39.340       606
39.360       523
39.380       543
39.400       540
39.420       486
39.440       397
39.460       470
39.480       383
39.500       463
39.520       426
39.540       436
39.560       480
39.580       490
39.600       463
39.620       397
39.640       417
39.660       430
39.680       407
39.700       397
39.720       407
39.740       400
39.760       390
39.780       476
39.800       423
39.820       453
39.840       476
39.860       430
39.880       383
39.900       436
39.920       470
39.940       446
39.960       433
39.980       430
40.000       363
40.020       420
40.040       470
40.060       377
40.080       420
40.100       446
40.120       373
40.140       460
40.160       460
40.180       476
40.200       380
40.220       367
40.240       450
40.260       403
40.280       476
40.300       440
40.320       393
40.340       436
40.360       397
40.380       463
40.400       400
40.420       353
40.440       436
40.460       430
40.480       403
40.500       486
40.520       446
40.540       490
40.560       403
40.580       440
40.600       410
40.620       456
40.640       403
40.660       470
40.680       390
40.700       476
40.720       443
40.740       407
40.760       453
40.780       413
40.800       413
40.820       403
40.840       440
40.860       426
40.880       433
40.900       456
40.920       417
40.940       433
40.960       426
40.980       337
41.000       390
41.020       443
41.040       340
41.060       433
41.080       443
41.100       426
41.120       383
41.140       417
41.160       443
41.180       367
41.200       393
41.220       453
41.240       357
41.260       453
41.280       430
41.300       400
41.320       417
41.340       410
41.360       480
41.380       440
41.400       446
41.420       390
41.440       500
41.460       426
41.480       433
41.500       417
41.520       456
41.540       463
41.560       417
41.580       440
41.600       436
41.620       420
41.640       353
41.660       420
41.680       463
41.700       417
41.720       373
41.740       476
41.760       456
41.780       436
41.800       430
41.820       407
41.840       390
41.860       463
41.880       430
41.900       420
41.920       470
41.940       433
41.960       400
41.980       393
42.000       347
42.020       423
42.040       453
42.060       510
42.080       380
42.100       463
42.120       440
42.140       443
42.160       453
42.180       460
42.200       456
42.220       423
42.240       456
42.260       423
42.280       483
42.300       483
42.320       390
42.340       436
42.360       393
42.380       443
42.400       397
42.420       443
42.440       383
42.460       436
42.480       463
42.500       480
42.520       516
42.540       446
42.560       523
42.580       463
42.600       513
42.620       440
42.640       460
42.660       523
42.680       560
42.700       596
42.720       533
42.740       503
42.760       590
42.780       656
42.800       676
42.820       786
42.840       780
42.860       813
42.880       780
42.900       836
42.920       856
42.940       776
42.960       843
42.980       780
43.000       690
43.020       643
43.040       640
43.060       633
43.080       510
43.100       603
43.120       566
43.140       540
43.160       486
43.180       560
43.200       536
43.220       473
43.240       486
43.260       476
43.280       530
43.300       496
43.320       480
43.340       553
43.360       503
43.380       583
43.400       563
43.420       493
43.440       496
43.460       556
43.480       576
43.500       510
43.520       476
43.540       473
43.560       543
43.580       560
43.600       546
43.620       496
43.640       473
43.660       546
43.680       536
43.700       566
43.720       456
43.740       506
43.760       520
43.780       513
43.800       456
43.820       560
43.840       573
43.860       500
43.880       426
43.900       486
43.920       520
43.940       553
43.960       470
43.980       353
44.000       503
44.020       466
44.040       506
44.060       506
44.080       476
44.100       536
44.120       486
44.140       426
44.160       433
44.180       483
44.200       443
44.220       476
44.240       420
44.260       436
44.280       397
44.300       390
44.320       390
44.340       413
44.360       380
44.380       446
44.400       530
44.420       393
44.440       423
44.460       420
44.480       423
44.500       460
44.520       403
44.540       420
44.560       367
44.580       407
44.600       466
44.620       360
44.640       456
44.660       343
44.680       450
44.700       430
44.720       377
44.740       436
44.760       436
44.780       440
44.800       420
44.820       460
44.840       486
44.860       426
44.880       390
44.900       476
44.920       430
44.940       506
44.960       476
44.980       407
45.000       496
45.020       417
45.040       480
45.060       370
45.080       463
45.100       393
45.120       506
45.140       483
45.160       473
45.180       493
45.200       410
45.220       473
45.240       520
45.260       446
45.280       446
45.300       490
45.320       453
45.340       493
45.360       480
45.380       453
45.400       493
45.420       463
45.440       433
45.460       470
45.480       383
45.500       466
45.520       473
45.540       450
45.560       463
45.580       403
45.600       470
45.620       456
45.640       417
45.660       420
45.680       393
45.700       446
45.720       407
45.740       420
45.760       407
45.780       400
45.800       440
45.820       470
45.840       423
45.860       420
45.880       377
45.900       417
45.920       357
45.940       430
45.960       397
45.980       413
46.000       340
46.020       413
46.040       343
46.060       347
46.080       367
46.100       423
46.120       367
46.140       426
46.160       397
46.180       373
46.200       400
46.220       433
46.240       436
46.260       397
46.280       403
46.300       433
46.320       377
46.340       403
46.360       370
46.380       480
46.400       383
46.420       400
46.440       423
46.460       407
46.480       423
46.500       453
46.520       390
46.540       443
46.560       443
46.580       403
46.600       473
46.620       423
46.640       473
46.660       523
46.680       543
46.700       496
46.720       583
46.740       520
46.760       576
46.780       616
46.800       490
46.820       590
46.840       553
46.860       616
46.880       526
46.900       636
46.920       556
46.940       573
46.960       640
46.980       523
47.000       616
47.020       620
47.040       586
47.060       700
47.080       623
47.100       716
47.120       663
47.140       853
47.160       843
47.180       930
47.200      1013
47.220       963
47.240      1036
47.260       960
47.280       906
47.300       830
47.320       956
47.340       860
47.360       776
47.380       700
47.400       776
47.420       706
47.440       650
47.460       560
47.480       550
47.500       550
47.520       620
47.540       456
47.560       450
47.580       333
47.600       493
47.620       503
47.640       446
47.660       443
47.680       433
47.700       343
47.720       430
47.740       436
47.760       446
47.780       476
47.800       446
47.820       407
47.840       373
47.860       483
47.880       463
47.900       450
47.920       440
47.940       407
47.960       380
47.980       570
48.000       453
48.020       480
48.040       563
48.060       536
48.080       556
48.100       616
48.120       686
48.140       743
48.160       743
48.180       733
48.200       813
48.220       920
48.240       926
48.260       853
48.280       793
48.300       793
48.320       840
48.340       800
48.360       636
48.380       790
48.400       620
48.420       583
48.440       500
48.460       520
48.480       450
48.500       506
48.520       433
48.540       500
48.560       500
48.580       420
48.600       453
48.620       333
48.640       330
48.660       430
48.680       393
48.700       390
48.720       410
48.740       426
48.760       337
48.780       340
48.800       400
48.820       393
48.840       370
48.860       387
48.880       420
48.900       363
48.920       490
48.940       407
48.960       320
48.980       343
49.000       393
49.020       397
49.040       380
49.060       363
49.080       377
49.100       357
49.120       463
49.140       380
49.160       367
49.180       423
49.200       367
49.220       367
49.240       400
49.260       417
49.280       380
49.300       387
49.320       307
49.340       350
49.360       393
49.380       436
49.400       420
49.420       436
49.440       373
49.460       453
49.480       367
49.500       330
49.520       430
49.540       383
49.560       347
49.580       390
49.600       367
49.620       343
49.640       340
49.660       373
49.680       403
49.700       397
49.720       340
49.740       410
49.760       380
49.780       300
49.800       300
49.820       330
49.840       293
49.860       390
49.880       290
49.900       340
49.920       486
49.940       363
49.960       377
49.980       330
50.000       377
50.020       370
50.040       380
50.060       390
50.080       400
50.100       337
50.120       397
50.140       397
50.160       320
50.180       347
50.200       377
50.220       363
50.240       317
50.260       353
50.280       350
50.300       370
50.320       426
50.340       360
50.360       407
50.380       353
50.400       360
50.420       357
50.440       363
50.460       426
50.480       337
50.500       390
50.520       383
50.540       390
50.560       373
50.580       370
50.600       407
50.620       456
50.640       373
50.660       503
50.680       367
50.700       410
50.720       410
50.740       380
50.760       456
50.780       407
50.800       383
50.820       436
50.840       420
50.860       436
50.880       357
50.900       403
50.920       400
50.940       397
50.960       403
50.980       380
51.000       353
51.020       283
51.040       397
51.060       357
51.080       357
51.100       333
51.120       307
51.140       347
51.160       370
51.180       377
51.200       363
51.220       307
51.240       337
51.260       330
51.280       310
51.300       373
51.320       400
51.340       317
51.360       293
51.380       337
51.400       330
51.420       347
51.440       350
51.460       350
51.480       350
51.500       357
51.520       313
51.540       350
51.560       367
51.580       307
51.600       387
51.620       313
51.640       333
51.660       320
51.680       347
51.700       270
51.720       363
51.740       317
51.760       367
51.780       363
51.800       323
51.820       450
51.840       320
51.860       350
51.880       317
51.900       363
51.920       290
51.940       377
51.960       333
51.980       360
52.000       313
52.020       327
52.040       367
52.060       377
52.080       393
52.100       413
52.120       307
52.140       287
52.160       367
52.180       410
52.200       393
52.220       380
52.240       393
52.260       393
52.280       370
52.300       373
52.320       423
52.340       347
52.360       307
52.380       327
52.400       330
52.420       387
52.440       357
52.460       353
52.480       370
52.500       317
52.520       347
52.540       310
52.560       353
52.580       323
52.600       397
52.620       436
52.640       323
52.660       307
52.680       397
52.700       390
52.720       337
52.740       450
52.760       370
52.780       310
52.800       353
52.820       380
52.840       323
52.860       330
52.880       320
52.900       426
52.920       347
52.940       390
52.960       380
52.980       367
53.000       343
53.020       307
53.040       353
53.060       317
53.080       390
53.100       403
53.120       327
53.140       353
53.160       313
53.180       343
53.200       270
53.220       313
53.240       273
53.260       373
53.280       353
53.300       363
53.320       313
53.340       357
53.360       347
53.380       383
53.400       333
53.420       390
53.440       333
53.460       320
53.480       360
53.500       370
53.520       383
53.540       333
53.560       393
53.580       350
53.600       377
53.620       443
53.640       307
53.660       330
53.680       413
53.700       357
53.720       410
53.740       370
53.760       370
53.780       320
53.800       407
53.820       347
53.840       357
53.860       390
53.880       350
53.900       363
53.920       340
53.940       367
53.960       347
53.980       360
54.000       430
54.020       383
54.040       370
54.060       426
54.080       357
54.100       417
54.120       473
54.140       383
54.160       363
54.180       426
54.200       440
54.220       407
54.240       410
54.260       463
54.280       496
54.300       367
54.320       440
54.340       476
54.360       403
54.380       453
54.400       443
54.420       506
54.440       403
54.460       536
54.480       403
54.500       470
54.520       423
54.540       480
54.560       436
54.580       546
54.600       553
54.620       413
54.640       513
54.660       536
54.680       520
54.700       413
54.720       523
54.740       470
54.760       546
54.780       456
54.800       500
54.820       526
54.840       473
54.860       496
54.880       433
54.900       513
54.920       480
54.940       563
54.960       456
54.980       413
55.000       403
55.020       407
55.040       417
55.060       500
55.080       460
55.100       430
55.120       397
55.140       456
55.160       436
55.180       380
55.200       443
55.220       360
55.240       340
55.260       410
55.280       470
55.300       387
55.320       443
55.340       400
55.360       367
55.380       363
55.400       377
55.420       446
55.440       367
55.460       436
55.480       363
55.500       380
55.520       370
55.540       397
55.560       343
55.580       373
55.600       290
55.620       300
55.640       370
55.660       353
55.680       303
55.700       330
55.720       343
55.740       370
55.760       377
55.780       340
55.800       297
55.820       323
55.840       337
55.860       363
55.880       363
55.900       380
55.920       333
55.940       353
55.960       313
55.980       330
56.000       340
56.020       323
56.040       337
56.060       350
56.080       353
56.100       433
56.120       410
56.140       397
56.160       393
56.180       426
56.200       453
56.220       463
56.240       420
56.260       486
56.280       436
56.300       426
56.320       433
56.340       460
56.360       456
56.380       440
56.400       490
56.420       493
56.440       486
56.460       436
56.480       397
56.500       473
56.520       393
56.540       383
56.560       430
56.580       420
56.600       486
56.620       373
56.640       367
56.660       420
56.680       460
56.700       380
56.720       330
56.740       360
56.760       367
56.780       340
56.800       440
56.820       377
56.840       353
56.860       407
56.880       383
56.900       410
56.920       400
56.940       436
56.960       460
56.980       500
57.000       353
57.020       526
57.040       496
57.060       566
57.080       556
57.100       463
57.120       603
57.140       536
57.160       550
57.180       590
57.200       550
57.220       590
57.240       446
57.260       490
57.280       516
57.300       397
57.320       390
57.340       410
57.360       407
57.380       360
57.400       317
57.420       397
57.440       320
57.460       383
57.480       377
57.500       297
57.520       283
57.540       353
57.560       330
57.580       357
57.600       317
57.620       357
57.640       340
57.660       367
57.680       337
57.700       327
57.720       357
57.740       353
57.760       350
57.780       380
57.800       353
57.820       407
57.840       390
57.860       343
57.880       340
57.900       307
57.920       327
57.940       343
57.960       323
57.980       390
58.000       430
58.020       310
58.040       370
58.060       363
58.080       313
58.100       357
58.120       277
58.140       277
58.160       250
58.180       330
58.200       377
58.220       317
58.240       350
58.260       283
58.280       293
58.300       273
58.320       260
58.340       313
58.360       287
58.380       210
58.400       263
58.420       290
58.440       330
58.460       317
58.480       300
58.500       270
58.520       313
58.540       340
58.560       290
58.580       297
58.600       370
58.620       287
58.640       307
58.660       277
58.680       380
58.700       210
58.720       320
58.740       353
58.760       283
58.780       343
58.800       317
58.820       327
58.840       270
58.860       333
58.880       313
58.900       320
58.920       353
58.940       293
58.960       390
58.980       267
59.000       323
59.020       273
59.040       310
59.060       313
59.080       293
59.100       343
59.120       280
59.140       337
59.160       363
59.180       280
59.200       323
59.220       303
59.240       293
59.260       273
59.280       313
59.300       367
59.320       340
59.340       383
59.360       290
59.380       350
59.400       277
59.420       426
59.440       327
59.460       327
59.480       337
59.500       403
59.520       317
59.540       313
59.560       330
59.580       383
59.600       360
59.620       300
59.640       387
59.660       330
59.680       320
59.700       367
59.720       380
59.740       407
59.760       373
59.780       370
59.800       357
59.820       357
59.840       380
59.860       310
59.880       373
59.900         0
59.920         0
59.940         0
59.960         0
59.980         0
60.000         0
