20.000       643
20.020       630
20.040       686
20.060       736
20.080       750
20.100       633
20.120       653
20.140       676
20.160       670
20.180       653
20.200       600
20.220       683
20.240       630
20.260       653
20.280       656
20.300       636
20.320       676
20.340       623
20.360       636
20.380       630
20.400       726
20.420       586
20.440       673
20.460       730
20.480       796
20.500       633
20.520       643
20.540       690
20.560       670
20.580       613
20.600       696
20.620       590
20.640       646
20.660       660
20.680       663
20.700       733
20.720       653
20.740       680
20.760       693
20.780       646
20.800       710
20.820       666
20.840       643
20.860       693
20.880       696
20.900       696
20.920       690
20.940       723
20.960       683
20.980       683
21.000       733
21.020       750
21.040       626
21.060       763
21.080       653
21.100       773
21.120       650
21.140       573
21.160       743
21.180       686
21.200       636
21.220       586
21.240       586
21.260       603
21.280       576
21.300       623
21.320       616
21.340       643
21.360       620
21.380       616
21.400       613
21.420       623
21.440       580
21.460       546
21.480       643
21.500       686
21.520       550
21.540       623
21.560       563
21.580       620
21.600       670
21.620       550
21.640       596
21.660       593
21.680       580
21.700       506
21.720       596
21.740       506
21.760       663
21.780       543
21.800       543
21.820       646
21.840       586
21.860       540
21.880       583
21.900       536
21.920       540
21.940       606
21.960       516
21.980       526
22.000       520
22.020       546
22.040       590
22.060       486
22.080       543
22.100       553
22.120       510
22.140       536
22.160       606
22.180       530
22.200       480
22.220       586
22.240       516
22.260       543
22.280       596
22.300       473
22.320       576
22.340       563
22.360       506
22.380       660
22.400       706
22.420       573
22.440       533
22.460       570
22.480       556
22.500       600
22.520       493
22.540       573
22.560       573
22.580       473
22.600       510
22.620       550
22.640       423
22.660       446
22.680       536
22.700       496
22.720       530
22.740       553
22.760       500
22.780       426
22.800       620
22.820       483
22.840       500
22.860       526
22.880       546
22.900       600
22.920       470
22.940       493
22.960       470
22.980       573
23.000       506
23.020       473
23.040       500
23.060       530
23.080       493
23.100       430
23.120       593
23.140       510
23.160       400
23.180       450
23.200       546
23.220       503
23.240       450
23.260       526
23.280       453
23.300       410
23.320       520
23.340       493
23.360       520
23.380       483
23.400       486
23.420       466
23.440       566
23.460       463
23.480       560
23.500       540
23.520       540
23.540       526
23.560       540
23.580       530
23.600       466
23.620       500
23.640       463
23.660       476
23.680       476
23.700       476
23.720       490
23.740       493
23.760       513
23.780       486
23.800       520
23.820       496
23.840       413
23.860       480
23.880       410
23.900       480
23.920       516
23.940       473
23.960       446
23.980       480
24.000       480
24.020       466
24.040       506
24.060       523
24.080       466
24.100       490
24.120       523
24.140       476
24.160       480
24.180       423
24.200       463
24.220       500
24.240       490
24.260       456
24.280       510
24.300       397
24.320       556
24.340       550
24.360       490
24.380       483
24.400       533
24.420       490
24.440       526
24.460       480
24.480       533
24.500       536
24.520       556
24.540       506
24.560       503
24.580       516
24.600       576
24.620       620
24.640       493
24.660       496
24.680       460
24.700       503
24.720       536
24.740       446
24.760       443
24.780       413
24.800       486
24.820       403
24.840       460
24.860       480
24.880       350
24.900       513
24.920       466
24.940       503
24.960       377
24.980       443
25.000       460
25.020       466
25.040       363
25.060       410
25.080       380
25.100       500
25.120       453
25.140       413
25.160       413
25.180       413
25.200       470
25.220       417
25.240       440
25.260       397
25.280       440
25.300       450
25.320       390
25.340       400
25.360       430
25.380       486
25.400       436
25.420       480
25.440       466
25.460       387
25.480       400
25.500       403
25.520       456
25.540       403
25.560       383
25.580       410
25.600       383
25.620       407
25.640       426
25.660       400
25.680       520
25.700       466
25.720       363
25.740       383
25.760       486
25.780       413
25.800       420
25.820       450
25.840       456
25.860       463
25.880       510
25.900       397
25.920       456
25.940       460
25.960       297
25.980       393
26.000       473
26.020       483
26.040       393
26.060       413
26.080       436
26.100       480
26.120       377
26.140       420
26.160       413
26.180       390
26.200       483
26.220       407
26.240       520
26.260       353
26.280       410
26.300       463
26.320       377
26.340       397
26.360       350
26.380       410
26.400       446
26.420       423
26.440       387
26.460       430
26.480       397
26.500       403
26.520       373
26.540       357
26.560       377
26.580       343
26.600       426
26.620       373
26.640       367
26.660       446
26.680       393
26.700       390
26.720       407
26.740       313
26.760       337
26.780       436
26.800       410
26.820       353
26.840       370
26.860       417
26.880       436
26.900       383
26.920       357
26.940       353
26.960       393
26.980       327
27.000       373
27.020       397
27.040       380
27.060       330
27.080       323
27.100       373
27.120       380
27.140       317
27.160       446
27.180       377
27.200       393
27.220       377
27.240       387
27.260       403
27.280       387
27.300       370
27.320       393
27.340       350
27.360       380
27.380       347
27.400       400
27.420       340
27.440       440
27.460       400
27.480       333
27.500       380
27.520       313
27.540       343
27.560       353
27.580       357
27.600       390
27.620       370
27.640       327
27.660       397
27.680       413
27.700       363
27.720       387
27.740       407
27.760       380
27.780       337
27.800       370
27.820       340
27.840       330
27.860       360
27.880       377
27.900       330
27.920       347
27.940       403
27.960       340
27.980       393
28.000       390
28.020       383
28.040       390
28.060       347
28.080       383
28.100       357
28.120       363
28.140       423
28.160       357
28.180       423
28.200       446
28.220       390
28.240       317
28.260       377
28.280       290
28.300       340
28.320       443
28.340       397
28.360       343
28.380       426
28.400       323
28.420       337
28.440       430
28.460       400
28.480       403
28.500       347
28.520       350
28.540       347
28.560       420
28.580       400
28.600       363
28.620       383
28.640       317
28.660       353
28.680       410
28.700       407
28.720       360
28.740       417
28.760       460
28.780       417
28.800       436
28.820       473
28.840       460
28.860       493
28.880       490
28.900       560
28.920       523
28.940       546
28.960       586
28.980       630
29.000       520
29.020       726
29.040       690
29.060       653
29.080       610
29.100       706
29.120       733
29.140       720
29.160       680
29.180       616
29.200       613
29.220       573
29.240       553
29.260       486
29.280       503
29.300       363
29.320       420
29.340       360
29.360       317
29.380       377
29.400       340
29.420       347
29.440       407
29.460       367
29.480       380
29.500       390
29.520       353
29.540       357
29.560       360
29.580       397
29.600       367
29.620       277
29.640       320
29.660       353
29.680       363
29.700       360
29.720       370
29.740       310
29.760       337
29.780       400
29.800       393
29.820       390
29.840       337
29.860       370
29.880       403
29.900       333
29.920       380
29.940       360
29.960       353
29.980       367
30.000       357
30.020       353
30.040       277
30.060       360
30.080       353
30.100       343
30.120       320
30.140       343
30.160       323
30.180       297
30.200       303
30.220       327
30.240       367
30.260       337
30.280       300
30.300       337
30.320       383
30.340       327
30.360       387
30.380       313
30.400       327
30.420       337
30.440       340
30.460       313
30.480       290
30.500       360
30.520       357
30.540       323
30.560       397
30.580       323
30.600       340
30.620       317
30.640       370
30.660       343
30.680       293
30.700       370
30.720       353
30.740       337
30.760       330
30.780       403
30.800       360
30.820       403
30.840       340
30.860       320
30.880       320
30.900       337
30.920       310
30.940       350
30.960       403
30.980       340
31.000       330
31.020       310
31.040       380
31.060       337
31.080       377
31.100       330
31.120       310
31.140       357
31.160       297
31.180       297
31.200       350
31.220       393
31.240       363
31.260       327
31.280       387
31.300       297
31.320       380
31.340       400
31.360       300
31.380       403
31.400       363
31.420       320
31.440       397
31.460       337
31.480       360
31.500       337
31.520       317
31.540       297
31.560       367
31.580       330
31.600       347
31.620       373
31.640       387
31.660       320
31.680       310
31.700       387
31.720       247
31.740       343
31.760       270
31.780       357
31.800       340
31.820       333
31.840       340
31.860       433
31.880       333
31.900       370
31.920       283
31.940       347
31.960       287
31.980       307
32.000       350
32.020       347
32.040       367
32.060       343
32.080       310
32.100       380
32.120       343
32.140       343
32.160       330
32.180       333
32.200       323
32.220       353
32.240       417
32.260       383
32.280       387
32.300       313
32.320       297
32.340       287
32.360       303
32.380       380
32.400       377
32.420       280
32.440       417
32.460       337
32.480       337
32.500       317
32.520       383
32.540       313
32.560       360
32.580       340
32.600       327
32.620       290
32.640       230
32.660       303
32.680       317
32.700       350
32.720       363
32.740       347
32.760       343
32.780       367
32.800       293
32.820       303
32.840       363
32.860       343
32.880       340
32.900       360
32.920       320
32.940       353
32.960       387
32.980       343
33.000       297
33.020       307
33.040       413
33.060       337
33.080       313
33.100       387
33.120       340
33.140       323
33.160       403
33.180       397
33.200       320
33.220       363
33.240       350
33.260       330
33.280       280
33.300       307
33.320       323
33.340       303
33.360       333
33.380       377
33.400       310
33.420       370
33.440       280
33.460       297
33.480       307
33.500       340
33.520       327
33.540       377
33.560       323
33.580       330
33.600       313
33.620       280
33.640       350
33.660       410
33.680       333
33.700       300
33.720       353
33.740       347
33.760       357
33.780       287
33.800       257
33.820       353
33.840       400
33.860       333
33.880       323
33.900       347
33.920       337
33.940       400
33.960       307
33.980       363
34.000       327
34.020       367
34.040       310
34.060       313
34.080       330
34.100       327
34.120       337
34.140       320
34.160       373
34.180       293
34.200       330
34.220       417
34.240       353
34.260       370
34.280       380
34.300       337
34.320       393
34.340       330
34.360       360
34.380       313
34.400       387
34.420       443
34.440       373
34.460       413
34.480       387
34.500       337
34.520       360
34.540       370
34.560       407
34.580       310
34.600       340
34.620       443
34.640       347
34.660       423
34.680       387
34.700       393
34.720       317
34.740       367
34.760       397
34.780       413
34.800       350
34.820       453
34.840       407
34.860       373
34.880       510
34.900       397
34.920       407
34.940       340
34.960       337
34.980       436
35.000       420
35.020       393
35.040       400
35.060       400
35.080       403
35.100       380
35.120       446
35.140       453
35.160       443
35.180       367
35.200       453
35.220       426
35.240       496
35.260       463
35.280       496
35.300       490
35.320       560
35.340       513
35.360       533
35.380       500
35.400       553
35.420       470
35.440       520
35.460       543
35.480       566
35.500       533
35.520       576
35.540       590
35.560       630
35.580       596
35.600       610
35.620       620
35.640       653
35.660       696
35.680       593
35.700       610
35.720       593
35.740       573
35.760       553
35.780       483
35.800       606
35.820       590
35.840       500
35.860       466
35.880       540
35.900       440
35.920       516
35.940       490
35.960       536
35.980       476
36.000       333
36.020       463
36.040       393
36.060       423
36.080       373
36.100       397
36.120       387
36.140       410
36.160       426
36.180       407
36.200       390
36.220       420
36.240       440
36.260       383
36.280       407
36.300       453
36.320       350
36.340       383
36.360       426
36.380       380
36.400       456
36.420       360
36.440       443
36.460       350
36.480       380
36.500       377
36.520       357
36.540       373
36.560       360
36.580       377
36.600       407
36.620       393
36.640       390
36.660       380
36.680       390
36.700       350
36.720       380
36.740       420
36.760       357
36.780       357
36.800       363
36.820       367
36.840       370
36.860       367
36.880       303
36.900       330
36.920       373
36.940       343
36.960       367
36.980       340
37.000       333
37.020       353
37.040       430
37.060       393
37.080       420
37.100       347
37.120       430
37.140       387
37.160       317
37.180       350
37.200       387
37.220       330
37.240       360
37.260       307
37.280       347
37.300       320
37.320       373
37.340       390
37.360       377
37.380       370
37.400       373
37.420       397
37.440       337
37.460       360
37.480       383
37.500       343
37.520       300
37.540       337
37.560       377
37.580       403
37.600       333
37.620       343
37.640       387
37.660       450
37.680       300
37.700       323
37.720       367
37.740       397
37.760       393
37.780       283
37.800       310
37.820       373
37.840       393
37.860       320
37.880       343
37.900       377
37.920       363
37.940       297
37.960       383
37.980       380
38.000       407
38.020       373
38.040       433
38.060       400
38.080       357
38.100       420
38.120       377
38.140       430
38.160       363
38.180       417
38.200       443
38.220       407
38.240       393
38.260       423
38.280       333
38.300       407
38.320       310
38.340       433
38.360       387
38.380       320
38.400       310
38.420       297
38.440       337
38.460       323
38.480       373
38.500       426
38.520       317
38.540       383
38.560       380
38.580       383
38.600       317
38.620       313
38.640       383
38.660       367
38.680       377
38.700       367
38.720       413
38.740       347
38.760       353
38.780       377
38.800       373
38.820       373
38.840       390
38.860       417
38.880       390
38.900       426
38.920       400
38.940       417
38.960       426
38.980       417
39.000       473
39.020       473
39.040       426
39.060       503
39.080       446
39.100       463
39.120       410
39.140       417
39.160       393
39.180       496
39.200       443
39.220       436
39.240       397
39.260       456
39.280       393
39.300       463
39.320       387
39.340       357
39.360       367
39.380       370
39.400       367
39.420       350
39.440       337
39.460       290
39.480       327
39.500       320
39.520       283
39.540       373
39.560       340
39.580       383
39.600       387
39.620       337
39.640       387
39.660       347
39.680       333
39.700       327
39.720       320
39.740       330
39.760       360
39.780       333
39.800       340
39.820       357
39.840       390
39.860       373
39.880       357
39.900       367
39.920       340
39.940       347
39.960       367
39.980       370
40.000       327
40.020       323
40.040       313
40.060       380
40.080       323
40.100       360
40.120       303
40.140       330
40.160       317
40.180       347
40.200       303
40.220       400
40.240       397
40.260       343
40.280       300
40.300       350
40.320       387
40.340       283
40.360       343
40.380       267
40.400       287
40.420       383
40.440       293
40.460       327
40.480       347
40.500       313
40.520       350
40.540       400
40.560       360
40.580       323
40.600       370
40.620       303
40.640       400
40.660       367
40.680       397
40.700       353
40.720       310
40.740       337
40.760       330
40.780       387
40.800       397
40.820       373
40.840       297
40.860       307
40.880       340
40.900       317
40.920       320
40.940       380
40.960       363
40.980       340
41.000       307
41.020       377
41.040       327
41.060       373
41.080       303
41.100       340
41.120       303
41.140       303
41.160       380
41.180       347
41.200       307
41.220       307
41.240       353
41.260       353
41.280       400
41.300       357
41.320       353
41.340       310
41.360       333
41.380       320
41.400       337
41.420       337
41.440       350
41.460       310
41.480       327
41.500       377
41.520       303
41.540       360
41.560       347
41.580       293
41.600       330
41.620       370
41.640       337
41.660       237
41.680       320
41.700       343
41.720       370
41.740       350
41.760       357
41.780       323
41.800       317
41.820       357
41.840       283
41.860       307
41.880       420
41.900       333
41.920       370
41.940       377
41.960       343
41.980       350
42.000       370
42.020       340
42.040       313
42.060       337
42.080       373
42.100       367
42.120       383
42.140       330
42.160       330
42.180       330
42.200       357
42.220       323
42.240       420
42.260       383
42.280       293
42.300       367
42.320       363
42.340       377
42.360       303
42.380       293
42.400       350
42.420       363
42.440       347
42.460       393
42.480       350
42.500       337
42.520       413
42.540       423
42.560       340
42.580       426
42.600       337
42.620       327
42.640       333
42.660       303
42.680       367
42.700       510
42.720       353
42.740       373
42.760       423
42.780       450
42.800       440
42.820       433
42.840       397
42.860       486
42.880       403
42.900       387
42.920       410
42.940       453
42.960       436
42.980       420
43.000       420
43.020       350
43.040       377
43.060       380
43.080       423
43.100       357
43.120       337
43.140       403
43.160       337
43.180       303
43.200       327
43.220       400
43.240       317
43.260       297
43.280       380
43.300       330
43.320       357
43.340       383
43.360       340
43.380       330
43.400       320
43.420       297
43.440       393
43.460       330
43.480       343
43.500       357
43.520       317
43.540       290
43.560       313
43.580       340
43.600       320
43.620       313
43.640       273
43.660       387
43.680       330
43.700       300
43.720       333
43.740       347
43.760       337
43.780       330
43.800       313
43.820       367
43.840       287
43.860       317
43.880       307
43.900       337
43.920       323
43.940       300
43.960       327
43.980       303
44.000       303
44.020       280
44.040       283
44.060       323
44.080       367
44.100       337
44.120       297
44.140       277
44.160       287
44.180       347
44.200       283
44.220       323
44.240       357
44.260       303
44.280       303
44.300       330
44.320       360
44.340       253
44.360       310
44.380       290
44.400       330
44.420       330
44.440       320
44.460       277
44.480       373
44.500       367
44.520       390
44.540       347
44.560       300
44.580       380
44.600       340
44.620       313
44.640       300
44.660       333
44.680       300
44.700       350
44.720       277
44.740       310
44.760       327
44.780       197
44.800       297
44.820       367
44.840       310
44.860       383
44.880       317
44.900       350
44.920       367
44.940       283
44.960       297
44.980       367
45.000       407
45.020       317
45.040       323
45.060       297
45.080       327
45.100       337
45.120       330
45.140       297
45.160       337
45.180       340
45.200       323
45.220       400
45.240       327
45.260       310
45.280       223
45.300       313
45.320       317
45.340       307
45.360       303
45.380       343
45.400       320
45.420       297
45.440       300
45.460       307
45.480       333
45.500       303
45.520       333
45.540       307
45.560       307
45.580       370
45.600       323
45.620       280
45.640       337
45.660       317
45.680       267
45.700       340
45.720       347
45.740       267
45.760       257
45.780       343
45.800       277
45.820       333
45.840       323
45.860       327
45.880       340
45.900       277
45.920       290
45.940       303
45.960       343
45.980       197
46.000       367
46.020       300
46.040       290
46.060       370
46.080       293
46.100       260
46.120       317
46.140       360
46.160       353
46.180       360
46.200       297
46.220       320
46.240       363
46.260       320
46.280       287
46.300       347
46.320       360
46.340       303
46.360       390
46.380       343
46.400       370
46.420       337
46.440       330
46.460       313
46.480       310
46.500       360
46.520       333
46.540       370
46.560       320
46.580       323
46.600       347
46.620       363
46.640       317
46.660       343
46.680       407
46.700       363
46.720       390
46.740       426
46.760       397
46.780       380
46.800       320
46.820       370
46.840       320
46.860       340
46.880       357
46.900       300
46.920       387
46.940       350
46.960       360
46.980       430
47.000       333
47.020       407
47.040       327
47.060       377
47.080       440
47.100       433
47.120       377
47.140       450
47.160       410
47.180       446
47.200       490
47.220       393
47.240       426
47.260       476
47.280       436
47.300       440
47.320       430
47.340       403
47.360       387
47.380       460
47.400       436
47.420       403
47.440       370
47.460       340
47.480       337
47.500       320
47.520       310
47.540       233
47.560       370
47.580       343
47.600       410
47.620       370
47.640       323
47.660       320
47.680       283
47.700       243
47.720       297
47.740       323
47.760       330
47.780       343
47.800       270
47.820       300
47.840       337
47.860       313
47.880       297
47.900       340
47.920       323
47.940       303
47.960       340
47.980       323
48.000       330
48.020       373
48.040       367
48.060       410
48.080       380
48.100       443
48.120       380
48.140       383
48.160       450
48.180       413
48.200       516
48.220       456
48.240       413
48.260       470
48.280       436
48.300       407
48.320       417
48.340       403
48.360       387
48.380       380
48.400       283
48.420       347
48.440       320
48.460       313
48.480       283
48.500       393
48.520       250
48.540       300
48.560       297
48.580       240
48.600       307
48.620       333
48.640       330
48.660       297
48.680       307
48.700       350
48.720       300
48.740       267
48.760       297
48.780       277
48.800       297
48.820       293
48.840       290
48.860       300
48.880       300
48.900       243
48.920       267
48.940       320
48.960       260
48.980       327
49.000       247
49.020       307
49.040       297
49.060       273
49.080       240
49.100       263
49.120       313
49.140       283
49.160       367
49.180       307
49.200       243
49.220       273
49.240       297
49.260       290
49.280       293
49.300       270
49.320       290
49.340       320
49.360       267
49.380       273
49.400       277
49.420       293
49.440       297
49.460       310
49.480       223
49.500       260
49.520       237
49.540       263
49.560       237
49.580       280
49.600       293
49.620       310
49.640       270
49.660       270
49.680       240
49.700       280
49.720       290
49.740       263
49.760       320
49.780       253
49.800       383
49.820       280
49.840       237
49.860       257
49.880       330
49.900       337
49.920       273
49.940       293
49.960       293
49.980       253
50.000       273
50.020       267
50.040       237
50.060       273
50.080       327
50.100       283
50.120       267
50.140       313
50.160       310
50.180       277
50.200       270
50.220       303
50.240       297
50.260       293
50.280       273
50.300       333
50.320       313
50.340       283
50.360       303
50.380       343
50.400       253
50.420       307
50.440       293
50.460       280
50.480       247
50.500       233
50.520       190
50.540       280
50.560       260
50.580       297
50.600       270
50.620       287
50.640       287
50.660       367
50.680       260
50.700       277
50.720       333
50.740       223
50.760       287
50.780       263
50.800       280
50.820       293
50.840       260
50.860       257
50.880       327
50.900       287
50.920       323
50.940       283
50.960       250
50.980       243
51.000       243
51.020       330
51.040       257
51.060       310
51.080       243
51.100       223
51.120       280
51.140       257
51.160       287
51.180       273
51.200       267
51.220       260
51.240       323
51.260       290
51.280       263
51.300       307
51.320       257
51.340       317
51.360       290
51.380       273
51.400       317
51.420       230
51.440       240
51.460       257
51.480       307
51.500       300
51.520       283
51.540       203
51.560       240
51.580       233
51.600       240
51.620       303
51.640       300
51.660       253
51.680       333
51.700       313
51.720       290
51.740       243
51.760       290
51.780       293
51.800       257
51.820       267
51.840       303
51.860       297
51.880       283
51.900       273
51.920       287
51.940       253
51.960       293
51.980       250
52.000       253
52.020       293
52.040       227
52.060       293
52.080       260
52.100       267
52.120       257
52.140       287
52.160       203
52.180       247
52.200       280
52.220       293
52.240       283
52.260       237
52.280       237
52.300       227
52.320       230
52.340       317
52.360       260
52.380       293
52.400       290
52.420       263
52.440       277
52.460       337
52.480       287
52.500       357
52.520       290
52.540       290
52.560       240
52.580       283
52.600       280
52.620       240
52.640       250
52.660       260
52.680       257
52.700       260
52.720       283
52.740       300
52.760       277
52.780       283
52.800       277
52.820       223
52.840       287
52.860       240
52.880       340
52.900       227
52.920       237
52.940       283
52.960       290
52.980       277
53.000       263
53.020       290
53.040       233
53.060       217
53.080       277
53.100       237
53.120       273
53.140       200
53.160       233
53.180       233
53.200       343
53.220       277
53.240       273
53.260       240
53.280       290
53.300       290
53.320       260
53.340       307
53.360       237
53.380       237
53.400       270
53.420       220
53.440       237
53.460       280
53.480       253
53.500       293
53.520       270
53.540       233
53.560       267
53.580       257
53.600       227
53.620       247
53.640       213
53.660       217
53.680       263
53.700       227
53.720       310
53.740       293
53.760       287
53.780       230
53.800       273
53.820       267
53.840       273
53.860       277
53.880       293
53.900       230
53.920       290
53.940       293
53.960       247
53.980       253
54.000       277
54.020       270
54.040       320
54.060       277
54.080       307
54.100       223
54.120       257
54.140       317
54.160       260
54.180       290
54.200       220
54.220       270
54.240       247
54.260       293
54.280       323
54.300       333
54.320       270
54.340       253
54.360       223
54.380       287
54.400       247
54.420       303
54.440       220
54.460       260
54.480       260
54.500       253
54.520       307
54.540       290
54.560       297
54.580       247
54.600       320
54.620       297
54.640       300
54.660       293
54.680       323
54.700       287
54.720       300
54.740       290
54.760       313
54.780       233
54.800       307
54.820       297
54.840       277
54.860       240
54.880       353
54.900       303
54.920       297
54.940       320
54.960       297
54.980       250
55.000       257
55.020       287
55.040       300
55.060       317
55.080       207
55.100       253
55.120       220
55.140       223
55.160       303
55.180       277
55.200       200
55.220       273
55.240       253
55.260       283
55.280       247
55.300       273
55.320       253
55.340       250
55.360       253
55.380       293
55.400       273
55.420       263
55.440       263
55.460       320
55.480       310
55.500       277
55.520       253
55.540       243
55.560       273
55.580       277
55.600       267
55.620       250
55.640       247
55.660       263
55.680       297
55.700       267
55.720       243
55.740       303
55.760       267
55.780       243
55.800       280
55.820       243
55.840       210
55.860       277
55.880       240
55.900       270
55.920       267
55.940       233
55.960       283
55.980       243
56.000       263
56.020       293
56.040       270
56.060       267
56.080       270
56.100       320
56.120       333
56.140       237
56.160       263
56.180       293
56.200       340
56.220       230
56.240       263
56.260       217
56.280       273
56.300       293
56.320       263
56.340       293
56.360       340
56.380       297
56.400       317
56.420       250
56.440       357
56.460       243
56.480       293
56.500       310
56.520       233
56.540       263
56.560       243
56.580       297
56.600       303
56.620       290
56.640       263
56.660       317
56.680       283
56.700       303
56.720       323
56.740       203
56.760       287
56.780       243
56.800       267
56.820       283
56.840       310
56.860       277
56.880       310
56.900       293
56.920       313
56.940       263
56.960       273
56.980       333
57.000       307
57.020       363
57.040       320
57.060       270
57.080       310
57.100       347
57.120       323
57.140       327
57.160       350
57.180       327
57.200       320
57.220       293
57.240       290
57.260       300
57.280       270
57.300       297
57.320       237
57.340       197
57.360       243
57.380       290
57.400       213
57.420       293
57.440       320
57.460       317
57.480       273
57.500       290
57.520       317
57.540       267
57.560       283
57.580       273
57.600       290
57.620       273
57.640       273
57.660       280
57.680       250
57.700       267
57.720       253
57.740       240
57.760       230
57.780       253
57.800       253
57.820       257
57.840       263
57.860       250
57.880       273
57.900       187
57.920       300
57.940       267
57.960       293
57.980       267
58.000       217
58.020       250
58.040       247
58.060       247
58.080       250
58.100       260
58.120       263
58.140       227
58.160       233
58.180       297
58.200       290
58.220       253
58.240       230
58.260       177
58.280       253
58.300       257
58.320       247
58.340       233
58.360       227
58.380       197
58.400       280
58.420       257
58.440       247
58.460       233
58.480       233
58.500       253
58.520       270
58.540       243
58.560       247
58.580       230
58.600       300
58.620       297
58.640       210
58.660       247
58.680       237
58.700       250
58.720       240
58.740       290
58.760       213
58.780       237
58.800       240
58.820       237
58.840       243
58.860       233
58.880       333
58.900       297
58.920       253
58.940       247
58.960       197
58.980       257
59.000       260
59.020       227
59.040       223
59.060       207
59.080       270
59.100       257
59.120       233
59.140       280
59.160       217
59.180       270
59.200       227
59.220       273
59.240       180
59.260       217
59.280       287
59.300       283
59.320       233
59.340       197
59.360       273
59.380       273
59.400       240
59.420       247
59.440       237
59.460       273
59.480       280
59.500       207
59.520       267
59.540       260
59.560       207
59.580       240
59.600       297
59.620       253
59.640       263
59.660       293
59.680       303
59.700       270
59.720       280
59.740       257
59.760       267
59.780       283
59.800       253
59.820       267
59.840       240
59.860       253
59.880       250
59.900       327
59.920       277
59.940       253
59.960         0
59.980         0
60.000         0
