20.000         0
20.020         0
20.040         0
20.060       197
20.080       616
20.100       683
20.120       656
20.140       660
20.160       643
20.180       640
20.200       756
20.220       663
20.240       700
20.260       686
20.280       716
20.300       760
20.320       663
20.340       763
20.360       683
20.380       643
20.400       673
20.420       693
20.440       643
20.460       556
20.480       620
20.500       723
20.520       850
20.540       610
20.560       723
20.580       693
20.600       673
20.620       700
20.640       673
20.660       643
20.680       590
20.700       626
20.720       626
20.740       683
20.760       663
20.780       693
20.800       713
20.820       686
20.840       576
20.860       650
20.880       693
20.900       806
20.920       800
20.940       783
20.960       756
20.980       670
21.000       730
21.020       783
21.040       740
21.060       720
21.080       743
21.100       686
21.120       706
21.140       690
21.160       643
21.180       750
21.200       656
21.220       803
21.240       720
21.260       556
21.280       623
21.300       603
21.320       696
21.340       676
21.360       646
21.380       626
21.400       643
21.420       590
21.440       710
21.460       616
21.480       490
21.500       600
21.520       576
21.540       643
21.560       593
21.580       623
21.600       526
21.620       630
21.640       610
21.660       700
21.680       500
21.700       630
21.720       673
21.740       580
21.760       576
21.780       610
21.800       590
21.820       553
21.840       633
21.860       520
21.880       603
21.900       570
21.920       540
21.940       523
21.960       600
21.980       540
22.000       550
22.020       580
22.040       600
22.060       540
22.080       550
22.100       580
22.120       610
22.140       546
22.160       500
22.180       513
22.200       520
22.220       510
22.240       520
22.260       583
22.280       553
22.300       536
22.320       510
22.340       573
22.360       590
22.380       476
22.400       553
22.420       590
22.440       616
22.460       476
22.480       540
22.500       580
22.520       533
22.540       503
22.560       600
22.580       610
22.600       510
22.620       580
22.640       546
22.660       633
22.680       630
22.700       506
22.720       576
22.740       606
22.760       540
22.780       623
22.800       576
22.820       593
22.840       643
22.860       556
22.880       473
22.900       536
22.920       476
22.940       563
22.960       616
22.980       530
23.000       593
23.020       566
23.040       513
23.060       540
23.080       586
23.100       566
23.120       563
23.140       583
23.160       513
23.180       533
23.200       486
23.220       580
23.240       526
23.260       483
23.280       510
23.300       550
23.320       553
23.340       523
23.360       480
23.380       466
23.400       466
23.420       536
23.440       550
23.460       580
23.480       573
23.500       500
23.520       513
23.540       530
23.560       506
23.580       533
23.600       510
23.620       520
23.640       500
23.660       490
23.680       580
23.700       443
23.720       473
23.740       490
23.760       433
23.780       496
23.800       480
23.820       523
23.840       443
23.860       433
23.880       516
23.900       413
23.920       480
23.940       503
23.960       503
23.980       453
24.000       480
24.020       516
24.040       523
24.060       540
24.080       443
24.100       476
24.120       456
24.140       453
24.160       510
24.180       500
24.200       423
24.220       426
24.240       443
24.260       466
24.280       506
24.300       443
24.320       473
24.340       473
24.360       510
24.380       513
24.400       500
24.420       533
24.440       540
24.460       546
24.480       450
24.500       583
24.520       593
24.540       560
24.560       573
24.580       623
24.600       433
24.620       526
24.640       536
24.660       520
24.680       593
24.700       540
24.720       550
24.740       570
24.760       500
24.780       436
24.800       483
24.820       486
24.840       426
24.860       410
24.880       466
24.900       397
24.920       496
24.940       433
24.960       380
24.980       480
25.000       516
25.020       516
25.040       453
25.060       443
25.080       443
25.100       466
25.120       413
25.140       463
25.160       490
25.180       436
25.200       410
25.220       370
25.240       503
25.260       456
25.280       377
25.300       460
25.320       410
25.340       390
25.360       410
25.380       410
25.400       543
25.420       506
25.440       403
25.460       483
25.480       443
25.500       423
25.520       453
25.540       393
25.560       420
25.580       473
25.600       413
25.620       390
25.640       423
25.660       403
25.680       460
25.700       363
25.720       380
25.740       410
25.760       363
25.780       410
25.800       423
25.820       323
25.840       407
25.860       456
25.880       407
25.900       337
25.920       413
25.940       390
25.960       397
25.980       400
26.000       420
26.020       446
26.040       407
26.060       446
26.080       473
26.100       420
26.120       413
26.140       470
26.160       387
26.180       367
26.200       370
26.220       436
26.240       456
26.260       417
26.280       413
26.300       426
26.320       357
26.340       423
26.360       400
26.380       397
26.400       480
26.420       300
26.440       403
26.460       420
26.480       330
26.500       383
26.520       403
26.540       446
26.560       347
26.580       403
26.600       387
26.620       383
26.640       417
26.660       460
26.680       480
26.700       387
26.720       410
26.740       360
26.760       420
26.780       423
26.800       436
26.820       383
26.840       343
26.860       373
26.880       413
26.900       393
26.920       423
26.940       390
26.960       393
26.980       400
27.000       390
27.020       403
27.040       387
27.060       400
27.080       363
27.100       426
27.120       440
27.140       410
27.160       443
27.180       387
27.200       347
27.220       313
27.240       403
27.260       290
27.280       337
27.300       343
27.320       373
27.340       320
27.360       347
27.380       293
27.400       340
27.420       417
27.440       397
27.460       450
27.480       407
27.500       363
27.520       353
27.540       367
27.560       430
27.580       303
27.600       377
27.620       367
27.640       377
27.660       333
27.680       343
27.700       420
27.720       413
27.740       353
27.760       347
27.780       340
27.800       363
27.820       313
27.840       410
27.860       370
27.880       480
27.900       360
27.920       383
27.940       410
27.960       360
27.980       387
28.000       383
28.020       397
28.040       350
28.060       413
28.080       407
28.100       443
28.120       417
28.140       390
28.160       383
28.180       410
28.200       400
28.220       426
28.240       397
28.260       360
28.280       387
28.300       363
28.320       340
28.340       403
28.360       350
28.380       440
28.400       310
28.420       340
28.440       357
28.460       360
28.480       380
28.500       323
28.520       330
28.540       353
28.560       417
28.580       453
28.600       423
28.620       350
28.640       410
28.660       353
28.680       400
28.700       417
28.720       397
28.740       450
28.760       436
28.780       490
28.800       453
28.820       460
28.840       523
28.860       493
28.880       600
28.900       583
28.920       550
28.940       623
28.960       643
28.980       686
29.000       730
29.020       633
29.040       763
29.060       820
29.080       743
29.100       813
29.120       700
29.140       773
29.160       743
29.180       663
29.200       646
29.220       506
29.240       443
29.260       473
29.280       413
29.300       417
29.320       407
29.340       410
29.360       407
29.380       330
29.400       400
29.420       360
29.440       377
29.460       327
29.480       277
29.500       340
29.520       347
29.540       367
29.560       353
29.580       363
29.600       327
29.620       353
29.640       400
29.660       347
29.680       333
29.700       310
29.720       423
29.740       333
29.760       303
29.780       357
29.800       380
29.820       340
29.840       320
29.860       327
29.880       363
29.900       333
29.920       400
29.940       303
29.960       353
29.980       307
30.000       343
30.020       317
30.040       307
30.060       340
30.080       310
30.100       343
30.120       313
30.140       330
30.160       377
30.180       400
30.200       403
30.220       320
30.240       367
30.260       350
30.280       360
30.300       360
30.320       337
30.340       343
30.360       353
30.380       333
30.400       367
30.420       323
30.440       377
30.460       360
30.480       323
30.500       350
30.520       357
30.540       320
30.560       370
30.580       303
30.600       403
30.620       340
30.640       387
30.660       363
30.680       333
30.700       303
30.720       363
30.740       363
30.760       343
30.780       363
30.800       337
30.820       307
30.840       310
30.860       363
30.880       347
30.900       453
30.920       253
30.940       393
30.960       397
30.980       320
31.000       337
31.020       357
31.040       387
31.060       310
31.080       380
31.100       383
31.120       303
31.140       423
31.160       323
31.180       333
31.200       373
31.220       363
31.240       317
31.260       357
31.280       367
31.300       377
31.320       330
31.340       280
31.360       303
31.380       333
31.400       307
31.420       390
31.440       330
31.460       377
31.480       303
31.500       327
31.520       323
31.540       367
31.560       340
31.580       350
31.600       360
31.620       267
31.640       313
31.660       357
31.680       343
31.700       340
31.720       337
31.740       373
31.760       367
31.780       363
31.800       377
31.820       333
31.840       323
31.860       373
31.880       297
31.900       350
31.920       387
31.940       303
31.960       387
31.980       307
32.000       303
32.020       307
32.040       343
32.060       310
32.080       340
32.100       317
32.120       377
32.140       347
32.160       283
32.180       340
32.200       280
32.220       333
32.240       330
32.260       377
32.280       257
32.300       337
32.320       317
32.340       337
32.360       337
32.380       300
32.400       353
32.420       343
32.440       287
32.460       333
32.480       360
32.500       303
32.520       307
32.540       293
32.560       367
32.580       300
32.600       310
32.620       317
32.640       287
32.660       303
32.680       310
32.700       390
32.720       290
32.740       293
32.760       333
32.780       340
32.800       310
32.820       343
32.840       320
32.860       307
32.880       300
32.900       330
32.920       380
32.940       360
32.960       407
32.980       323
33.000       357
33.020       410
33.040       337
33.060       360
33.080       337
33.100       297
33.120       317
33.140       313
33.160       320
33.180       323
33.200       380
33.220       363
33.240       233
33.260       377
33.280       347
33.300       340
33.320       300
33.340       340
33.360       287
33.380       410
33.400       307
33.420       380
33.440       363
33.460       353
33.480       347
33.500       413
33.520       353
33.540       377
33.560       337
33.580       360
33.600       333
33.620       297
33.640       357
33.660       360
33.680       367
33.700       363
33.720       300
33.740       410
33.760       323
33.780       347
33.800       343
33.820       323
33.840       353
33.860       303
33.880       320
33.900       343
33.920       313
33.940       290
33.960       320
33.980       347
34.000       327
34.020       320
34.040       320
34.060       383
34.080       340
34.100       413
34.120       330
34.140       357
34.160       373
34.180       313
34.200       313
34.220       337
34.240       340
34.260       290
34.280       327
34.300       413
34.320       387
34.340       360
34.360       327
34.380       320
34.400       340
34.420       373
34.440       380
34.460       377
34.480       367
34.500       327
34.520       393
34.540       423
34.560       327
34.580       420
34.600       323
34.620       320
34.640       363
34.660       380
34.680       423
34.700       410
34.720       413
34.740       320
34.760       377
34.780       347
34.800       357
34.820       313
34.840       393
34.860       380
34.880       423
34.900       373
34.920       393
34.940       337
34.960       387
34.980       523
35.000       483
35.020       443
35.040       446
35.060       370
35.080       460
35.100       400
35.120       433
35.140       360
35.160       436
35.180       466
35.200       476
35.220       480
35.240       496
35.260       493
35.280       570
35.300       470
35.320       530
35.340       573
35.360       556
35.380       566
35.400       540
35.420       573
35.440       603
35.460       580
35.480       586
35.500       673
35.520       696
35.540       576
35.560       743
35.580       676
35.600       676
35.620       633
35.640       713
35.660       666
35.680       653
35.700       673
35.720       690
35.740       610
35.760       680
35.780       580
35.800       570
35.820       530
35.840       513
35.860       600
35.880       563
35.900       516
35.920       440
35.940       403
35.960       426
35.980       387
36.000       413
36.020       436
36.040       373
36.060       430
36.080       456
36.100       410
36.120       410
36.140       460
36.160       440
36.180       433
36.200       453
36.220       387
36.240       420
36.260       436
36.280       387
36.300       456
36.320       413
36.340       360
36.360       347
36.380       403
36.400       413
36.420       410
36.440       400
36.460       393
36.480       353
36.500       333
36.520       393
36.540       330
36.560       407
36.580       350
36.600       397
36.620       360
36.640       387
36.660       377
36.680       403
36.700       393
36.720       377
36.740       337
36.760       353
36.780       397
36.800       360
36.820       357
36.840       317
36.860       337
36.880       383
36.900       377
36.920       307
36.940       407
36.960       313
36.980       373
37.000       310
37.020       333
37.040       340
37.060       387
37.080       383
37.100       360
37.120       320
37.140       383
37.160       310
37.180       303
37.200       363
37.220       357
37.240       367
37.260       347
37.280       313
37.300       387
37.320       313
37.340       337
37.360       350
37.380       377
37.400       320
37.420       307
37.440       343
37.460       350
37.480       320
37.500       403
37.520       380
37.540       343
37.560       343
37.580       323
37.600       343
37.620       307
37.640       350
37.660       363
37.680       353
37.700       377
37.720       327
37.740       363
37.760       360
37.780       343
37.800       480
37.820       380
37.840       327
37.860       370
37.880       433
37.900       373
37.920       383
37.940       333
37.960       436
37.980       423
38.000       340
38.020       400
38.040       367
38.060       436
38.080       380
38.100       466
38.120       393
38.140       383
38.160       327
38.180       330
38.200       380
38.220       370
38.240       390
38.260       320
38.280       423
38.300       340
38.320       400
38.340       340
38.360       357
38.380       373
38.400       383
38.420       313
38.440       330
38.460       290
38.480       327
38.500       300
38.520       303
38.540       350
38.560       293
38.580       357
38.600       310
38.620       277
38.640       313
38.660       417
38.680       343
38.700       357
38.720       373
38.740       307
38.760       340
38.780       370
38.800       343
38.820       393
38.840       363
38.860       363
38.880       397
38.900       410
38.920       420
38.940       426
38.960       453
38.980       443
39.000       357
39.020       476
39.040       536
39.060       420
39.080       450
39.100       470
39.120       393
39.140       493
39.160       426
39.180       380
39.200       373
39.220       387
39.240       407
39.260       337
39.280       403
39.300       363
39.320       313
39.340       320
39.360       330
39.380       317
39.400       330
39.420       370
39.440       317
39.460       310
39.480       270
39.500       360
39.520       377
39.540       337
39.560       377
39.580       303
39.600       380
39.620       397
39.640       287
39.660       337
39.680       320
39.700       310
39.720       343
39.740       297
39.760       293
39.780       330
39.800       337
39.820       320
39.840       267
39.860       313
39.880       350
39.900       393
39.920       320
39.940       327
39.960       383
39.980       310
40.000       370
40.020       383
40.040       353
40.060       333
40.080       327
40.100       377
40.120       320
40.140       317
40.160       337
40.180       323
40.200       343
40.220       400
40.240       350
40.260       273
40.280       310
40.300       436
40.320       343
40.340       307
40.360       337
40.380       320
40.400       387
40.420       340
40.440       353
40.460       357
40.480       320
40.500       310
40.520       313
40.540       367
40.560       320
40.580       390
40.600       330
40.620       297
40.640       317
40.660       333
40.680       330
40.700       350
40.720       353
40.740       340
40.760       323
40.780       330
40.800       343
40.820       327
40.840       353
40.860       313
40.880       293
40.900       310
40.920       390
40.940       330
40.960       347
40.980       327
41.000       290
41.020       323
41.040       353
41.060       333
41.080       300
41.100       343
41.120       330
41.140       313
41.160       423
41.180       310
41.200       310
41.220       290
41.240       357
41.260       320
41.280       343
41.300       343
41.320       360
41.340       273
41.360       327
41.380       327
41.400       360
41.420       387
41.440       363
41.460       340
41.480       333
41.500       360
41.520       420
41.540       343
41.560       347
41.580       337
41.600       317
41.620       317
41.640       333
41.660       313
41.680       347
41.700       347
41.720       353
41.740       360
41.760       353
41.780       320
41.800       367
41.820       307
41.840       323
41.860       313
41.880       350
41.900       353
41.920       333
41.940       330
41.960       343
41.980       317
42.000       363
42.020       426
42.040       307
42.060       283
42.080       337
42.100       353
42.120       343
42.140       393
42.160       390
42.180       327
42.200       340
42.220       380
42.240       367
42.260       320
42.280       303
42.300       353
42.320       340
42.340       360
42.360       310
42.380       350
42.400       300
42.420       380
42.440       353
42.460       383
42.480       343
42.500       353
42.520       323
42.540       350
42.560       387
42.580       430
42.600       440
42.620       360
42.640       410
42.660       327
42.680       393
42.700       343
42.720       393
42.740       400
42.760       420
42.780       476
42.800       410
42.820       403
42.840       440
42.860       417
42.880       483
42.900       460
42.920       433
42.940       413
42.960       397
42.980       387
43.000       363
43.020       337
43.040       330
43.060       343
43.080       327
43.100       287
43.120       327
43.140       307
43.160       350
43.180       320
43.200       320
43.220       303
43.240       307
43.260       277
43.280       323
43.300       330
43.320       383
43.340       323
43.360       317
43.380       373
43.400       340
43.420       323
43.440       330
43.460       297
43.480       317
43.500       320
43.520       323
43.540       273
43.560       330
43.580       323
43.600       370
43.620       270
43.640       293
43.660       363
43.680       317
43.700       317
43.720       273
43.740       323
43.760       313
43.780       403
43.800       290
43.820       357
43.840       373
43.860       343
43.880       307
43.900       367
43.920       260
43.940       277
43.960       290
43.980       367
44.000       233
44.020       307
44.040       383
44.060       317
44.080       317
44.100       310
44.120       353
44.140       303
44.160       350
44.180       350
44.200       343
44.220       373
44.240       357
44.260       320
44.280       307
44.300       283
44.320       323
44.340       313
44.360       267
44.380       270
44.400       323
44.420       323
44.440       370
44.460       337
44.480       290
44.500       293
44.520       297
44.540       373
44.560       273
44.580       340
44.600       303
44.620       303
44.640       260
44.660       343
44.680       353
44.700       333
44.720       340
44.740       313
44.760       310
44.780       320
44.800       323
44.820       293
44.840       333
44.860       310
44.880       426
44.900       260
44.920       300
44.940       310
44.960       297
44.980       293
45.000       360
45.020       283
45.040       317
45.060       357
45.080       330
45.100       310
45.120       267
45.140       320
45.160       350
45.180       323
45.200       363
45.220       330
45.240       333
45.260       353
45.280       340
45.300       313
45.320       287
45.340       287
45.360       383
45.380       290
45.400       363
45.420       297
45.440       317
45.460       360
45.480       273
45.500       370
45.520       323
45.540       303
45.560       300
45.580       313
45.600       307
45.620       323
45.640       320
45.660       320
45.680       283
45.700       330
45.720       320
45.740       293
45.760       297
45.780       293
45.800       357
45.820       297
45.840       300
45.860       307
45.880       303
45.900       303
45.920       377
45.940       297
45.960       303
45.980       313
46.000       290
46.020       293
46.040       290
46.060       423
46.080       307
46.100       353
46.120       313
46.140       370
46.160       340
46.180       350
46.200       280
46.220       367
46.240       327
46.260       327
46.280       300
46.300       370
46.320       340
46.340       307
46.360       297
46.380       343
46.400       343
46.420       320
46.440       350
46.460       360
46.480       360
46.500       300
46.520       333
46.540       290
46.560       263
46.580       293
46.600       277
46.620       317
46.640       360
46.660       313
46.680       303
46.700       297
46.720       330
46.740       343
46.760       367
46.780       397
46.800       446
46.820       350
46.840       347
46.860       343
46.880       353
46.900       333
46.920       343
46.940       393
46.960       340
46.980       323
47.000       397
47.020       393
47.040       413
47.060       343
47.080       407
47.100       390
47.120       500
47.140       486
47.160       383
47.180       453
47.200       480
47.220       473
47.240       446
47.260       490
47.280       403
47.300       486
47.320       493
47.340       433
47.360       403
47.380       417
47.400       313
47.420       353
47.440       343
47.460       257
47.480       277
47.500       387
47.520       247
47.540       277
47.560       320
47.580       340
47.600       323
47.620       300
47.640       340
47.660       337
47.680       287
47.700       323
47.720       313
47.740       320
47.760       343
47.780       267
47.800       297
47.820       337
47.840       310
47.860       343
47.880       337
47.900       323
47.920       370
47.940       320
47.960       323
47.980       367
48.000       330
48.020       363
48.040       407
48.060       287
48.080       407
48.100       377
48.120       433
48.140       387
48.160       463
48.180       466
48.200       443
48.220       446
48.240       420
48.260       407
48.280       433
48.300       450
48.320       397
48.340       333
48.360       347
48.380       337
48.400       373
48.420       357
48.440       327
48.460       393
48.480       327
48.500       313
48.520       283
48.540       260
48.560       353
48.580       283
48.600       260
48.620       247
48.640       227
48.660       280
48.680       307
48.700       337
48.720       267
48.740       277
48.760       343
48.780       300
48.800       323
48.820       237
48.840       237
48.860       293
48.880       277
48.900       317
48.920       303
48.940       270
48.960       277
48.980       267
49.000       360
49.020       247
49.040       297
49.060       307
49.080       373
49.100       283
49.120       310
49.140       237
49.160       243
49.180       310
49.200       257
49.220       300
49.240       330
49.260       240
49.280       283
49.300       313
49.320       270
49.340       323
49.360       293
49.380       283
49.400       277
49.420       330
49.440       253
49.460       270
49.480       283
49.500       313
49.520       323
49.540       260
49.560       367
49.580       230
49.600       287
49.620       267
49.640       253
49.660       270
49.680       283
49.700       280
49.720       273
49.740       290
49.760       280
49.780       250
49.800       390
49.820       280
49.840       317
49.860       260
49.880       277
49.900       343
49.920       270
49.940       223
49.960       253
49.980       277
50.000       277
50.020       310
50.040       283
50.060       223
50.080       233
50.100       270
50.120       240
50.140       270
50.160       280
50.180       280
50.200       310
50.220       293
50.240       243
50.260       270
50.280       233
50.300       283
50.320       270
50.340       307
50.360       267
50.380       240
50.400       290
50.420       273
50.440       317
50.460       283
50.480       263
50.500       257
50.520       253
50.540       297
50.560       333
50.580       220
50.600       327
50.620       243
50.640       327
50.660       253
50.680       247
50.700       347
50.720       330
50.740       307
50.760       233
50.780       263
50.800       307
50.820       283
50.840       267
50.860       270
50.880       237
50.900       297
50.920       257
50.940       287
50.960       347
50.980       247
51.000       253
51.020       240
51.040       223
51.060       243
51.080       210
51.100       350
51.120       307
51.140       237
51.160       283
51.180       283
51.200       310
51.220       270
51.240       257
51.260       227
51.280       333
51.300       360
51.320       250
51.340       270
51.360       250
51.380       310
51.400       267
51.420       293
51.440       273
51.460       270
51.480       263
51.500       287
51.520       267
51.540       263
51.560       277
51.580       247
51.600       250
51.620       340
51.640       250
51.660       307
51.680       257
51.700       267
51.720       277
51.740       277
51.760       217
51.780       250
51.800       283
51.820       260
51.840       270
51.860       243
51.880       313
51.900       253
51.920       313
51.940       237
51.960       263
51.980       263
52.000       250
52.020       223
52.040       310
52.060       190
52.080       227
52.100       250
52.120       307
52.140       337
52.160       263
52.180       250
52.200       210
52.220       313
52.240       243
52.260       273
52.280       240
52.300       320
52.320       253
52.340       297
52.360       320
52.380       260
52.400       273
52.420       280
52.440       253
52.460       307
52.480       307
52.500       277
52.520       240
52.540       240
52.560       287
52.580       230
52.600       283
52.620       333
52.640       273
52.660       297
52.680       283
52.700       353
52.720       283
52.740       293
52.760       277
52.780       303
52.800       283
52.820       243
52.840       260
52.860       253
52.880       233
52.900       230
52.920       293
52.940       207
52.960       270
52.980       290
53.000       273
53.020       317
53.040       277
53.060       257
53.080       273
53.100       233
53.120       350
53.140       250
53.160       213
53.180       320
53.200       237
53.220       223
53.240       297
53.260       267
53.280       247
53.300       240
53.320       257
53.340       243
53.360       367
53.380       253
53.400       247
53.420       247
53.440       243
53.460       233
53.480       250
53.500       237
53.520       260
53.540       267
53.560       247
53.580       247
53.600       260
53.620       313
53.640       243
53.660       233
53.680       250
53.700       303
53.720       317
53.740       313
53.760       327
53.780       240
53.800       267
53.820       243
53.840       260
53.860       267
53.880       290
53.900       320
53.920       277
53.940       253
53.960       223
53.980       233
54.000       270
54.020       303
54.040       243
54.060       273
54.080       297
54.100       260
54.120       287
54.140       233
54.160       277
54.180       307
54.200       267
54.220       243
54.240       293
54.260       297
54.280       217
54.300       283
54.320       300
54.340       273
54.360       287
54.380       277
54.400       300
54.420       280
54.440       280
54.460       303
54.480       260
54.500       270
54.520       283
54.540       290
54.560       273
54.580       283
54.600       233
54.620       310
54.640       260
54.660       300
54.680       263
54.700       290
54.720       280
54.740       350
54.760       250
54.780       283
54.800       273
54.820       357
54.840       307
54.860       243
54.880       280
54.900       313
54.920       317
54.940       270
54.960       240
54.980       340
55.000       293
55.020       300
55.040       243
55.060       350
55.080       277
55.100       277
55.120       260
55.140       280
55.160       320
55.180       257
55.200       250
55.220       243
55.240       363
55.260       240
55.280       280
55.300       293
55.320       267
55.340       327
55.360       237
55.380       290
55.400       263
55.420       253
55.440       297
55.460       293
55.480       290
55.500       263
55.520       270
55.540       250
55.560       193
55.580       257
55.600       267
55.620       260
55.640       300
55.660       270
55.680       267
55.700       283
55.720       313
55.740       267
55.760       260
55.780       273
55.800       297
55.820       277
55.840       280
55.860       267
55.880       267
55.900       240
55.920       277
55.940       280
55.960       233
55.980       270
56.000       273
56.020       203
56.040       290
56.060       307
56.080       320
56.100       233
56.120       273
56.140       337
56.160       290
56.180       300
56.200       257
56.220       313
56.240       273
56.260       310
56.280       280
56.300       300
56.320       210
56.340       277
56.360       317
56.380       283
56.400       313
56.420       340
56.440       247
56.460       327
56.480       320
56.500       357
56.520       343
56.540       303
56.560       257
56.580       227
56.600       210
56.620       383
56.640       287
56.660       320
56.680       253
56.700       317
56.720       293
56.740       233
56.760       287
56.780       300
56.800       277
56.820       290
56.840       287
56.860       257
56.880       287
56.900       253
56.920       283
56.940       307
56.960       343
56.980       297
57.000       327
57.020       320
57.040       270
57.060       320
57.080       313
57.100       320
57.120       330
57.140       307
57.160       283
57.180       290
57.200       313
57.220       273
57.240       363
57.260       270
57.280       347
57.300       330
57.320       270
57.340       317
57.360       287
57.380       240
57.400       287
57.420       237
57.440       270
57.460       297
57.480       307
57.500       260
57.520       250
57.540       297
57.560       237
57.580       260
57.600       250
57.620       297
57.640       277
57.660       257
57.680       283
57.700       240
57.720       180
57.740       230
57.760       270
57.780       253
57.800       273
57.820       263
57.840       250
57.860       257
57.880       243
57.900       230
57.920       277
57.940       170
57.960       250
57.980       300
58.000       247
58.020       253
58.040       310
58.060       297
58.080       247
58.100       230
58.120       257
58.140       300
58.160       233
58.180       297
58.200       217
58.220       277
58.240       217
58.260       213
58.280       227
58.300       283
58.320       277
58.340       247
58.360       243
58.380       237
58.400       237
58.420       213
58.440       250
58.460       250
58.480       203
58.500       183
58.520       283
58.540       177
58.560       310
58.580       277
58.600       217
58.620       213
58.640       230
58.660       220
58.680       233
58.700       193
58.720       270
58.740       207
58.760       257
58.780       237
58.800       283
58.820       233
58.840       203
58.860       250
58.880       287
58.900       247
58.920       210
58.940       223
58.960       163
58.980       267
59.000       257
59.020       267
59.040       280
59.060       250
59.080       233
59.100       240
59.120       253
59.140       217
59.160       223
59.180       257
59.200       273
59.220       280
59.240       287
59.260       293
59.280       243
59.300       230
59.320       227
59.340       240
59.360       200
59.380       303
59.400       273
59.420       273
59.440       300
59.460       267
59.480       233
59.500       257
59.520       227
59.540       293
59.560       247
59.580       230
59.600       250
59.620       280
59.640       300
59.660       263
59.680       287
59.700       260
59.720       300
59.740       247
59.760       270
59.780       247
59.800       313
59.820       233
59.840       237
59.860       233
59.880       277
59.900       233
59.920       230
59.940       267
59.960       253
59.980       250
60.000       203
