20.000         0
20.020         0
20.040         0
20.060        60
20.080       113
20.100       147
20.120       107
20.140        80
20.160        93
20.180       120
20.200        80
20.220        80
20.240        93
20.260       120
20.280       127
20.300       127
20.320        87
20.340        87
20.360        73
20.380        67
20.400        93
20.420       113
20.440       107
20.460       107
20.480        93
20.500        93
20.520        73
20.540       200
20.560        60
20.580       113
20.600       120
20.620       107
20.640       100
20.660        87
20.680       107
20.700        73
20.720       153
20.740       127
20.760       107
20.780        87
20.800        87
20.820       167
20.840        60
20.860       107
20.880       100
20.900        87
20.920       100
20.940        67
20.960       100
20.980        73
21.000       113
21.020       153
21.040        87
21.060       133
21.080       127
21.100        73
21.120        53
21.140       167
21.160        60
21.180       127
21.200       107
21.220        67
21.240       120
21.260       140
21.280        93
21.300       100
21.320       120
21.340       147
21.360        67
21.380       107
21.400       120
21.420       100
21.440        73
21.460        33
21.480       127
21.500        93
21.520       120
21.540       120
21.560        87
21.580       100
21.600       147
21.620        73
21.640       107
21.660       140
21.680       127
21.700       107
21.720        87
21.740       113
21.760        73
21.780       147
21.800        80
21.820       107
21.840        80
21.860        80
21.880        73
21.900       140
21.920       187
21.940       100
21.960       120
21.980       120
22.000       100
22.020       127
22.040        87
22.060        80
22.080        87
22.100        60
22.120       113
22.140        67
22.160        87
22.180       100
22.200       120
22.220        73
22.240       133
22.260        80
22.280        87
22.300        60
22.320       173
22.340        80
22.360        87
22.380       153
22.400        93
22.420        67
22.440        87
22.460        93
22.480       120
22.500        80
22.520        73
22.540       113
22.560       147
22.580        87
22.600        80
22.620       107
22.640        80
22.660        73
22.680       100
22.700       107
22.720        60
22.740        87
22.760       100
22.780       113
22.800       107
22.820        73
22.840       100
22.860        87
22.880        67
22.900        93
22.920       120
22.940        87
22.960       100
22.980        40
23.000       100
23.020        87
23.040        73
23.060       107
23.080        60
23.100        80
23.120       113
23.140        93
23.160        53
23.180        80
23.200        67
23.220        67
23.240        67
23.260        93
23.280       120
23.300        87
23.320       140
23.340        60
23.360        60
23.380       153
23.400       100
23.420        93
23.440       153
23.460        47
23.480       100
23.500        80
23.520        53
23.540       107
23.560        93
23.580        80
23.600       147
23.620        80
23.640       100
23.660        73
23.680       107
23.700        87
23.720        80
23.740       113
23.760       100
23.780        60
23.800        93
23.820       127
23.840       120
23.860        73
23.880       107
23.900        67
23.920        67
23.940        87
23.960       100
23.980       100
24.000       107
24.020        80
24.040        53
24.060       100
24.080        73
24.100        93
24.120       100
24.140       100
24.160        87
24.180        73
24.200       147
24.220        87
24.240        67
24.260        67
24.280        67
24.300        80
24.320        87
24.340        47
24.360        93
24.380        87
24.400        40
24.420        73
24.440        73
24.460        80
24.480       107
24.500       100
24.520        60
24.540        60
24.560       113
24.580       107
24.600        73
24.620        67
24.640        93
24.660        60
24.680        80
24.700        87
24.720       113
24.740        93
24.760        60
24.780       100
24.800        80
24.820       113
24.840       100
24.860        87
24.880        80
24.900        93
24.920        73
24.940        80
24.960        80
24.980        40
25.000       100
25.020        67
25.040        93
25.060       107
25.080        53
25.100        93
25.120        73
25.140       113
25.160       100
25.180       107
25.200        60
25.220       133
25.240        87
25.260        80
25.280        87
25.300        73
25.320        60
25.340        67
25.360        40
25.380        67
25.400        73
25.420        67
25.440        73
25.460        87
25.480       107
25.500        93
25.520       100
25.540       107
25.560       100
25.580       133
25.600        80
25.620       107
25.640        67
25.660        33
25.680        80
25.700       100
25.720        87
25.740        80
25.760        53
25.780        87
25.800        73
25.820        53
25.840        87
25.860       127
25.880        87
25.900        87
25.920        53
25.940        67
25.960        53
25.980        67
26.000       127
26.020        60
26.040        87
26.060       113
26.080        93
26.100        73
26.120        60
26.140        33
26.160        53
26.180        93
26.200        73
26.220        87
26.240        80
26.260       107
26.280        87
26.300        73
26.320        47
26.340        80
26.360        67
26.380        87
26.400        40
26.420        53
26.440        93
26.460       120
26.480        47
26.500        67
26.520        73
26.540        67
26.560        40
26.580        47
26.600       100
26.620        47
26.640        27
26.660        40
26.680        33
26.700        60
26.720        67
26.740        87
26.760        73
26.780        40
26.800        80
26.820        60
26.840        53
26.860        67
26.880        60
26.900        87
26.920        73
26.940        60
26.960        60
26.980        47
27.000        73
27.020       107
27.040        80
27.060        87
27.080        73
27.100        60
27.120        60
27.140        60
27.160        73
27.180        67
27.200        80
27.220        67
27.240        87
27.260       113
27.280        33
27.300        73
27.320        80
27.340        73
27.360        53
27.380        87
27.400        47
27.420        27
27.440       113
27.460        47
27.480       100
27.500        67
27.520        53
27.540        67
27.560        80
27.580        93
27.600        67
27.620        47
27.640        73
27.660       100
27.680        87
27.700        60
27.720        80
27.740        93
27.760        60
27.780        27
27.800        80
27.820        93
27.840        93
27.860        67
27.880        40
27.900        80
27.920        53
27.940        53
27.960        27
27.980        73
28.000        20
28.020        93
28.040        40
28.060        67
28.080       113
28.100        53
28.120        33
28.140        67
28.160        67
28.180        67
28.200        87
28.220        80
28.240        60
28.260        60
28.280        67
28.300        53
28.320        67
28.340        60
28.360        20
28.380        87
28.400        40
28.420        60
28.440        60
28.460        53
28.480       100
28.500        60
28.520        87
28.540        73
28.560        93
28.580        67
28.600        53
28.620        53
28.640        73
28.660        53
28.680        67
28.700        47
28.720        53
28.740        33
28.760        60
28.780        73
28.800        33
28.820        87
28.840        53
28.860        40
28.880        53
28.900        87
28.920        33
28.940        73
28.960        47
28.980        27
29.000        73
29.020        47
29.040        27
29.060        60
29.080        87
29.100        80
29.120        60
29.140        40
29.160        60
29.180        33
29.200        13
29.220        60
29.240        80
29.260        73
29.280        47
29.300        40
29.320        67
29.340        27
29.360        73
29.380        53
29.400        27
29.420        27
29.440        67
29.460        60
29.480        47
29.500        27
29.520        53
29.540        60
29.560        73
29.580        67
29.600        33
29.620        53
29.640        47
29.660        53
29.680        87
29.700        40
29.720        60
29.740        47
29.760        87
29.780        40
29.800       100
29.820        60
29.840        60
29.860        53
29.880        27
29.900        80
29.920        53
29.940        93
29.960        47
29.980        47
30.000        47
30.020        27
30.040        47
30.060        80
30.080        60
30.100        60
30.120        47
30.140        60
30.160        67
30.180        47
30.200        67
30.220        33
30.240        73
30.260        40
30.280        47
30.300        60
30.320        47
30.340        67
30.360        60
30.380        73
30.400        53
30.420        60
30.440        47
30.460        47
30.480        53
30.500        33
30.520        87
30.540        53
30.560        33
30.580        33
30.600        60
30.620        60
30.640        87
30.660        53
30.680        60
30.700        60
30.720        93
30.740        73
30.760       107
30.780        93
30.800       100
30.820        80
30.840       127
30.860       133
30.880       140
30.900       127
30.920        93
30.940       127
30.960       173
30.980        93
31.000       140
31.020        73
31.040       127
31.060        93
31.080       100
31.100        53
31.120       100
31.140        47
31.160        93
31.180        53
31.200        73
31.220        60
31.240        27
31.260        60
31.280        47
31.300        73
31.320        40
31.340        40
31.360        33
31.380        47
31.400        73
31.420        67
31.440        53
31.460        60
31.480        33
31.500        67
31.520        93
31.540        60
31.560        53
31.580        53
31.600        87
31.620        47
31.640        73
31.660        40
31.680        60
31.700        67
31.720        47
31.740        27
31.760        33
31.780        47
31.800        67
31.820        33
31.840        53
31.860        67
31.880        47
31.900        73
31.920        33
31.940        47
31.960        47
31.980        33
32.000        47
32.020        27
32.040        47
32.060        73
32.080        47
32.100        80
32.120        20
32.140        40
32.160        80
32.180        40
32.200        67
32.220        47
32.240        53
32.260        80
32.280        93
32.300        13
32.320        40
32.340        53
32.360       107
32.380        27
32.400        53
32.420        20
32.440        27
32.460        27
32.480        40
32.500        40
32.520        60
32.540        40
32.560        33
32.580        67
32.600        67
32.620        60
32.640        60
32.660        47
32.680        60
32.700        60
32.720        53
32.740        60
32.760        40
32.780        47
32.800        60
32.820        87
32.840        53
32.860        60
32.880        13
32.900        67
32.920        40
32.940        47
32.960        13
32.980        73
33.000        47
33.020        33
33.040        53
33.060        67
33.080        40
33.100        87
33.120        53
33.140        80
33.160        20
33.180        40
33.200        40
33.220        40
33.240        67
33.260        60
33.280        40
33.300        40
33.320        40
33.340        33
33.360        20
33.380        80
33.400        53
33.420        20
33.440        33
33.460        67
33.480        40
33.500        33
33.520        47
33.540        67
33.560        40
33.580        93
33.600        47
33.620        53
33.640        67
33.660        40
33.680        40
33.700        20
33.720        87
33.740        47
33.760        80
33.780        87
33.800        47
33.820        40
33.840        60
33.860        40
33.880        33
33.900         7
33.920        47
33.940        80
33.960        60
33.980        20
34.000        47
34.020        93
34.040       100
34.060        47
34.080        53
34.100        53
34.120        67
34.140        73
34.160        60
34.180        53
34.200        27
34.220        60
34.240        53
34.260        60
34.280        53
34.300       100
34.320        53
34.340        93
34.360       133
34.380       160
34.400       120
34.420       220
34.440       213
34.460       340
34.480       313
34.500       327
34.520       220
34.540       127
34.560       207
34.580       127
34.600       127
34.620        67
34.640       113
34.660        93
34.680       107
34.700        73
34.720       107
34.740       107
34.760        60
34.780        73
34.800        93
34.820        47
34.840        80
34.860        80
34.880        87
34.900        67
34.920        40
34.940        40
34.960        87
34.980        73
35.000        73
35.020        67
35.040        60
35.060       113
35.080        67
35.100        73
35.120       160
35.140       127
35.160       213
35.180       167
35.200       180
35.220       100
35.240        93
35.260       167
35.280       133
35.300       113
35.320        53
35.340        87
35.360        60
35.380        53
35.400        80
35.420        20
35.440        33
35.460        13
35.480        53
35.500        60
35.520        53
35.540        27
35.560        60
35.580        60
35.600       100
35.620       127
35.640        13
35.660        47
35.680        40
35.700        73
35.720        60
35.740        27
35.760        40
35.780        47
35.800        60
35.820        47
35.840        87
35.860        53
35.880        60
35.900        47
35.920        33
35.940        60
35.960        40
35.980        53
36.000        47
36.020        67
36.040        53
36.060        27
36.080        53
36.100        67
36.120        60
36.140        40
36.160        47
36.180        47
36.200        73
36.220        60
36.240        47
36.260        40
36.280        53
36.300        73
36.320        60
36.340        40
36.360        40
36.380       120
36.400        40
36.420        80
36.440        40
36.460       113
36.480        93
36.500        53
36.520       120
36.540        53
36.560       113
36.580       107
36.600       120
36.620       120
36.640        73
36.660       113
36.680        53
36.700       120
36.720        67
36.740        60
36.760        87
36.780       140
36.800        60
36.820        87
36.840       107
36.860        93
36.880       160
36.900       133
36.920       120
36.940       227
36.960       160
36.980       213
37.000       180
37.020       213
37.040       193
37.060       227
37.080       267
37.100       233
37.120       300
37.140       253
37.160       280
37.180       293
37.200       160
37.220       293
37.240       233
37.260       287
37.280       307
37.300       193
37.320       273
37.340       267
37.360       293
37.380       247
37.400       253
37.420       360
37.440       320
37.460       300
37.480       260
37.500       320
37.520       407
37.540       307
37.560       240
37.580       400
37.600       327
37.620       333
37.640       340
37.660       307
37.680       353
37.700       526
37.720       440
37.740       407
37.760       626
37.780       493
37.800       533
37.820       600
37.840       720
37.860       580
37.880       793
37.900       946
37.920       846
37.940      1240
37.960      1333
37.980      1579
38.000      1766
38.020      1999
38.040      2472
38.060      3259
38.080      3892
38.100      4512
38.120      5564
38.140      7044
38.160      9210
38.180     11955
38.200     16720
38.220     23037
38.240     30181
38.260     36285
38.280     40617
38.300     42430
38.320     41537
38.340     38005
38.360     36079
38.380     32167
38.400     28555
38.420     24004
38.440     19679
38.460     14627
38.480     11302
38.500      8523
38.520      7064
38.540      5225
38.560      3965
38.580      3352
38.600      2419
38.620      2219
38.640      2152
38.660      1579
38.680      1613
38.700      1279
38.720      1126
38.740       960
38.760      1046
38.780       900
38.800       926
38.820       853
38.840       713
38.860       666
38.880       506
38.900       673
38.920       653
38.940       460
38.960       560
38.980       446
39.000       387
39.020       446
39.040       393
39.060       387
39.080       407
39.100       333
39.120       460
39.140       367
39.160       313
39.180       413
39.200       267
39.220       353
39.240       367
39.260       287
39.280       327
39.300       220
39.320       273
39.340       240
39.360       307
39.380       267
39.400       253
39.420       247
39.440       273
39.460       247
39.480       227
39.500       293
39.520       227
39.540       213
39.560       287
39.580       220
39.600       267
39.620       193
39.640       147
39.660       193
39.680       193
39.700       153
39.720       227
39.740       227
39.760       160
39.780       260
39.800       187
39.820       193
39.840       207
39.860       253
39.880       293
39.900       200
39.920       247
39.940       187
39.960       180
39.980       220
40.000       173
40.020       180
40.040       193
40.060       127
40.080       113
40.100       140
40.120       253
40.140       100
40.160       160
40.180       207
40.200       147
40.220       227
40.240       147
40.260       180
40.280       160
40.300       153
40.320       140
40.340       240
40.360       153
40.380       127
40.400       167
40.420       147
40.440       167
40.460       120
40.480       120
40.500       167
40.520       167
40.540       140
40.560       147
40.580       153
40.600       113
40.620       133
40.640       160
40.660       120
40.680       107
40.700       120
40.720       113
40.740       187
40.760       107
40.780       113
40.800       140
40.820       113
40.840       133
40.860       127
40.880       113
40.900       113
40.920       153
40.940       147
40.960       153
40.980       147
41.000       107
41.020       113
41.040       127
41.060       107
41.080       140
41.100       107
41.120       133
41.140       153
41.160       100
41.180        87
41.200       100
41.220        80
41.240       127
41.260       120
41.280       113
41.300       127
41.320       167
41.340       153
41.360       153
41.380       140
41.400       153
41.420       140
41.440       167
41.460        67
41.480       133
41.500       127
41.520       167
41.540        93
41.560       187
41.580        93
41.600       133
41.620       173
41.640       173
41.660       287
41.680       213
41.700       260
41.720       207
41.740       160
41.760       233
41.780       207
41.800       247
41.820       153
41.840       173
41.860       140
41.880        60
41.900       107
41.920       120
41.940        47
41.960       113
41.980        87
42.000       153
42.020       127
42.040       100
42.060        87
42.080       107
42.100        87
42.120       140
42.140       107
42.160       113
42.180       167
42.200        67
42.220        87
42.240       107
42.260       107
42.280       160
42.300        93
42.320        93
42.340       120
42.360       180
42.380        80
42.400       133
42.420       113
42.440       100
42.460       113
42.480       133
42.500        87
42.520       147
42.540        93
42.560       107
42.580       133
42.600        93
42.620       120
42.640        67
42.660       127
42.680        87
42.700       113
42.720        93
42.740        40
42.760        93
42.780       180
42.800       113
42.820       140
42.840       127
42.860        87
42.880       140
42.900       107
42.920       180
42.940        73
42.960       107
42.980       133
43.000       140
43.020       113
43.040       120
43.060       113
43.080       107
43.100        80
43.120       107
43.140        93
43.160       147
43.180       133
43.200       113
43.220       107
43.240       100
43.260       107
43.280        93
43.300       113
43.320       120
43.340       113
43.360       107
43.380        93
43.400       140
43.420       120
43.440       140
43.460       100
43.480       100
43.500       140
43.520        80
43.540       160
43.560       113
43.580       120
43.600       120
43.620        80
43.640        93
43.660       100
43.680        67
43.700        80
43.720        73
43.740        93
43.760        60
43.780       133
43.800        40
43.820        67
43.840       100
43.860       100
43.880       100
43.900        87
43.920       107
43.940       100
43.960        67
43.980        87
44.000        80
44.020        53
44.040        53
44.060       120
44.080        87
44.100        93
44.120        80
44.140       133
44.160       100
44.180        60
44.200        67
44.220       120
44.240       127
44.260        67
44.280       100
44.300       113
44.320        93
44.340        73
44.360        80
44.380       100
44.400       100
44.420        80
44.440       120
44.460       100
44.480       120
44.500        87
44.520        93
44.540        93
44.560       113
44.580       120
44.600       100
44.620       107
44.640        67
44.660       113
44.680       107
44.700       127
44.720       127
44.740        67
44.760       100
44.780        93
44.800       147
44.820        60
44.840        67
44.860       107
44.880       113
44.900        80
44.920       147
44.940        87
44.960        87
44.980       133
45.000        67
45.020        87
45.040        87
45.060       120
45.080        60
45.100        53
45.120       100
45.140        93
45.160        53
45.180        67
45.200       120
45.220        73
45.240        73
45.260       120
45.280        87
45.300        60
45.320       127
45.340        73
45.360        93
45.380       100
45.400        93
45.420        53
45.440        67
45.460        80
45.480        67
45.500        40
45.520        67
45.540        87
45.560        33
45.580        60
45.600        93
45.620        73
45.640       107
45.660        73
45.680       100
45.700        53
45.720       113
45.740        60
45.760        67
45.780        80
45.800        53
45.820       107
45.840        73
45.860        80
45.880        67
45.900        80
45.920        80
45.940        73
45.960        67
45.980        73
46.000        73
46.020        20
46.040        40
46.060        47
46.080        73
46.100       100
46.120        40
46.140        93
46.160        47
46.180        67
46.200        67
46.220        47
46.240        80
46.260       127
46.280        87
46.300        80
46.320        53
46.340        53
46.360        73
46.380        87
46.400        47
46.420       100
46.440        20
46.460        67
46.480        67
46.500        40
46.520       107
46.540        93
46.560        87
46.580       113
46.600        87
46.620        47
46.640        67
46.660        47
46.680        60
46.700       107
46.720        87
46.740        60
46.760        40
46.780        67
46.800        93
46.820        67
46.840       100
46.860        67
46.880        87
46.900        53
46.920        87
46.940        33
46.960       113
46.980        73
47.000        67
47.020        53
47.040        87
47.060        40
47.080        53
47.100       113
47.120       107
47.140        67
47.160        60
47.180       100
47.200        67
47.220       113
47.240        73
47.260        87
47.280        40
47.300        80
47.320        33
47.340        47
47.360        93
47.380       127
47.400        87
47.420        73
47.440        67
47.460        80
47.480        73
47.500        60
47.520        47
47.540        53
47.560        60
47.580       113
47.600        47
47.620        80
47.640        60
47.660        53
47.680        80
47.700        27
47.720        73
47.740        40
47.760        47
47.780        87
47.800        80
47.820        33
47.840        67
47.860        40
47.880        40
47.900        67
47.920        67
47.940        67
47.960        67
47.980        87
48.000        60
48.020        33
48.040        20
48.060        40
48.080        67
48.100        80
48.120        33
48.140        67
48.160        53
48.180        60
48.200        40
48.220        27
48.240        87
48.260        93
48.280        87
48.300        60
48.320        47
48.340        67
48.360        60
48.380        87
48.400        40
48.420        53
48.440        20
48.460        27
48.480        73
48.500        67
48.520        47
48.540        60
48.560        93
48.580        40
48.600        80
48.620        67
48.640        33
48.660        73
48.680        60
48.700        20
48.720        93
48.740        73
48.760       100
48.780        73
48.800        73
48.820        40
48.840        40
48.860        53
48.880        60
48.900        47
48.920        33
48.940        47
48.960        47
48.980        53
49.000        47
49.020        33
49.040        60
49.060        67
49.080       100
49.100        40
49.120        53
49.140        53
49.160        67
49.180        60
49.200        80
49.220        53
49.240        60
49.260        47
49.280        33
49.300        80
49.320        80
49.340        53
49.360        53
49.380        53
49.400        47
49.420        87
49.440        60
49.460        60
49.480        60
49.500        47
49.520        60
49.540        33
49.560        73
49.580        53
49.600        73
49.620        67
49.640        33
49.660        53
49.680        40
49.700        47
49.720        33
49.740        73
49.760        40
49.780        27
49.800        40
49.820        60
49.840        33
49.860        60
49.880        80
49.900        47
49.920        87
49.940        67
49.960        53
49.980        60
50.000        40
50.020        40
50.040        53
50.060        47
50.080        67
50.100        53
50.120        40
50.140        40
50.160        40
50.180        53
50.200        67
50.220        60
50.240        27
50.260        40
50.280        53
50.300        47
50.320        53
50.340        67
50.360        60
50.380        93
50.400        53
50.420        40
50.440        40
50.460        53
50.480        33
50.500        20
50.520        53
50.540        53
50.560        73
50.580        47
50.600        20
50.620        53
50.640        33
50.660        47
50.680        27
50.700        67
50.720        80
50.740        53
50.760        33
50.780        47
50.800        60
50.820        53
50.840        27
50.860        60
50.880        67
50.900        20
50.920        80
50.940        40
50.960        53
50.980        27
51.000        53
51.020        47
51.040        67
51.060        53
51.080        47
51.100        53
51.120        47
51.140        53
51.160        47
51.180        60
51.200        53
51.220        47
51.240        47
51.260        20
51.280        33
51.300        53
51.320        47
51.340        20
51.360        53
51.380        53
51.400        20
51.420        40
51.440        47
51.460        27
51.480        53
51.500        80
51.520        60
51.540        27
51.560        53
51.580        40
51.600        40
51.620        53
51.640        53
51.660        53
51.680        27
51.700        40
51.720        60
51.740        47
51.760        67
51.780        27
51.800        40
51.820        13
51.840        47
51.860        40
51.880        67
51.900        40
51.920        67
51.940        87
51.960        53
51.980        60
52.000        47
52.020        27
52.040        53
52.060        27
52.080        33
52.100        73
52.120        33
52.140         7
52.160        33
52.180        40
52.200        53
52.220        93
52.240        40
52.260        53
52.280        53
52.300        47
52.320        40
52.340        27
52.360        53
52.380        40
52.400        40
52.420        27
52.440        40
52.460        60
52.480        47
52.500        40
52.520        40
52.540        67
52.560        53
52.580        53
52.600        53
52.620        33
52.640        47
52.660        53
52.680        53
52.700        73
52.720        53
52.740        40
52.760        40
52.780        13
52.800        60
52.820        67
52.840        60
52.860        27
52.880        53
52.900        33
52.920        47
52.940        27
52.960        20
52.980        40
53.000        67
53.020        13
53.040        40
53.060        20
53.080        27
53.100        40
53.120         7
53.140        27
53.160        47
53.180        67
53.200        27
53.220        33
53.240        60
53.260        47
53.280        33
53.300        73
53.320        33
53.340        27
53.360        27
53.380        33
53.400        33
53.420        47
53.440        20
53.460        40
53.480        40
53.500        33
53.520        47
53.540        33
53.560        60
53.580        33
53.600        53
53.620        40
53.640        33
53.660        60
53.680        67
53.700        33
53.720        33
53.740        80
53.760        40
53.780        20
53.800        80
53.820        40
53.840        27
53.860        53
53.880        33
53.900        33
53.920        40
53.940        47
53.960        60
53.980        40
54.000        40
54.020        40
54.040        47
54.060        40
54.080        13
54.100        40
54.120        20
54.140        47
54.160        93
54.180        47
54.200        40
54.220        27
54.240        47
54.260        20
54.280        40
54.300        33
54.320        20
54.340        40
54.360        33
54.380        27
54.400        73
54.420        47
54.440        53
54.460        60
54.480        40
54.500        33
54.520        67
54.540        27
54.560        53
54.580        53
54.600        67
54.620        47
54.640        47
54.660        60
54.680        47
54.700        40
54.720        40
54.740        60
54.760        33
54.780        33
54.800        87
54.820        80
54.840        60
54.860        73
54.880        47
54.900        80
54.920        47
54.940        40
54.960        47
54.980        80
55.000        20
55.020        53
55.040       113
55.060        33
55.080        53
55.100        53
55.120        80
55.140        80
55.160        73
55.180        53
55.200        73
55.220        47
55.240        80
55.260        53
55.280        80
55.300        47
55.320        27
55.340        60
55.360        47
55.380        40
55.400        20
55.420        60
55.440        67
55.460        20
55.480        27
55.500        53
55.520        33
55.540        47
55.560        53
55.580        73
55.600        47
55.620        27
55.640        40
55.660        40
55.680        20
55.700        47
55.720        27
55.740        47
55.760        40
55.780        27
55.800        33
55.820        47
55.840        40
55.860        20
55.880        40
55.900        53
55.920        20
55.940        40
55.960        40
55.980         7
56.000        53
56.020        40
56.040        33
56.060        80
56.080        33
56.100        47
56.120        33
56.140        40
56.160        40
56.180        33
56.200        40
56.220         7
56.240        47
56.260        27
56.280        60
56.300        20
56.320        33
56.340        27
56.360        53
56.380        93
56.400        20
56.420        33
56.440        53
56.460         0
56.480        47
56.500        60
56.520        27
56.540       100
56.560        20
56.580        33
56.600        40
56.620        40
56.640        13
56.660        20
56.680        60
56.700        60
56.720        47
56.740        33
56.760        53
56.780        47
56.800        40
56.820        47
56.840        40
56.860        40
56.880        40
56.900        53
56.920        53
56.940        67
56.960        33
56.980        87
57.000        27
57.020        20
57.040        33
57.060        20
57.080        33
57.100        27
57.120        13
57.140        53
57.160        40
57.180        87
57.200        33
57.220        33
57.240        33
57.260        60
57.280        13
57.300        20
57.320        33
57.340        80
57.360        47
57.380        53
57.400        53
57.420        60
57.440        60
57.460        47
57.480       120
57.500       140
57.520       100
57.540        93
57.560        73
57.580        87
57.600        73
57.620        53
57.640        67
57.660        53
57.680        73
57.700        87
57.720        33
57.740        27
57.760        27
57.780        40
57.800        53
57.820        13
57.840        33
57.860        47
57.880        40
57.900        47
57.920        47
57.940        20
57.960        40
57.980        27
58.000         7
58.020        27
58.040        47
58.060        40
58.080        33
58.100        40
58.120        53
58.140        33
58.160         7
58.180        53
58.200        40
58.220        40
58.240        20
58.260        33
58.280        47
58.300        20
58.320        33
58.340        47
58.360        47
58.380        33
58.400        27
58.420        13
58.440        27
58.460        13
58.480        27
58.500        53
58.520        67
58.540        53
58.560         7
58.580        33
58.600        33
58.620        47
58.640        33
58.660        27
58.680        60
58.700        33
58.720        13
58.740        13
58.760        20
58.780        40
58.800        33
58.820         7
58.840        20
58.860        27
58.880        27
58.900        60
58.920        40
58.940        13
58.960        47
58.980        60
59.000        13
59.020        13
59.040        27
59.060        20
59.080        47
59.100        27
59.120        40
59.140        33
59.160        47
59.180        20
59.200        27
59.220        47
59.240        40
59.260        27
59.280        47
59.300        20
59.320        33
59.340        47
59.360        40
59.380        27
59.400        53
59.420        27
59.440        47
59.460        47
59.480        47
59.500        20
59.520        13
59.540        27
59.560        33
59.580        27
59.600        40
59.620        13
59.640        60
59.660        87
59.680        20
59.700        53
59.720        20
59.740        40
59.760        33
59.780        27
59.800        40
59.820        27
59.840        13
59.860        20
59.880        20
59.900        53
59.920        47
59.940         7
59.960        53
59.980        20
60.000        40
