20.000         0
20.020         0
20.040         0
20.060         0
20.080         3
20.100         0
20.120         0
20.140         0
20.160         0
20.180         0
20.200         0
20.220         3
20.240       227
20.260       270
20.280       280
20.300       257
20.320       223
20.340       233
20.360       273
20.380       290
20.400       243
20.420       300
20.440       227
20.460       297
20.480       313
20.500       273
20.520       297
20.540       247
20.560       253
20.580       270
20.600       287
20.620       210
20.640       260
20.660       270
20.680       257
20.700       257
20.720       290
20.740       230
20.760       250
20.780       280
20.800       240
20.820       257
20.840       253
20.860       277
20.880       327
20.900       243
20.920       210
20.940       217
20.960       280
20.980       270
21.000       290
21.020       320
21.040       237
21.060       313
21.080       280
21.100       293
21.120       280
21.140       260
21.160       297
21.180       297
21.200       217
21.220       267
21.240       277
21.260       300
21.280       283
21.300       313
21.320       310
21.340       300
21.360       327
21.380       293
21.400       290
21.420       287
21.440       273
21.460       293
21.480       253
21.500       323
21.520       323
21.540       243
21.560       310
21.580       257
21.600       313
21.620       280
21.640       297
21.660       220
21.680       267
21.700       277
21.720       323
21.740       267
21.760       260
21.780       277
21.800       350
21.820       310
21.840       313
21.860       320
21.880       353
21.900       377
21.920       390
21.940       410
21.960       210
21.980       320
22.000       307
22.020       257
22.040       347
22.060       307
22.080       203
22.100       250
22.120       223
22.140       260
22.160       230
22.180       230
22.200       270
22.220       277
22.240       330
22.260       257
22.280       310
22.300       283
22.320       257
22.340       273
22.360       310
22.380       340
22.400       370
22.420       413
22.440       353
22.460       370
22.480       370
22.500       350
22.520       310
22.540       267
22.560       267
22.580       287
22.600       277
22.620       273
22.640       243
22.660       230
22.680       253
22.700       347
22.720       300
22.740       257
22.760       257
22.780       273
22.800       173
22.820       217
22.840       200
22.860       200
22.880       223
22.900       243
22.920       270
22.940       230
22.960       257
22.980       213
23.000       230
23.020       257
23.040       273
23.060       273
23.080       260
23.100       267
23.120       233
23.140       223
23.160       243
23.180       263
23.200       233
23.220       197
23.240       177
23.260       210
23.280       250
23.300       153
23.320       187
23.340       187
23.360       220
23.380       237
23.400       227
23.420       207
23.440       223
23.460       180
23.480       323
23.500       247
23.520       237
23.540       240
23.560       217
23.580       210
23.600       247
23.620       210
23.640       280
23.660       207
23.680       190
23.700       237
23.720       250
23.740       237
23.760       230
23.780       207
23.800       240
23.820       283
23.840       203
23.860       207
23.880       203
23.900       200
23.920       193
23.940       197
23.960       203
23.980       250
24.000       243
24.020       210
24.040       210
24.060       167
24.080       230
24.100       230
24.120       217
24.140       207
24.160       223
24.180       187
24.200       173
24.220       167
24.240       200
24.260       187
24.280       220
24.300       177
24.320       183
24.340       203
24.360       223
24.380       213
24.400       177
24.420       137
24.440       210
24.460       197
24.480       240
24.500       200
24.520       210
24.540       210
24.560       253
24.580       207
24.600       180
24.620       230
24.640       217
24.660       247
24.680       237
24.700       227
24.720       193
24.740       277
24.760       250
24.780       243
24.800       257
24.820       230
24.840       260
24.860       280
24.880       223
24.900       213
24.920       240
24.940       227
24.960       283
24.980       237
25.000       167
25.020       217
25.040       213
25.060       167
25.080       177
25.100       160
25.120       193
25.140       170
25.160       193
25.180       163
25.200       173
25.220       260
25.240       170
25.260       197
25.280       263
25.300       180
25.320       200
25.340       220
25.360       180
25.380       200
25.400       210
25.420       147
25.440       167
25.460       137
25.480       157
25.500       150
25.520       163
25.540       190
25.560       150
25.580       197
25.600       183
25.620       170
25.640       170
25.660       123
25.680       180
25.700       200
25.720       130
25.740       183
25.760       183
25.780       193
25.800       183
25.820       220
25.840       147
25.860       197
25.880       177
25.900       187
25.920       190
25.940       197
25.960       150
25.980       173
26.000       203
26.020       193
26.040       183
26.060       177
26.080       187
26.100       160
26.120       157
26.140       173
26.160       180
26.180       190
26.200       120
26.220       170
26.240       193
26.260       173
26.280       173
26.300       167
26.320       153
26.340       153
26.360       153
26.380       173
26.400       187
26.420       157
26.440       153
26.460       157
26.480       150
26.500       237
26.520       187
26.540       210
26.560       207
26.580       187
26.600       173
26.620       230
26.640       203
26.660       220
26.680       210
26.700       223
26.720       177
26.740       160
26.760       200
26.780       117
26.800       173
26.820       173
26.840       183
26.860       150
26.880       163
26.900       170
26.920       157
26.940       133
26.960       163
26.980       170
27.000       187
27.020       123
27.040       130
27.060       147
27.080       147
27.100       167
27.120       143
27.140       160
27.160        97
27.180       120
27.200       130
27.220       187
27.240       130
27.260       160
27.280       120
27.300       160
27.320       137
27.340       140
27.360       137
27.380       173
27.400       190
27.420       133
27.440       140
27.460       120
27.480       137
27.500       133
27.520       140
27.540       107
27.560       120
27.580       140
27.600       127
27.620       133
27.640       103
27.660       123
27.680       147
27.700       130
27.720       120
27.740       137
27.760       117
27.780       120
27.800       117
27.820       137
27.840       163
27.860       193
27.880       123
27.900       160
27.920       157
27.940       123
27.960       120
27.980       107
28.000       113
28.020       120
28.040       170
28.060       167
28.080       143
28.100       120
28.120       170
28.140       123
28.160       160
28.180       130
28.200        90
28.220       130
28.240       113
28.260       130
28.280       140
28.300       153
28.320       183
28.340        87
28.360       187
28.380       127
28.400       150
28.420       100
28.440       140
28.460       150
28.480       150
28.500       127
28.520       123
28.540       137
28.560        83
28.580       130
28.600       140
28.620       123
28.640       143
28.660        83
28.680       167
28.700       153
28.720       133
28.740       157
28.760       120
28.780       110
28.800       133
28.820       100
28.840       120
28.860       167
28.880       137
28.900       173
28.920       110
28.940       120
28.960       153
28.980       150
29.000       147
29.020       117
29.040       163
29.060       137
29.080       163
29.100       203
29.120       173
29.140       177
29.160       200
29.180       217
29.200       230
29.220       253
29.240       277
29.260       283
29.280       380
29.300       343
29.320       360
29.340       350
29.360       393
29.380       403
29.400       307
29.420       270
29.440       287
29.460       187
29.480       203
29.500       173
29.520       150
29.540       143
29.560       157
29.580       110
29.600       153
29.620       143
29.640        93
29.660       123
29.680       123
29.700       113
29.720       100
29.740       130
29.760       130
29.780       107
29.800       117
29.820       137
29.840       130
29.860       133
29.880       110
29.900       110
29.920       133
29.940        97
29.960        97
29.980       117
30.000        97
30.020       110
30.040       117
30.060       150
30.080       137
30.100       113
30.120       147
30.140       143
30.160       167
30.180       133
30.200       147
30.220       160
30.240       160
30.260       107
30.280       160
30.300       197
30.320       127
30.340       107
30.360       140
30.380       130
30.400       100
30.420       120
30.440       107
30.460       147
30.480       120
30.500       127
30.520       123
30.540       117
30.560        97
30.580       107
30.600       137
30.620       117
30.640       143
30.660       147
30.680       107
30.700        93
30.720       113
30.740       173
30.760       120
30.780       147
30.800       150
30.820       183
30.840       177
30.860       160
30.880       170
30.900       170
30.920       127
30.940       137
30.960       160
30.980       163
31.000        93
31.020       123
31.040       163
31.060       123
31.080       150
31.100       107
31.120       123
31.140       140
31.160       123
31.180        97
31.200       123
31.220       123
31.240       157
31.260       153
31.280       113
31.300       107
31.320       110
31.340       130
31.360       190
31.380       113
31.400       140
31.420       147
31.440       163
31.460       130
31.480       153
31.500        97
31.520       103
31.540       103
31.560       140
31.580       150
31.600       133
31.620       160
31.640       157
31.660       160
31.680       130
31.700       103
31.720       130
31.740       127
31.760       147
31.780       177
31.800       187
31.820       220
31.840       223
31.860       230
31.880       330
31.900       287
31.920       340
31.940       380
31.960       337
31.980       453
32.000       333
32.020       403
32.040       353
32.060       473
32.080       596
32.100       983
32.120      1833
32.140      2619
32.160      2556
32.180      1439
32.200       613
32.220       380
32.240       310
32.260       293
32.280       297
32.300       353
32.320       267
32.340       240
32.360       280
32.380       223
32.400       220
32.420       233
32.440       233
32.460       217
32.480       237
32.500       250
32.520       237
32.540       270
32.560       223
32.580       180
32.600       217
32.620       247
32.640       213
32.660       213
32.680       213
32.700       203
32.720       233
32.740       197
32.760       300
32.780       217
32.800       170
32.820       237
32.840       137
32.860       173
32.880       173
32.900       150
32.920       167
32.940       187
32.960       197
32.980       173
33.000       193
33.020       183
33.040       193
33.060       153
33.080       180
33.100       190
33.120       177
33.140       183
33.160       173
33.180       183
33.200       180
33.220       170
33.240       157
33.260       160
33.280       183
33.300       177
33.320       113
33.340       140
33.360       213
33.380       130
33.400       177
33.420       143
33.440       117
33.460       157
33.480       140
33.500       157
33.520       157
33.540       157
33.560       190
33.580       217
33.600       153
33.620       180
33.640       190
33.660       167
33.680       200
33.700       157
33.720       170
33.740       170
33.760       210
33.780       190
33.800       207
33.820       203
33.840       187
33.860       247
33.880       197
33.900       260
33.920       220
33.940       233
33.960       290
33.980       233
34.000       247
34.020       203
34.040       250
34.060       213
34.080       217
34.100       207
34.120       193
34.140       223
34.160       147
34.180       220
34.200       217
34.220       230
34.240       253
34.260       303
34.280       350
34.300       307
34.320       303
34.340       390
34.360       426
34.380       516
34.400       880
34.420       963
34.440      1413
34.460      1666
34.480      1539
34.500      1739
34.520      1636
34.540      1676
34.560      1769
34.580      1713
34.600      1749
34.620      1739
34.640      1796
34.660      1803
34.680      1736
34.700      1796
34.720      1803
34.740      1916
34.760      1716
34.780      1763
34.800      1693
34.820      1749
34.840      1903
34.860      1783
34.880      2003
34.900      1696
34.920      1933
34.940      2059
34.960      1893
34.980      1866
35.000      1886
35.020      1973
35.040      1873
35.060      1943
35.080      2056
35.100      2169
35.120      2249
35.140      2339
35.160      2339
35.180      2462
35.200      2379
35.220      2589
35.240      2925
35.260      2965
35.280      3132
35.300      3782
35.320      4488
35.340      5861
35.360      7884
35.380     10789
35.400     13988
35.420     19869
35.440     26316
35.460     32664
35.480     39884
35.500     45578
35.520     48461
35.540     51729
35.560     56537
35.580     72271
35.600    135822
35.620    241957
35.640    294386
35.660    299823
35.680    300460
35.700    270059
35.720    231374
35.740    249424
35.760    264954
35.780    229981
35.800    121491
35.820     42243
35.840     21691
35.860     14571
35.880     10879
35.900      9083
35.920      7630
35.940      6437
35.960      5751
35.980      5268
36.000      4815
36.020      4515
36.040      4128
36.060      3845
36.080      3835
36.100      3739
36.120      3449
36.140      3305
36.160      3315
36.180      3002
36.200      3072
36.220      2839
36.240      2952
36.260      2649
36.280      2802
36.300      2616
36.320      2572
36.340      2552
36.360      2356
36.380      2346
36.400      2516
36.420      2452
36.440      2286
36.460      2179
36.480      2309
36.500      2376
36.520      2086
36.540      2086
36.560      2196
36.580      2159
36.600      1949
36.620      1929
36.640      2023
36.660      1786
36.680      2013
36.700      1959
36.720      1973
36.740      1903
36.760      1849
36.780      1876
36.800      1879
36.820      1826
36.840      1889
36.860      1813
36.880      1883
36.900      1886
36.920      1813
36.940      1589
36.960      1626
36.980      1783
37.000      1663
37.020      1583
37.040      1476
37.060      1636
37.080      1616
37.100      1786
37.120      1703
37.140      1726
37.160      1699
37.180      1666
37.200      1563
37.220      1563
37.240      1536
37.260      1556
37.280      1606
37.300      1533
37.320      1503
37.340      1569
37.360      1549
37.380      1583
37.400      1559
37.420      1666
37.440      1609
37.460      1649
37.480      1583
37.500      1526
37.520      1503
37.540      1346
37.560      1429
37.580      1496
37.600      1563
37.620      1349
37.640      1386
37.660      1519
37.680      1423
37.700      1383
37.720      1459
37.740      1359
37.760      1399
37.780      1373
37.800      1373
37.820      1423
37.840      1486
37.860      1399
37.880      1309
37.900      1396
37.920      1459
37.940      1283
37.960      1423
37.980      1306
38.000      1413
38.020      1443
38.040      1293
38.060      1426
38.080      1346
38.100      1306
38.120      1379
38.140      1296
38.160      1469
38.180      1403
38.200      1316
38.220      1449
38.240      1323
38.260      1263
38.280      1259
38.300      1226
38.320      1296
38.340      1393
38.360      1243
38.380      1263
38.400      1349
38.420      1386
38.440      1253
38.460      1309
38.480      1230
38.500      1273
38.520      1316
38.540      1200
38.560      1163
38.580      1240
38.600      1416
38.620      1296
38.640      1163
38.660      1206
38.680      1223
38.700      1183
38.720      1393
38.740      1183
38.760      1279
38.780      1406
38.800      1329
38.820      1336
38.840      1276
38.860      1073
38.880      1216
38.900      1230
38.920      1116
38.940      1186
38.960      1283
38.980      1236
39.000      1173
39.020      1166
39.040      1116
39.060      1243
39.080      1120
39.100      1176
39.120      1309
39.140      1100
39.160      1213
39.180      1163
39.200      1220
39.220      1220
39.240      1289
39.260      1106
39.280      1190
39.300      1143
39.320      1243
39.340      1086
39.360      1193
39.380      1066
39.400      1276
39.420      1096
39.440      1083
39.460      1213
39.480      1273
39.500      1116
39.520      1163
39.540      1243
39.560      1083
39.580      1126
39.600      1120
39.620      1073
39.640      1110
39.660      1130
39.680      1073
39.700      1040
39.720      1053
39.740      1150
39.760      1156
39.780      1053
39.800      1063
39.820      1166
39.840      1050
39.860       970
39.880      1100
39.900      1216
39.920      1126
39.940      1076
39.960      1033
39.980      1073
40.000       963
40.020      1120
40.040      1003
40.060       913
40.080      1043
40.100      1063
40.120       993
40.140       973
40.160      1113
40.180      1066
40.200       933
40.220       973
40.240       993
40.260       933
40.280       906
40.300       933
40.320       990
40.340       966
40.360       940
40.380       950
40.400      1006
40.420       943
40.440       863
40.460       970
40.480       966
40.500       983
40.520      1023
40.540       886
40.560      1003
40.580       980
40.600      1040
40.620       950
40.640       996
40.660      1026
40.680       896
40.700       973
40.720       963
40.740       833
40.760       870
40.780       916
40.800       926
40.820       840
40.840       866
40.860       966
40.880       886
40.900       986
40.920       900
40.940       866
40.960       853
40.980       990
41.000       900
41.020       853
41.040       860
41.060       910
41.080       986
41.100      1030
41.120       906
41.140       893
41.160      1000
41.180       900
41.200       986
41.220       893
41.240       866
41.260       853
41.280       946
41.300       843
41.320       863
41.340       783
41.360       856
41.380       780
41.400       883
41.420       863
41.440       843
41.460       770
41.480       733
41.500       760
41.520       813
41.540       730
41.560       766
41.580       876
41.600       856
41.620       816
41.640       850
41.660       953
41.680       896
41.700       810
41.720       883
41.740       826
41.760       896
41.780       880
41.800      1036
41.820       993
41.840      1036
41.860      1086
41.880       990
41.900       860
41.920       790
41.940       930
41.960      1006
41.980       880
42.000       883
42.020       740
42.040       873
42.060       780
42.080       773
42.100       833
42.120       833
42.140       756
42.160       726
42.180       733
42.200       746
42.220       720
42.240       706
42.260       750
42.280       726
42.300       716
42.320       813
42.340       723
42.360       726
42.380       726
42.400       736
42.420       713
42.440       786
42.460       663
42.480       770
42.500       796
42.520       653
42.540       720
42.560       736
42.580       766
42.600       680
42.620       666
42.640       613
42.660       740
42.680       703
42.700       673
42.720       813
42.740       650
42.760       713
42.780       726
42.800       633
42.820       733
42.840       673
42.860       846
42.880       640
42.900       696
42.920       693
42.940       680
42.960       660
42.980       790
43.000       613
43.020       676
43.040       723
43.060       713
43.080       750
43.100       726
43.120       773
43.140       586
43.160       586
43.180       610
43.200       626
43.220       690
43.240       713
43.260       740
43.280       590
43.300       630
43.320       673
43.340       606
43.360       600
43.380       600
43.400       666
43.420       536
43.440       553
43.460       583
43.480       616
43.500       583
43.520       590
43.540       596
43.560       580
43.580       556
43.600       526
43.620       570
43.640       620
43.660       563
43.680       586
43.700       600
43.720       503
43.740       610
43.760       566
43.780       586
43.800       523
43.820       536
43.840       476
43.860       563
43.880       570
43.900       576
43.920       556
43.940       556
43.960       573
43.980       603
44.000       550
44.020       576
44.040       516
44.060       503
44.080       620
44.100       523
44.120       536
44.140       480
44.160       530
44.180       550
44.200       570
44.220       596
44.240       493
44.260       513
44.280       493
44.300       463
44.320       490
44.340       503
44.360       493
44.380       493
44.400       506
44.420       490
44.440       516
44.460       580
44.480       503
44.500       526
44.520       476
44.540       453
44.560       516
44.580       600
44.600       460
44.620       516
44.640       420
44.660       436
44.680       513
44.700       483
44.720       506
44.740       550
44.760       590
44.780       530
44.800       523
44.820       473
44.840       450
44.860       436
44.880       496
44.900       516
44.920       466
44.940       490
44.960       496
44.980       476
45.000       526
45.020       503
45.040       450
45.060       433
45.080       400
45.100       466
45.120       500
45.140       510
45.160       543
45.180       463
45.200       460
45.220       570
45.240       513
45.260       516
45.280       580
45.300       533
45.320       523
45.340       473
45.360       503
45.380       476
45.400       407
45.420       413
45.440       470
45.460       393
45.480       463
45.500       433
45.520       483
45.540       480
45.560       493
45.580       486
45.600       490
45.620       493
45.640       486
45.660       453
45.680       573
45.700       573
45.720       540
45.740       563
45.760       646
45.780       540
45.800       676
45.820       573
45.840       536
45.860       580
45.880       480
45.900       556
45.920       546
45.940       536
45.960       540
45.980       460
46.000       413
46.020       476
46.040       436
46.060       500
46.080       403
46.100       426
46.120       403
46.140       417
46.160       430
46.180       430
46.200       460
46.220       360
46.240       383
46.260       383
46.280       337
46.300       357
46.320       420
46.340       430
46.360       407
46.380       417
46.400       370
46.420       420
46.440       370
46.460       333
46.480       373
46.500       390
46.520       390
46.540       397
46.560       347
46.580       340
46.600       390
46.620       380
46.640       397
46.660       387
46.680       430
46.700       400
46.720       470
46.740       390
46.760       397
46.780       330
46.800       450
46.820       397
46.840       373
46.860       417
46.880       456
46.900       383
46.920       400
46.940       490
46.960       476
46.980       403
47.000       426
47.020       486
47.040       403
47.060       483
47.080       456
47.100       420
47.120       470
47.140       483
47.160       433
47.180       343
47.200       363
47.220       423
47.240       383
47.260       433
47.280       407
47.300       327
47.320       443
47.340       510
47.360       483
47.380       450
47.400       410
47.420       456
47.440       390
47.460       390
47.480       486
47.500       420
47.520       383
47.540       480
47.560       413
47.580       383
47.600       407
47.620       343
47.640       310
47.660       330
47.680       350
47.700       293
47.720       340
47.740       367
47.760       333
47.780       327
47.800       373
47.820       330
47.840       360
47.860       327
47.880       343
47.900       320
47.920       260
47.940       353
47.960       440
47.980       337
48.000       353
48.020       320
48.040       297
48.060       327
48.080       337
48.100       337
48.120       323
48.140       420
48.160       393
48.180       343
48.200       407
48.220       403
48.240       420
48.260       403
48.280       390
48.300       426
48.320       466
48.340       436
48.360       436
48.380       410
48.400       430
48.420       400
48.440       363
48.460       430
48.480       410
48.500       463
48.520       343
48.540       370
48.560       400
48.580       357
48.600       343
48.620       390
48.640       273
48.660       247
48.680       393
48.700       307
48.720       353
48.740       340
48.760       233
48.780       333
48.800       357
48.820       310
48.840       327
48.860       257
48.880       353
48.900       260
48.920       260
48.940       307
48.960       263
48.980       297
49.000       247
49.020       250
49.040       273
49.060       293
49.080       300
49.100       287
49.120       300
49.140       323
49.160       277
49.180       330
49.200       273
49.220       317
49.240       360
49.260       273
49.280       307
49.300       293
49.320       300
49.340       313
49.360       287
49.380       337
49.400       247
49.420       263
49.440       293
49.460       273
49.480       317
49.500       270
49.520       280
49.540       310
49.560       220
49.580       257
49.600       263
49.620       267
49.640       207
49.660       333
49.680       227
49.700       283
49.720       290
49.740       227
49.760       247
49.780       333
49.800       320
49.820       287
49.840       293
49.860       247
49.880       257
49.900       237
49.920       257
49.940       237
49.960       247
49.980       283
50.000       253
50.020       303
50.040       267
50.060       233
50.080       280
50.100       243
50.120       270
50.140       263
50.160       303
50.180       247
50.200       250
50.220       220
50.240       233
50.260       270
50.280       250
50.300       267
50.320       263
50.340       237
50.360       223
50.380       307
50.400       283
50.420       333
50.440       253
50.460       277
50.480       270
50.500       193
50.520       260
50.540       253
50.560       220
50.580       270
50.600       270
50.620       260
50.640       253
50.660       207
50.680       233
50.700       270
50.720       227
50.740       270
50.760       250
50.780       233
50.800       293
50.820       293
50.840       237
50.860       210
50.880       223
50.900       267
50.920       233
50.940       207
50.960       257
50.980       260
51.000       260
51.020       263
51.040       267
51.060       247
51.080       273
51.100       230
51.120       243
51.140       227
51.160       307
51.180       240
51.200       250
51.220       250
51.240       260
51.260       233
51.280       243
51.300       280
51.320       217
51.340       280
51.360       267
51.380       250
51.400       290
51.420       180
51.440       217
51.460       247
51.480       237
51.500       250
51.520       263
51.540       223
51.560       217
51.580       213
51.600       290
51.620       203
51.640       230
51.660       230
51.680       270
51.700       233
51.720       220
51.740       210
51.760       280
51.780       220
51.800       213
51.820       243
51.840       243
51.860       207
51.880       237
51.900       180
51.920       257
51.940       230
51.960       243
51.980       193
52.000       250
52.020       223
52.040       213
52.060       243
52.080       223
52.100       263
52.120       200
52.140       263
52.160       240
52.180       203
52.200       190
52.220       247
52.240       270
52.260       217
52.280       200
52.300       240
52.320       227
52.340       270
52.360       210
52.380       210
52.400       210
52.420       263
52.440       210
52.460       167
52.480       203
52.500       240
52.520       190
52.540       240
52.560       223
52.580       227
52.600       203
52.620       267
52.640       240
52.660       223
52.680       227
52.700       277
52.720       247
52.740       163
52.760       217
52.780       233
52.800       213
52.820       217
52.840       217
52.860       180
52.880       303
52.900       223
52.920       173
52.940       197
52.960       293
52.980       193
53.000       247
53.020       170
53.040       200
53.060       240
53.080       217
53.100       220
53.120       223
53.140       207
53.160       220
53.180       197
53.200       253
53.220       207
53.240       223
53.260       197
53.280       230
53.300       180
53.320       257
53.340       227
53.360       227
53.380       187
53.400       207
53.420       237
53.440       223
53.460       217
53.480       207
53.500       220
53.520       230
53.540       253
53.560       257
53.580       227
53.600       233
53.620       213
53.640       223
53.660       177
53.680       183
53.700       220
53.720       213
53.740       223
53.760       257
53.780       233
53.800       250
53.820       170
53.840       153
53.860       250
53.880       143
53.900       240
53.920       217
53.940       210
53.960       210
53.980       190
54.000       200
54.020       203
54.040       253
54.060       200
54.080       217
54.100       220
54.120       237
54.140       203
54.160       220
54.180       237
54.200       207
54.220       207
54.240       193
54.260       240
54.280       267
54.300       227
54.320       237
54.340       247
54.360       217
54.380       253
54.400       270
54.420       190
54.440       230
54.460       230
54.480       193
54.500       220
54.520       247
54.540       237
54.560       267
54.580       270
54.600       357
54.620       350
54.640       363
54.660       370
54.680       310
54.700       267
54.720       327
54.740       263
54.760       383
54.780       297
54.800       323
54.820       310
54.840       313
54.860       260
54.880       217
54.900       283
54.920       240
54.940       233
54.960       213
54.980       257
55.000       230
55.020       223
55.040       213
55.060       257
55.080       243
55.100       240
55.120       250
55.140       227
55.160       240
55.180       187
55.200       210
55.220       283
55.240       233
55.260       277
55.280       230
55.300       223
55.320       163
55.340       177
55.360       253
55.380       217
55.400       200
55.420       230
55.440       203
55.460       207
55.480       207
55.500       193
55.520       240
55.540       193
55.560       270
55.580       260
55.600       180
55.620       207
55.640       240
55.660       220
55.680       177
55.700       213
55.720       197
55.740       247
55.760       240
55.780       207
55.800       193
55.820       237
55.840       210
55.860       250
55.880       180
55.900       183
55.920       237
55.940       213
55.960       237
55.980       217
56.000       203
56.020       257
56.040       217
56.060       230
56.080       193
56.100       183
56.120       243
56.140       230
56.160       173
56.180       273
56.200       213
56.220       193
56.240       227
56.260       247
56.280       237
56.300       237
56.320       177
56.340       247
56.360       180
56.380       220
56.400       223
56.420       257
56.440       183
56.460       263
56.480       217
56.500       243
56.520       290
56.540       237
56.560       260
56.580       193
56.600       230
56.620       237
56.640       157
56.660       220
56.680       230
56.700       240
56.720       237
56.740       170
56.760       220
56.780       183
56.800       257
56.820       223
56.840       277
56.860       160
56.880       247
56.900       220
56.920       237
56.940       233
56.960       250
56.980       227
57.000       197
57.020       183
57.040       230
57.060       200
57.080       247
57.100       220
57.120       200
57.140       223
57.160       257
57.180       167
57.200       183
57.220       227
57.240       253
57.260       287
57.280       247
57.300       277
57.320       310
57.340       243
57.360       267
57.380       257
57.400       267
57.420       213
57.440       280
57.460       243
57.480       243
57.500       227
57.520       177
57.540       213
57.560       233
57.580       243
57.600       227
57.620       190
57.640       170
57.660       177
57.680       193
57.700       233
57.720       213
57.740       197
57.760       193
57.780       223
57.800       193
57.820       230
57.840       217
57.860       187
57.880       243
57.900       220
57.920       203
57.940       180
57.960       190
57.980       210
58.000       263
58.020       227
58.040       220
58.060       223
58.080       213
58.100       280
58.120       193
58.140       207
58.160       237
58.180       183
58.200       197
58.220       267
58.240       187
58.260       230
58.280       173
58.300       170
58.320       207
58.340       213
58.360       157
58.380       153
58.400       223
58.420       210
58.440       213
58.460       213
58.480       187
58.500       177
58.520       207
58.540       167
58.560       207
58.580       170
58.600       157
58.620       153
58.640       193
58.660       223
58.680       190
58.700       167
58.720       170
58.740       187
58.760       203
58.780       197
58.800       173
58.820       233
58.840       197
58.860       167
58.880       160
58.900       207
58.920       220
58.940       210
58.960       207
58.980       160
59.000       137
59.020       203
59.040       177
59.060       193
59.080       160
59.100       200
59.120       143
59.140       227
59.160       213
59.180       147
59.200       173
59.220       170
59.240       210
59.260       167
59.280       190
59.300       153
59.320       193
59.340       190
59.360       187
59.380       167
59.400       160
59.420       247
59.440       167
59.460       153
59.480       200
59.500       230
59.520       173
59.540       143
59.560       173
59.580       183
59.600       177
59.620       187
59.640       183
59.660       170
59.680       167
59.700       200
59.720       153
59.740       177
59.760       177
59.780       200
59.800       217
59.820       190
59.840       243
59.860       197
59.880       170
59.900       217
59.920       183
59.940       197
59.960       187
59.980       230
60.000       213
