20.000       243
20.020       227
20.040       213
20.060       257
20.080       253
20.100       230
20.120       220
20.140       240
20.160       190
20.180       243
20.200       227
20.220       227
20.240       253
20.260       290
20.280       263
20.300       250
20.320       247
20.340       300
20.360       203
20.380       263
20.400       213
20.420       217
20.440       243
20.460       247
20.480       203
20.500       223
20.520       210
20.540       253
20.560       233
20.580       253
20.600       243
20.620       220
20.640       197
20.660       233
20.680       247
20.700       213
20.720       247
20.740       237
20.760       237
20.780       210
20.800       217
20.820       223
20.840       293
20.860       217
20.880       210
20.900       263
20.920       240
20.940       200
20.960       233
20.980       183
21.000       203
21.020       213
21.040       197
21.060       243
21.080       277
21.100       230
21.120       193
21.140       223
21.160       260
21.180       260
21.200       257
21.220       273
21.240       247
21.260       240
21.280       210
21.300       210
21.320       267
21.340       270
21.360       240
21.380       193
21.400       230
21.420       263
21.440       163
21.460       217
21.480       253
21.500       210
21.520       193
21.540       227
21.560       240
21.580       180
21.600       217
21.620       187
21.640       230
21.660       190
21.680       213
21.700       193
21.720       223
21.740       223
21.760       270
21.780       200
21.800       247
21.820       217
21.840       217
21.860       230
21.880       143
21.900       237
21.920       230
21.940       173
21.960       193
21.980       220
22.000       187
22.020       193
22.040       177
22.060       260
22.080       230
22.100       197
22.120       210
22.140       193
22.160       193
22.180       207
22.200       203
22.220       177
22.240       220
22.260       187
22.280       230
22.300       153
22.320       217
22.340       227
22.360       213
22.380       190
22.400       233
22.420       197
22.440       227
22.460       213
22.480       257
22.500       233
22.520       157
22.540       200
22.560       257
22.580       187
22.600       210
22.620       213
22.640       190
22.660       213
22.680       220
22.700       207
22.720       187
22.740       213
22.760       223
22.780       217
22.800       237
22.820       177
22.840       213
22.860       173
22.880       173
22.900       220
22.920       203
22.940       177
22.960       220
22.980       200
23.000       197
23.020       183
23.040       197
23.060       183
23.080       193
23.100       273
23.120       197
23.140       137
23.160       167
23.180       163
23.200       190
23.220       177
23.240       190
23.260       180
23.280       197
23.300       193
23.320       220
23.340       200
23.360       207
23.380       153
23.400       177
23.420       200
23.440       187
23.460       167
23.480       170
23.500       227
23.520       173
23.540       180
23.560       207
23.580       173
23.600       187
23.620       163
23.640       150
23.660       183
23.680       203
23.700       210
23.720       203
23.740       173
23.760       170
23.780       183
23.800       177
23.820       173
23.840       187
23.860       193
23.880       160
23.900       187
23.920       200
23.940       167
23.960       170
23.980       170
24.000       163
24.020       140
24.040       177
24.060       163
24.080       120
24.100       180
24.120       183
24.140       163
24.160       147
24.180       167
24.200       163
24.220       200
24.240       207
24.260       247
24.280       157
24.300       140
24.320       133
24.340       183
24.360       127
24.380       197
24.400       147
24.420       147
24.440       147
24.460       173
24.480       183
24.500       177
24.520       157
24.540       200
24.560       187
24.580       173
24.600       163
24.620       193
24.640       157
24.660       200
24.680       180
24.700       153
24.720       190
24.740       240
24.760       230
24.780       183
24.800       220
24.820       243
24.840       233
24.860       237
24.880       243
24.900       190
24.920       217
24.940       210
24.960       233
24.980       220
25.000       190
25.020       177
25.040       180
25.060       187
25.080       123
25.100       203
25.120       137
25.140       157
25.160       163
25.180       170
25.200       147
25.220       180
25.240       143
25.260       130
25.280       157
25.300       157
25.320       163
25.340       137
25.360       153
25.380       153
25.400       160
25.420       143
25.440       150
25.460       143
25.480       190
25.500       137
25.520       113
25.540       153
25.560       137
25.580       163
25.600       110
25.620       183
25.640       150
25.660       157
25.680       150
25.700       140
25.720       157
25.740       163
25.760       157
25.780       163
25.800       163
25.820       177
25.840       127
25.860       117
25.880       120
25.900       150
25.920       167
25.940       150
25.960       120
25.980       133
26.000       150
26.020       127
26.040       140
26.060       207
26.080       147
26.100       173
26.120       113
26.140       133
26.160       133
26.180       130
26.200       183
26.220       153
26.240       153
26.260       153
26.280       140
26.300       130
26.320       133
26.340       107
26.360       143
26.380       140
26.400       120
26.420       133
26.440       147
26.460       130
26.480       150
26.500       117
26.520       120
26.540       150
26.560       163
26.580       153
26.600       147
26.620       130
26.640       130
26.660       130
26.680       160
26.700       147
26.720       130
26.740       113
26.760       130
26.780       117
26.800       183
26.820       133
26.840       130
26.860       107
26.880       140
26.900       133
26.920       107
26.940       147
26.960        77
26.980       110
27.000       123
27.020       130
27.040        97
27.060       110
27.080       123
27.100       107
27.120       127
27.140       117
27.160       123
27.180        77
27.200       157
27.220       117
27.240       120
27.260       130
27.280       140
27.300       123
27.320       137
27.340       133
27.360       107
27.380       140
27.400       123
27.420        97
27.440       143
27.460       113
27.480       110
27.500        93
27.520       127
27.540       113
27.560       107
27.580       100
27.600       100
27.620       100
27.640        83
27.660       100
27.680       123
27.700       160
27.720        97
27.740       107
27.760       130
27.780       100
27.800       133
27.820       120
27.840       120
27.860       110
27.880       117
27.900       113
27.920       117
27.940       123
27.960       113
27.980       110
28.000       107
28.020       110
28.040        97
28.060       107
28.080       143
28.100       120
28.120       117
28.140        97
28.160       107
28.180       120
28.200       133
28.220       147
28.240       100
28.260       117
28.280       117
28.300       120
28.320       110
28.340       133
28.360       127
28.380       117
28.400       123
28.420       127
28.440        87
28.460        57
28.480       103
28.500       137
28.520       117
28.540       140
28.560       117
28.580        93
28.600       140
28.620        87
28.640        73
28.660       113
28.680       113
28.700       147
28.720        73
28.740       143
28.760       113
28.780       123
28.800       120
28.820       103
28.840        80
28.860       120
28.880       123
28.900       107
28.920       127
28.940       100
28.960       137
28.980       130
29.000       143
29.020       150
29.040       147
29.060       137
29.080       140
29.100       140
29.120       180
29.140       160
29.160       173
29.180       210
29.200       190
29.220       220
29.240       203
29.260       183
29.280       270
29.300       233
29.320       263
29.340       323
29.360       317
29.380       300
29.400       257
29.420       287
29.440       270
29.460       273
29.480       220
29.500       187
29.520       160
29.540       113
29.560       120
29.580       117
29.600       120
29.620       113
29.640       103
29.660        83
29.680       107
29.700       127
29.720        60
29.740       110
29.760       120
29.780        80
29.800       103
29.820       103
29.840       100
29.860       127
29.880       117
29.900        77
29.920        97
29.940       120
29.960        93
29.980        73
30.000       107
30.020       110
30.040        97
30.060        93
30.080        70
30.100       110
30.120        97
30.140        77
30.160       103
30.180        90
30.200        90
30.220        90
30.240       107
30.260        90
30.280       130
30.300       100
30.320        87
30.340       110
30.360        90
30.380       103
30.400       107
30.420        67
30.440        93
30.460        97
30.480        57
30.500       103
30.520        83
30.540       100
30.560       103
30.580       113
30.600       100
30.620       117
30.640        80
30.660       117
30.680        67
30.700        87
30.720       103
30.740        80
30.760       103
30.780        60
30.800        93
30.820        97
30.840        63
30.860        77
30.880       103
30.900        73
30.920        93
30.940        77
30.960       113
30.980        93
31.000        77
31.020        97
31.040       100
31.060        80
31.080       100
31.100        60
31.120        67
31.140        87
31.160        67
31.180        73
31.200        77
31.220        93
31.240        60
31.260       107
31.280        97
31.300       107
31.320        87
31.340        63
31.360       100
31.380        90
31.400        93
31.420        87
31.440        77
31.460        77
31.480       113
31.500        77
31.520        70
31.540       100
31.560        57
31.580        77
31.600        70
31.620       110
31.640        77
31.660        63
31.680       107
31.700        80
31.720        77
31.740       130
31.760        63
31.780        80
31.800       100
31.820        87
31.840        70
31.860        63
31.880        97
31.900       127
31.920        60
31.940        93
31.960        73
31.980       107
32.000        77
32.020        73
32.040        83
32.060        67
32.080        90
32.100        70
32.120        70
32.140        53
32.160       110
32.180       127
32.200       127
32.220        87
32.240        90
32.260        60
32.280        87
32.300        97
32.320        67
32.340        70
32.360       103
32.380        53
32.400        77
32.420        77
32.440        77
32.460       100
32.480        80
32.500        93
32.520        80
32.540        97
32.560        77
32.580        83
32.600        77
32.620        73
32.640        73
32.660        90
32.680        73
32.700        63
32.720        77
32.740        83
32.760        60
32.780        87
32.800        93
32.820        63
32.840        87
32.860        67
32.880        73
32.900        57
32.920        80
32.940        67
32.960       103
32.980        70
33.000       130
33.020       103
33.040        80
33.060        67
33.080        63
33.100        57
33.120        80
33.140       113
33.160        60
33.180        73
33.200       107
33.220       127
33.240        67
33.260        67
33.280        77
33.300        73
33.320        93
33.340       103
33.360        87
33.380        80
33.400        97
33.420        60
33.440        53
33.460       107
33.480        70
33.500        73
33.520        67
33.540        63
33.560       110
33.580        83
33.600        73
33.620        63
33.640        47
33.660        80
33.680        93
33.700        90
33.720        47
33.740        63
33.760        70
33.780        77
33.800        63
33.820       110
33.840        87
33.860        77
33.880        60
33.900        63
33.920        60
33.940        80
33.960        63
33.980        53
34.000        53
34.020        67
34.040        73
34.060        70
34.080        77
34.100        60
34.120        77
34.140        90
34.160        80
34.180        90
34.200        73
34.220        43
34.240       107
34.260        60
34.280        70
34.300        90
34.320        80
34.340        83
34.360        97
34.380        73
34.400        70
34.420        87
34.440        77
34.460        77
34.480        93
34.500        90
34.520        57
34.540        77
34.560        97
34.580        80
34.600        90
34.620        70
34.640        50
34.660        93
34.680       103
34.700        80
34.720        83
34.740        90
34.760       103
34.780       103
34.800       100
34.820        77
34.840        83
34.860        63
34.880        93
34.900       127
34.920       110
34.940       107
34.960        83
34.980        87
35.000        90
35.020       117
35.040        80
35.060        83
35.080       117
35.100       120
35.120       100
35.140        87
35.160        97
35.180        93
35.200        97
35.220        57
35.240        90
35.260        50
35.280        90
35.300        87
35.320        67
35.340        70
35.360        97
35.380       137
35.400       113
35.420       103
35.440       100
35.460       110
35.480       163
35.500       277
35.520       367
35.540       716
35.560       860
35.580       826
35.600       850
35.620       846
35.640       856
35.660       806
35.680       586
35.700       446
35.720       403
35.740       367
35.760       257
35.780       183
35.800       147
35.820       167
35.840       137
35.860       117
35.880       160
35.900       177
35.920       153
35.940       100
35.960       123
35.980       140
36.000       107
36.020       110
36.040        80
36.060        90
36.080        83
36.100       103
36.120        87
36.140        77
36.160        87
36.180        80
36.200        97
36.220        87
36.240        83
36.260       107
36.280       107
36.300       100
36.320        73
36.340        87
36.360        80
36.380        80
36.400        80
36.420        67
36.440       103
36.460        43
36.480        63
36.500        87
36.520       123
36.540        77
36.560        57
36.580        93
36.600        70
36.620        93
36.640        73
36.660        77
36.680        90
36.700        93
36.720        57
36.740        97
36.760        80
36.780        87
36.800        60
36.820        70
36.840        67
36.860        97
36.880        80
36.900        83
36.920       100
36.940        50
36.960        27
36.980        70
37.000        53
37.020        90
37.040        63
37.060        70
37.080        67
37.100        57
37.120        97
37.140        60
37.160        80
37.180        57
37.200        73
37.220        47
37.240        87
37.260        93
37.280        63
37.300        67
37.320        67
37.340        50
37.360        73
37.380        93
37.400        73
37.420        60
37.440        53
37.460        87
37.480        77
37.500        67
37.520        73
37.540        60
37.560        83
37.580        87
37.600        70
37.620        97
37.640        77
37.660        93
37.680       103
37.700        57
37.720        83
37.740        93
37.760        93
37.780       110
37.800       113
37.820        83
37.840        80
37.860        60
37.880        73
37.900        97
37.920        57
37.940        87
37.960        77
37.980        50
38.000        73
38.020        60
38.040        60
38.060        73
38.080        63
38.100        83
38.120       110
38.140        77
38.160        77
38.180       107
38.200        70
38.220        83
38.240        93
38.260        77
38.280       113
38.300        67
38.320        87
38.340        83
38.360        70
38.380        80
38.400        67
38.420        73
38.440        60
38.460       107
38.480        77
38.500       117
38.520        57
38.540        63
38.560        53
38.580        97
38.600        60
38.620       133
38.640        63
38.660        83
38.680        70
38.700        50
38.720        57
38.740        60
38.760        47
38.780        87
38.800        70
38.820        60
38.840       100
38.860        40
38.880        53
38.900        87
38.920        67
38.940        87
38.960        90
38.980        80
39.000        67
39.020        73
39.040       127
39.060        73
39.080        87
39.100        70
39.120       120
39.140        97
39.160       113
39.180        97
39.200       100
39.220       113
39.240       153
39.260       123
39.280       150
39.300       133
39.320       127
39.340       197
39.360       100
39.380       110
39.400       100
39.420        97
39.440        63
39.460       117
39.480       100
39.500       107
39.520        83
39.540        70
39.560        77
39.580       100
39.600        67
39.620        83
39.640        83
39.660        73
39.680        77
39.700        73
39.720        80
39.740        53
39.760        67
39.780        83
39.800        43
39.820        63
39.840        70
39.860        67
39.880        40
39.900        53
39.920        50
39.940        80
39.960        90
39.980        57
40.000        73
40.020        37
40.040        37
40.060        40
40.080        90
40.100        53
40.120        90
40.140        77
40.160        73
40.180        77
40.200        50
40.220        37
40.240        63
40.260        57
40.280        57
40.300        57
40.320        70
40.340        37
40.360        63
40.380        83
40.400        87
40.420        70
40.440        67
40.460        90
40.480        67
40.500        73
40.520        43
40.540        37
40.560        60
40.580        60
40.600        73
40.620        53
40.640        57
40.660        73
40.680        77
40.700        60
40.720        70
40.740        77
40.760        53
40.780        63
40.800        67
40.820        70
40.840        73
40.860        73
40.880        50
40.900        70
40.920        83
40.940        50
40.960        60
40.980        37
41.000        63
41.020        67
41.040        73
41.060       100
41.080        80
41.100        63
41.120        77
41.140        50
41.160        47
41.180        73
41.200        77
41.220        60
41.240        67
41.260        53
41.280        57
41.300        50
41.320        87
41.340        77
41.360        43
41.380        93
41.400        63
41.420        70
41.440        63
41.460        53
41.480        53
41.500        47
41.520        60
41.540        70
41.560        37
41.580        63
41.600        67
41.620        37
41.640        20
41.660        80
41.680        33
41.700        70
41.720        73
41.740        50
41.760        37
41.780        47
41.800        57
41.820        50
41.840        57
41.860        53
41.880        67
41.900        67
41.920        97
41.940        90
41.960        60
41.980        43
42.000        63
42.020        63
42.040        73
42.060        60
42.080        43
42.100       110
42.120        53
42.140        57
42.160        60
42.180        60
42.200        50
42.220        77
42.240        63
42.260        60
42.280        57
42.300        50
42.320        70
42.340        63
42.360        83
42.380        73
42.400        87
42.420        70
42.440        87
42.460        73
42.480        63
42.500        87
42.520        67
42.540        77
42.560        67
42.580        77
42.600        73
42.620        60
42.640        60
42.660        70
42.680        40
42.700        87
42.720        90
42.740        73
42.760        53
42.780        90
42.800        83
42.820        93
42.840        90
42.860        93
42.880        57
42.900        90
42.920        67
42.940        97
42.960       107
42.980       103
43.000       133
43.020       100
43.040       160
43.060       123
43.080       133
43.100        97
43.120       127
43.140       133
43.160       103
43.180       100
43.200       110
43.220        80
43.240       120
43.260        87
43.280        83
43.300        77
43.320        67
43.340        63
43.360        77
43.380        57
43.400        57
43.420        53
43.440        93
43.460        83
43.480        87
43.500        47
43.520        50
43.540        67
43.560        57
43.580        63
43.600        43
43.620        83
43.640        57
43.660        47
43.680        77
43.700        57
43.720        60
43.740        47
43.760        53
43.780        90
43.800        67
43.820        80
43.840        77
43.860        73
43.880        77
43.900        70
43.920        70
43.940        57
43.960        83
43.980        53
44.000        60
44.020        67
44.040        80
44.060        63
44.080        60
44.100        47
44.120        77
44.140       103
44.160        27
44.180        77
44.200        50
44.220        53
44.240        57
44.260        80
44.280        63
44.300        53
44.320        63
44.340        47
44.360        80
44.380        37
44.400        70
44.420        77
44.440        73
44.460        60
44.480        67
44.500        57
44.520        67
44.540        57
44.560        60
44.580        67
44.600        47
44.620        70
44.640        63
44.660        40
44.680        87
44.700        47
44.720        50
44.740        80
44.760        73
44.780        57
44.800        37
44.820        53
44.840        73
44.860        77
44.880        50
44.900        83
44.920        67
44.940        83
44.960        47
44.980        53
45.000        53
45.020        53
45.040        47
45.060       127
45.080        60
45.100        73
45.120        97
45.140        53
45.160        90
45.180        87
45.200       107
45.220        77
45.240        67
45.260        77
45.280        77
45.300        73
45.320        73
45.340        67
45.360        37
45.380        73
45.400        50
45.420       103
45.440        77
45.460        57
45.480        73
45.500        83
45.520        63
45.540        83
45.560        63
45.580        50
45.600        50
45.620        63
45.640        60
45.660        70
45.680        77
45.700        73
45.720        60
45.740        73
45.760        77
45.780        80
45.800        67
45.820        90
45.840        83
45.860        73
45.880        50
45.900        67
45.920        70
45.940        67
45.960        40
45.980        77
46.000        70
46.020        50
46.040        67
46.060        43
46.080        67
46.100        50
46.120        57
46.140        90
46.160        67
46.180        73
46.200        57
46.220        67
46.240        43
46.260        77
46.280        77
46.300        43
46.320        73
46.340        80
46.360        80
46.380        83
46.400        70
46.420        77
46.440        63
46.460        63
46.480       110
46.500        73
46.520        40
46.540        87
46.560        57
46.580        57
46.600        73
46.620        90
46.640        97
46.660        73
46.680        77
46.700        67
46.720        63
46.740       123
46.760        67
46.780        67
46.800        77
46.820       103
46.840        87
46.860        73
46.880        67
46.900        93
46.920        97
46.940        67
46.960        93
46.980        83
47.000       113
47.020        97
47.040       110
47.060        90
47.080        77
47.100        87
47.120        90
47.140       127
47.160       100
47.180       127
47.200       130
47.220       103
47.240       127
47.260        93
47.280       137
47.300        93
47.320       127
47.340       143
47.360       150
47.380       113
47.400       153
47.420       153
47.440       163
47.460       160
47.480       153
47.500       150
47.520       157
47.540       137
47.560       117
47.580       130
47.600       137
47.620       103
47.640       100
47.660       113
47.680        90
47.700       103
47.720        87
47.740        60
47.760        77
47.780       107
47.800        93
47.820        90
47.840        80
47.860        67
47.880        73
47.900        63
47.920        63
47.940        80
47.960        60
47.980        70
48.000       103
48.020        43
48.040        83
48.060       107
48.080       113
48.100        63
48.120        70
48.140       107
48.160        87
48.180        93
48.200       113
48.220       100
48.240        80
48.260        93
48.280       147
48.300       137
48.320        97
48.340       123
48.360       153
48.380       123
48.400       103
48.420       157
48.440       193
48.460       153
48.480       187
48.500       133
48.520       140
48.540       123
48.560       123
48.580       140
48.600        93
48.620        90
48.640        77
48.660        80
48.680        83
48.700        70
48.720        97
48.740        40
48.760        77
48.780        47
48.800        53
48.820        70
48.840        67
48.860        77
48.880        60
48.900        57
48.920        57
48.940        63
48.960        67
48.980        63
49.000        67
49.020        53
49.040        70
49.060        87
49.080        53
49.100        60
49.120        47
49.140        50
49.160        67
49.180        73
49.200        63
49.220        87
49.240        70
49.260        83
49.280        60
49.300        83
49.320        77
49.340        93
49.360        77
49.380        83
49.400        70
49.420        67
49.440        57
49.460        70
49.480        67
49.500        80
49.520        77
49.540        80
49.560        67
49.580        53
49.600        57
49.620        73
49.640        67
49.660        73
49.680        50
49.700        60
49.720        47
49.740        73
49.760        73
49.780        63
49.800        57
49.820        67
49.840        37
49.860        63
49.880        60
49.900        67
49.920        73
49.940        70
49.960        50
49.980        73
50.000        90
50.020        57
50.040       100
50.060        87
50.080        57
50.100        53
50.120        70
50.140        63
50.160        73
50.180        63
50.200        50
50.220       103
50.240        73
50.260        67
50.280        73
50.300       100
50.320        53
50.340        70
50.360        77
50.380        70
50.400        87
50.420        73
50.440        77
50.460        77
50.480        40
50.500        47
50.520        63
50.540        53
50.560        60
50.580        70
50.600        57
50.620        47
50.640        90
50.660        80
50.680        63
50.700        67
50.720        47
50.740        83
50.760        70
50.780        70
50.800        93
50.820        60
50.840        77
50.860        93
50.880        83
50.900        40
50.920        90
50.940       103
50.960       130
50.980        67
51.000        90
51.020        50
51.040        73
51.060        47
51.080        43
51.100        60
51.120        77
51.140        93
51.160        43
51.180        53
51.200        70
51.220        47
51.240        67
51.260        70
51.280        87
51.300        67
51.320        90
51.340        63
51.360        37
51.380        40
51.400        87
51.420        70
51.440        53
51.460        53
51.480        53
51.500        90
51.520        73
51.540        50
51.560        57
51.580        57
51.600        40
51.620        53
51.640        87
51.660        57
51.680        70
51.700        53
51.720        57
51.740        60
51.760        87
51.780        70
51.800        83
51.820        57
51.840        33
51.860        47
51.880        53
51.900        50
51.920        67
51.940        87
51.960        47
51.980        67
52.000        63
52.020        50
52.040        60
52.060        43
52.080        43
52.100        50
52.120        93
52.140        60
52.160        87
52.180        67
52.200        67
52.220        57
52.240        37
52.260        67
52.280        73
52.300        77
52.320        67
52.340        57
52.360        43
52.380        83
52.400        67
52.420        87
52.440        63
52.460        53
52.480        53
52.500        60
52.520        77
52.540        73
52.560        60
52.580        60
52.600        50
52.620        97
52.640        83
52.660        47
52.680        50
52.700        70
52.720        67
52.740        70
52.760        47
52.780        53
52.800        37
52.820        57
52.840        97
52.860        53
52.880        80
52.900        57
52.920        90
52.940        80
52.960        70
52.980        63
53.000        87
53.020        83
53.040        70
53.060        90
53.080        63
53.100        87
53.120        53
53.140        67
53.160        63
53.180        70
53.200        63
53.220        43
53.240        40
53.260        70
53.280        80
53.300        80
53.320        73
53.340        70
53.360        67
53.380       107
53.400        67
53.420        67
53.440        83
53.460        47
53.480        90
53.500        87
53.520        63
53.540        57
53.560        53
53.580        53
53.600        77
53.620        83
53.640        73
53.660        77
53.680        77
53.700        77
53.720        47
53.740        77
53.760        83
53.780        70
53.800        57
53.820        80
53.840        73
53.860        63
53.880        60
53.900        73
53.920        73
53.940        90
53.960        67
53.980        73
54.000        70
54.020        73
54.040        97
54.060        33
54.080        77
54.100        97
54.120        83
54.140        83
54.160        60
54.180        67
54.200        83
54.220        83
54.240        67
54.260        90
54.280        83
54.300        77
54.320       100
54.340        60
54.360        67
54.380        83
54.400        60
54.420        73
54.440        87
54.460        53
54.480        60
54.500        93
54.520        77
54.540        77
54.560        90
54.580        63
54.600        83
54.620       120
54.640        50
54.660       120
54.680       103
54.700        97
54.720        93
54.740        87
54.760        73
54.780        70
54.800        93
54.820        70
54.840        70
54.860       117
54.880        93
54.900        83
54.920        97
54.940       117
54.960       103
54.980        73
55.000        77
55.020        90
55.040       113
55.060        93
55.080        97
55.100        93
55.120        80
55.140        87
55.160       130
55.180        87
55.200        73
55.220        73
55.240        80
55.260        67
55.280       103
55.300        83
55.320        77
55.340       103
55.360        83
55.380        77
55.400        80
55.420        77
55.440        70
55.460        73
55.480       107
55.500        67
55.520        90
55.540        53
55.560        90
55.580        90
55.600        87
55.620        57
55.640        63
55.660       100
55.680        80
55.700        77
55.720        57
55.740        67
55.760        57
55.780        83
55.800        63
55.820        90
55.840        87
55.860        50
55.880        60
55.900        87
55.920        63
55.940        63
55.960        80
55.980        97
56.000       103
56.020        70
56.040        97
56.060       103
56.080        60
56.100        83
56.120        93
56.140       100
56.160        73
56.180        63
56.200        67
56.220        63
56.240        93
56.260        83
56.280        57
56.300       113
56.320       100
56.340        60
56.360        87
56.380        90
56.400        97
56.420        63
56.440       110
56.460        87
56.480       130
56.500        53
56.520        80
56.540       127
56.560        83
56.580        83
56.600        97
56.620        83
56.640       107
56.660        80
56.680        83
56.700       103
56.720        90
56.740        73
56.760        80
56.780       117
56.800        73
56.820        90
56.840        67
56.860        73
56.880        87
56.900        93
56.920       107
56.940        90
56.960        80
56.980        53
57.000        87
57.020        90
57.040        83
57.060        73
57.080        70
57.100        93
57.120       120
57.140        93
57.160       147
57.180       107
57.200        97
57.220       100
57.240       117
57.260       113
57.280       127
57.300       133
57.320       143
57.340       127
57.360       100
57.380       107
57.400       123
57.420       103
57.440       100
57.460        83
57.480        60
57.500       100
57.520       120
57.540        90
57.560        80
57.580        90
57.600        87
57.620        53
57.640        90
57.660        77
57.680        87
57.700        70
57.720        83
57.740        77
57.760       120
57.780        80
57.800        77
57.820        87
57.840        57
57.860        77
57.880        57
57.900       113
57.920       107
57.940        80
57.960        53
57.980        90
58.000        70
58.020        67
58.040        97
58.060        77
58.080        80
58.100        70
58.120        90
58.140        90
58.160        77
58.180       100
58.200        67
58.220        77
58.240        77
58.260        87
58.280        67
58.300        97
58.320        60
58.340        60
58.360        83
58.380        87
58.400        77
58.420        40
58.440       107
58.460        80
58.480        80
58.500        70
58.520        87
58.540        97
58.560        83
58.580        70
58.600        63
58.620        73
58.640        80
58.660        60
58.680        67
58.700        53
58.720        70
58.740        97
58.760        97
58.780        80
58.800        57
58.820        63
58.840        70
58.860        80
58.880        53
58.900        87
58.920        63
58.940        53
58.960        63
58.980        67
59.000        73
59.020        40
59.040        97
59.060        47
59.080        37
59.100        67
59.120        47
59.140        67
59.160        60
59.180        80
59.200        93
59.220        60
59.240        63
59.260       103
59.280        63
59.300        50
59.320        73
59.340        83
59.360        70
59.380        53
59.400        53
59.420        70
59.440        80
59.460        93
59.480       100
59.500        83
59.520        60
59.540        97
59.560        57
59.580        87
59.600        77
59.620        77
59.640        70
59.660        83
59.680        87
59.700        60
59.720        53
59.740        67
59.760        97
59.780        60
59.800        93
59.820         0
59.840         0
59.860         0
59.880         0
59.900         0
59.920         0
59.940         0
59.960         0
59.980         0
60.000         0
