20.000        87
20.020        60
20.040        47
20.060       133
20.080        87
20.100        60
20.120        93
20.140        80
20.160        47
20.180        73
20.200        73
20.220        60
20.240        67
20.260        80
20.280       100
20.300        47
20.320        60
20.340        67
20.360        73
20.380        40
20.400        80
20.420        80
20.440        87
20.460        87
20.480       100
20.500        60
20.520        93
20.540        67
20.560        93
20.580       127
20.600        47
20.620       133
20.640        87
20.660       120
20.680        73
20.700        80
20.720        67
20.740        87
20.760       107
20.780        67
20.800        87
20.820        80
20.840        60
20.860        53
20.880       100
20.900        87
20.920        73
20.940        67
20.960        93
20.980        93
21.000        87
21.020        93
21.040        67
21.060        87
21.080        80
21.100        80
21.120        60
21.140        67
21.160        73
21.180        73
21.200        40
21.220        93
21.240       127
21.260       100
21.280        73
21.300       127
21.320        93
21.340        87
21.360        80
21.380       107
21.400        93
21.420        53
21.440        53
21.460       120
21.480        53
21.500        67
21.520        53
21.540        67
21.560        93
21.580        53
21.600       113
21.620        80
21.640       120
21.660        80
21.680        60
21.700        87
21.720        47
21.740        53
21.760        80
21.780       100
21.800        93
21.820        60
21.840        73
21.860        80
21.880        60
21.900        67
21.920        80
21.940        67
21.960       120
21.980        60
22.000        53
22.020        73
22.040       107
22.060        93
22.080        80
22.100        87
22.120        53
22.140        93
22.160        80
22.180        87
22.200        87
22.220        60
22.240       127
22.260       100
22.280        93
22.300        87
22.320       113
22.340        73
22.360        80
22.380       107
22.400        73
22.420        60
22.440       113
22.460        47
22.480        67
22.500        93
22.520        93
22.540        80
22.560        80
22.580        87
22.600        73
22.620        60
22.640        93
22.660        73
22.680        67
22.700        67
22.720        73
22.740       120
22.760        80
22.780        80
22.800       107
22.820        73
22.840        33
22.860        60
22.880        73
22.900        67
22.920        67
22.940        80
22.960        27
22.980        60
23.000        60
23.020       107
23.040        47
23.060        73
23.080        47
23.100        73
23.120        87
23.140        47
23.160        67
23.180       140
23.200        80
23.220        73
23.240        67
23.260        73
23.280       113
23.300        60
23.320        53
23.340        73
23.360       120
23.380        60
23.400        80
23.420       100
23.440        67
23.460        53
23.480        87
23.500        40
23.520        80
23.540        60
23.560       100
23.580       107
23.600        73
23.620        67
23.640       100
23.660        60
23.680        60
23.700        93
23.720        73
23.740        40
23.760        87
23.780        47
23.800        53
23.820        40
23.840        73
23.860        47
23.880        93
23.900        60
23.920        73
23.940        67
23.960        67
23.980        87
24.000       100
24.020        47
24.040        47
24.060        73
24.080        60
24.100        67
24.120        73
24.140        47
24.160       120
24.180       100
24.200        67
24.220        93
24.240        53
24.260        80
24.280       120
24.300        73
24.320        60
24.340        80
24.360        53
24.380        80
24.400        40
24.420        80
24.440        53
24.460       113
24.480        67
24.500        73
24.520        73
24.540       107
24.560        93
24.580        73
24.600       120
24.620        33
24.640       113
24.660        40
24.680        67
24.700        87
24.720       100
24.740        60
24.760        80
24.780        80
24.800        40
24.820        40
24.840        47
24.860       100
24.880        80
24.900        47
24.920       107
24.940        60
24.960       100
24.980        67
25.000        47
25.020        93
25.040       120
25.060        87
25.080        47
25.100        73
25.120        80
25.140        87
25.160       107
25.180        53
25.200        87
25.220        93
25.240        73
25.260        67
25.280        60
25.300        73
25.320        47
25.340        53
25.360        80
25.380        67
25.400        80
25.420        80
25.440        33
25.460        60
25.480        67
25.500        93
25.520        87
25.540       127
25.560       100
25.580       127
25.600       107
25.620       120
25.640        73
25.660        67
25.680        47
25.700        93
25.720        60
25.740        40
25.760        80
25.780        73
25.800        73
25.820        60
25.840        80
25.860        53
25.880        73
25.900       100
25.920        47
25.940        60
25.960        60
25.980        80
26.000        60
26.020        53
26.040        67
26.060        67
26.080        80
26.100        73
26.120        53
26.140        67
26.160        40
26.180       100
26.200        53
26.220        40
26.240        53
26.260        60
26.280        60
26.300        27
26.320        67
26.340        53
26.360        73
26.380        60
26.400        80
26.420        60
26.440        73
26.460        60
26.480        33
26.500        80
26.520        53
26.540        53
26.560        73
26.580        80
26.600        40
26.620        60
26.640        27
26.660        67
26.680        47
26.700        80
26.720        93
26.740        60
26.760        67
26.780        73
26.800        67
26.820        60
26.840        73
26.860        47
26.880        53
26.900        53
26.920        47
26.940        73
26.960        53
26.980        80
27.000        40
27.020        47
27.040        33
27.060        33
27.080        40
27.100        60
27.120        33
27.140        60
27.160        47
27.180        67
27.200        47
27.220        53
27.240        47
27.260        93
27.280        60
27.300        80
27.320        40
27.340        67
27.360        33
27.380        40
27.400        67
27.420        47
27.440        60
27.460        27
27.480        47
27.500        53
27.520       100
27.540        40
27.560        40
27.580         7
27.600        40
27.620        67
27.640        53
27.660        47
27.680        53
27.700        67
27.720        60
27.740        80
27.760        53
27.780        33
27.800        67
27.820        27
27.840        87
27.860        67
27.880        73
27.900        53
27.920        40
27.940        60
27.960        53
27.980        67
28.000        33
28.020        73
28.040        40
28.060        47
28.080        80
28.100        27
28.120        80
28.140        73
28.160        60
28.180       127
28.200        47
28.220        67
28.240        40
28.260        53
28.280        33
28.300        60
28.320        47
28.340        47
28.360        53
28.380        67
28.400        33
28.420        47
28.440        53
28.460        80
28.480        40
28.500        73
28.520        53
28.540        20
28.560        73
28.580        67
28.600        67
28.620        67
28.640        53
28.660       107
28.680        73
28.700        93
28.720        67
28.740        60
28.760        53
28.780        47
28.800        47
28.820        53
28.840        33
28.860        60
28.880        53
28.900        80
28.920        27
28.940        60
28.960        47
28.980        40
29.000        27
29.020        53
29.040        33
29.060        47
29.080        53
29.100        80
29.120        40
29.140        60
29.160        93
29.180        53
29.200        47
29.220        73
29.240        47
29.260        33
29.280        73
29.300        80
29.320        40
29.340        40
29.360        20
29.380        60
29.400        47
29.420        27
29.440        67
29.460        87
29.480        47
29.500        33
29.520        47
29.540         0
29.560        33
29.580        27
29.600        60
29.620        73
29.640        33
29.660        40
29.680       100
29.700        40
29.720        60
29.740        53
29.760        40
29.780        67
29.800        53
29.820        27
29.840        67
29.860        40
29.880        27
29.900        20
29.920        33
29.940        53
29.960        33
29.980        53
30.000        93
30.020        40
30.040        47
30.060        40
30.080        47
30.100        40
30.120        53
30.140        40
30.160        53
30.180        93
30.200        33
30.220        40
30.240        73
30.260        67
30.280        87
30.300        53
30.320        67
30.340        47
30.360        47
30.380        80
30.400        60
30.420        67
30.440        60
30.460        60
30.480        53
30.500        33
30.520        27
30.540        33
30.560        40
30.580        53
30.600       100
30.620        80
30.640        67
30.660        47
30.680        73
30.700        47
30.720        20
30.740        40
30.760        67
30.780        80
30.800        87
30.820        87
30.840        93
30.860       107
30.880        87
30.900        93
30.920       127
30.940        87
30.960       140
30.980       173
31.000       200
31.020       293
31.040       307
31.060       453
31.080       380
31.100       393
31.120       280
31.140       267
31.160       233
31.180       187
31.200       120
31.220       227
31.240       147
31.260        80
31.280       100
31.300        87
31.320        73
31.340        47
31.360        40
31.380        60
31.400        33
31.420       113
31.440        80
31.460        73
31.480        87
31.500        40
31.520        27
31.540        40
31.560        93
31.580        67
31.600        60
31.620        47
31.640        67
31.660        60
31.680       127
31.700        67
31.720        73
31.740        87
31.760        40
31.780        27
31.800        47
31.820        40
31.840        73
31.860        27
31.880        40
31.900        40
31.920        47
31.940        47
31.960        27
31.980        67
32.000        73
32.020        47
32.040        47
32.060        53
32.080        53
32.100        27
32.120        60
32.140        47
32.160        40
32.180        60
32.200        73
32.220        20
32.240        47
32.260        33
32.280        67
32.300        67
32.320        20
32.340        53
32.360        80
32.380         7
32.400        47
32.420        40
32.440        40
32.460        40
32.480        40
32.500        20
32.520        60
32.540        67
32.560        73
32.580        40
32.600        67
32.620        60
32.640        20
32.660        67
32.680        53
32.700        53
32.720        27
32.740        47
32.760        53
32.780        53
32.800        40
32.820        47
32.840        73
32.860        33
32.880        67
32.900        20
32.920        73
32.940        27
32.960         7
32.980        20
33.000        47
33.020        80
33.040        27
33.060        53
33.080        20
33.100        47
33.120        60
33.140        40
33.160        13
33.180        33
33.200        53
33.220        80
33.240        40
33.260        60
33.280        47
33.300        40
33.320        40
33.340        67
33.360        20
33.380        33
33.400        13
33.420        40
33.440        27
33.460        40
33.480        47
33.500        53
33.520        47
33.540        67
33.560        73
33.580        67
33.600        67
33.620        40
33.640        60
33.660        33
33.680        47
33.700        40
33.720        40
33.740        40
33.760        40
33.780        40
33.800        33
33.820        27
33.840        33
33.860        33
33.880        40
33.900        60
33.920        53
33.940        40
33.960        40
33.980        67
34.000        27
34.020        53
34.040        40
34.060        47
34.080        73
34.100        47
34.120        53
34.140        40
34.160        40
34.180        60
34.200        33
34.220        33
34.240        47
34.260        73
34.280        53
34.300        47
34.320        33
34.340        40
34.360        80
34.380        53
34.400        53
34.420        87
34.440        33
34.460        47
34.480        40
34.500        27
34.520        40
34.540        13
34.560        40
34.580        60
34.600        27
34.620        40
34.640        60
34.660        27
34.680        47
34.700        67
34.720        27
34.740        67
34.760        40
34.780        53
34.800        40
34.820        67
34.840        40
34.860        33
34.880        40
34.900        53
34.920        67
34.940        80
34.960        80
34.980        60
35.000        67
35.020        60
35.040        67
35.060        87
35.080       140
35.100       180
35.120       280
35.140       260
35.160       187
35.180       193
35.200       307
35.220       120
35.240       173
35.260       120
35.280        67
35.300        80
35.320        67
35.340        73
35.360        33
35.380        40
35.400        53
35.420        40
35.440        80
35.460        60
35.480        60
35.500        67
35.520        60
35.540        40
35.560        53
35.580        53
35.600        47
35.620        67
35.640        33
35.660        47
35.680        60
35.700        67
35.720        67
35.740        33
35.760        60
35.780       127
35.800       120
35.820        80
35.840       160
35.860       120
35.880       120
35.900       107
35.920       113
35.940        47
35.960        47
35.980        53
36.000        53
36.020        53
36.040        67
36.060        47
36.080        80
36.100        47
36.120        80
36.140        60
36.160        20
36.180        47
36.200        87
36.220        33
36.240        33
36.260        27
36.280        33
36.300        47
36.320        60
36.340        53
36.360        60
36.380        40
36.400        67
36.420        47
36.440        47
36.460        53
36.480        60
36.500        47
36.520        40
36.540        27
36.560        67
36.580        33
36.600        67
36.620        40
36.640        73
36.660        20
36.680        13
36.700        33
36.720        53
36.740        47
36.760        60
36.780        33
36.800        47
36.820        33
36.840        60
36.860        33
36.880        60
36.900        80
36.920        47
36.940        40
36.960        13
36.980        40
37.000        67
37.020        60
37.040        67
37.060        40
37.080        27
37.100        47
37.120        67
37.140        27
37.160        47
37.180        40
37.200        40
37.220        40
37.240        40
37.260        27
37.280        13
37.300        53
37.320        33
37.340        40
37.360        53
37.380        73
37.400        73
37.420        40
37.440        53
37.460        80
37.480        33
37.500        53
37.520        33
37.540        60
37.560        33
37.580        73
37.600        47
37.620        13
37.640        73
37.660        47
37.680        60
37.700        40
37.720        93
37.740        87
37.760        87
37.780        93
37.800        87
37.820       113
37.840        87
37.860        60
37.880        67
37.900        60
37.920        60
37.940        60
37.960        87
37.980        67
38.000        87
38.020        47
38.040        67
38.060        93
38.080       113
38.100       107
38.120        60
38.140        53
38.160        67
38.180        87
38.200        93
38.220       120
38.240        80
38.260        87
38.280       107
38.300       167
38.320       173
38.340       107
38.360       100
38.380        87
38.400       140
38.420       127
38.440       100
38.460        60
38.480       200
38.500       120
38.520       140
38.540        93
38.560       113
38.580        93
38.600       100
38.620       127
38.640       147
38.660       133
38.680       153
38.700       153
38.720       127
38.740        87
38.760       120
38.780       133
38.800       140
38.820       153
38.840       207
38.860       167
38.880       127
38.900       133
38.920       213
38.940       213
38.960       140
38.980       107
39.000       140
39.020       153
39.040       127
39.060       200
39.080       213
39.100       193
39.120       160
39.140       173
39.160       133
39.180       213
39.200       127
39.220       173
39.240       107
39.260       167
39.280       180
39.300       247
39.320       207
39.340       213
39.360       207
39.380       253
39.400       260
39.420       213
39.440       407
39.460       280
39.480       387
39.500       420
39.520       460
39.540       573
39.560       800
39.580       760
39.600       813
39.620      1206
39.640      1613
39.660      1653
39.680      2073
39.700      2666
39.720      3652
39.740      5051
39.760      7417
39.780      9503
39.800     12362
39.820     13668
39.840     14408
39.860     13761
39.880     12368
39.900     11142
39.920     10562
39.940      9550
39.960      7750
39.980      5718
40.000      4532
40.020      3312
40.040      2219
40.060      1879
40.080      1546
40.100      1233
40.120       940
40.140       900
40.160       626
40.180       480
40.200       526
40.220       446
40.240       433
40.260       333
40.280       367
40.300       327
40.320       313
40.340       293
40.360       253
40.380       200
40.400       147
40.420       213
40.440       173
40.460       207
40.480       193
40.500       220
40.520       187
40.540       207
40.560       180
40.580       147
40.600       173
40.620       147
40.640       140
40.660       127
40.680       160
40.700       107
40.720       167
40.740        87
40.760       160
40.780        93
40.800       153
40.820       127
40.840       113
40.860       100
40.880       153
40.900       153
40.920       153
40.940        73
40.960       187
40.980       120
41.000       100
41.020       140
41.040        87
41.060        80
41.080       120
41.100        67
41.120        53
41.140       100
41.160        93
41.180       120
41.200        87
41.220        87
41.240       100
41.260        87
41.280        87
41.300       133
41.320       113
41.340        53
41.360        80
41.380       107
41.400        80
41.420        93
41.440        73
41.460        67
41.480        93
41.500       107
41.520        80
41.540       147
41.560       107
41.580        93
41.600       160
41.620       120
41.640       187
41.660        80
41.680       180
41.700       167
41.720       133
41.740        73
41.760       127
41.780       107
41.800       100
41.820        93
41.840        67
41.860       127
41.880        80
41.900       113
41.920        73
41.940        60
41.960        80
41.980        33
42.000        60
42.020       107
42.040        87
42.060        80
42.080        67
42.100        80
42.120        73
42.140       100
42.160        53
42.180        73
42.200        73
42.220        47
42.240        67
42.260       107
42.280        87
42.300        87
42.320        87
42.340       100
42.360        40
42.380        67
42.400        67
42.420        47
42.440       100
42.460        93
42.480        60
42.500       100
42.520        67
42.540        67
42.560        67
42.580        60
42.600        67
42.620        93
42.640        33
42.660        47
42.680        53
42.700        73
42.720        47
42.740        87
42.760        67
42.780        47
42.800        67
42.820       120
42.840        53
42.860        73
42.880        53
42.900        67
42.920        40
42.940        87
42.960        87
42.980        73
43.000        40
43.020        20
43.040       100
43.060        60
43.080       120
43.100        60
43.120        47
43.140        73
43.160        47
43.180        80
43.200        87
43.220       113
43.240       113
43.260       107
43.280       113
43.300       207
43.320       340
43.340       360
43.360       440
43.380       273
43.400       200
43.420       233
43.440       180
43.460       260
43.480       240
43.500       140
43.520       127
43.540        93
43.560        93
43.580       100
43.600       107
43.620       113
43.640        53
43.660        60
43.680        53
43.700       100
43.720        80
43.740        60
43.760       120
43.780       127
43.800        27
43.820        33
43.840        60
43.860        67
43.880        53
43.900        53
43.920        53
43.940        53
43.960        73
43.980        80
44.000        67
44.020        60
44.040        53
44.060        67
44.080        73
44.100        60
44.120        60
44.140        40
44.160        33
44.180       107
44.200        73
44.220        60
44.240        47
44.260        73
44.280        67
44.300        60
44.320        67
44.340        73
44.360        87
44.380        47
44.400        93
44.420        53
44.440       160
44.460        93
44.480        87
44.500        87
44.520        80
44.540       147
44.560       120
44.580       100
44.600        73
44.620        93
44.640        87
44.660        87
44.680        73
44.700        87
44.720       107
44.740        87
44.760        73
44.780        67
44.800        60
44.820        80
44.840        60
44.860        60
44.880        60
44.900        53
44.920        60
44.940        40
44.960        73
44.980        47
45.000        60
45.020        60
45.040        60
45.060       120
45.080        73
45.100       100
45.120        33
45.140        53
45.160        53
45.180        60
45.200        53
45.220        60
45.240       107
45.260        87
45.280        53
45.300        73
45.320        40
45.340        60
45.360        53
45.380        60
45.400        67
45.420        20
45.440        67
45.460        33
45.480        80
45.500        60
45.520        60
45.540        60
45.560        80
45.580        67
45.600        67
45.620        47
45.640        40
45.660        53
45.680        20
45.700        47
45.720        40
45.740        53
45.760        87
45.780        47
45.800        47
45.820        53
45.840        60
45.860        53
45.880        80
45.900        47
45.920        53
45.940        27
45.960        47
45.980        67
46.000        60
46.020        67
46.040        53
46.060         7
46.080        40
46.100        53
46.120        40
46.140        93
46.160        47
46.180        73
46.200        47
46.220        40
46.240        73
46.260        67
46.280        53
46.300        80
46.320        67
46.340        47
46.360       133
46.380        53
46.400        87
46.420        47
46.440       107
46.460        93
46.480        60
46.500        73
46.520        47
46.540        33
46.560        33
46.580        27
46.600        27
46.620        33
46.640        67
46.660        53
46.680        93
46.700        40
46.720        53
46.740        40
46.760        40
46.780        53
46.800        40
46.820        40
46.840        53
46.860        73
46.880        80
46.900        47
46.920         0
46.940        67
46.960        67
46.980        13
47.000        60
47.020        53
47.040        60
47.060        47
47.080        53
47.100       100
47.120        60
47.140        20
47.160        73
47.180        80
47.200        80
47.220        73
47.240        60
47.260        67
47.280        67
47.300        53
47.320       107
47.340        80
47.360        33
47.380        27
47.400        47
47.420        60
47.440        73
47.460        47
47.480        67
47.500        27
47.520        33
47.540        33
47.560        33
47.580        40
47.600        87
47.620        47
47.640        27
47.660        33
47.680        20
47.700        40
47.720        60
47.740        47
47.760        33
47.780        40
47.800        67
47.820        40
47.840        20
47.860        20
47.880        40
47.900        20
47.920        47
47.940        13
47.960        47
47.980        27
48.000        60
48.020        33
48.040        40
48.060        33
48.080        33
48.100        53
48.120        67
48.140        27
48.160        33
48.180        67
48.200        13
48.220        53
48.240        47
48.260        33
48.280        53
48.300        60
48.320        87
48.340        40
48.360        33
48.380        40
48.400        60
48.420        40
48.440        60
48.460        40
48.480        40
48.500        33
48.520        40
48.540        40
48.560        33
48.580        53
48.600        60
48.620        73
48.640        27
48.660        40
48.680        33
48.700        13
48.720        40
48.740        60
48.760        53
48.780        20
48.800        33
48.820        67
48.840        47
48.860        60
48.880        33
48.900        27
48.920        27
48.940        40
48.960        47
48.980        40
49.000        87
49.020        67
49.040        27
49.060        40
49.080        40
49.100        33
49.120        27
49.140        27
49.160        47
49.180        20
49.200        73
49.220        67
49.240        53
49.260        53
49.280        67
49.300        33
49.320        27
49.340        27
49.360        47
49.380        27
49.400        13
49.420        60
49.440        47
49.460        13
49.480        87
49.500        60
49.520        53
49.540        27
49.560        80
49.580        53
49.600        60
49.620        47
49.640        33
49.660        47
49.680        40
49.700        33
49.720        53
49.740        33
49.760        47
49.780         7
49.800        13
49.820        33
49.840        47
49.860        53
49.880        47
49.900        87
49.920        47
49.940        47
49.960        20
49.980        40
50.000        73
50.020        47
50.040        80
50.060        40
50.080        33
50.100        40
50.120        47
50.140        40
50.160        47
50.180        53
50.200        33
50.220        47
50.240        27
50.260        33
50.280        33
50.300        40
50.320        40
50.340        53
50.360         0
50.380        27
50.400        20
50.420        27
50.440        40
50.460        73
50.480        47
50.500        33
50.520        40
50.540        33
50.560        27
50.580        53
50.600        20
50.620        60
50.640        27
50.660        53
50.680        40
50.700        60
50.720        40
50.740        53
50.760        47
50.780        53
50.800        40
50.820        33
50.840        33
50.860        53
50.880        40
50.900        47
50.920        27
50.940        33
50.960        47
50.980        27
51.000         7
51.020        13
51.040        13
51.060        47
51.080        60
51.100        40
51.120        40
51.140        33
51.160        47
51.180        40
51.200        27
51.220        53
51.240        33
51.260        47
51.280        27
51.300        27
51.320        47
51.340        33
51.360        33
51.380        13
51.400        33
51.420        73
51.440        33
51.460        33
51.480        27
51.500        20
51.520        20
51.540         0
51.560        20
51.580        53
51.600        33
51.620        27
51.640        33
51.660        40
51.680        40
51.700        27
51.720        53
51.740        60
51.760        53
51.780        20
51.800        60
51.820        40
51.840        33
51.860        33
51.880        53
51.900        53
51.920        20
51.940        47
51.960         0
51.980        40
52.000        33
52.020        60
52.040        33
52.060        27
52.080        47
52.100        53
52.120        67
52.140        60
52.160        47
52.180        13
52.200        40
52.220        33
52.240        13
52.260        53
52.280        40
52.300        33
52.320        67
52.340        33
52.360         7
52.380        20
52.400        27
52.420        40
52.440        53
52.460        53
52.480        40
52.500        53
52.520        80
52.540       100
52.560        67
52.580       100
52.600       100
52.620        73
52.640        67
52.660        40
52.680        87
52.700        53
52.720       113
52.740        60
52.760        27
52.780        40
52.800        47
52.820        67
52.840        67
52.860        20
52.880        13
52.900        73
52.920        27
52.940        40
52.960        27
52.980        27
53.000        20
53.020        27
53.040        27
53.060        27
53.080        40
53.100        20
53.120         7
53.140        27
53.160        40
53.180        27
53.200        20
53.220        33
53.240        47
53.260        40
53.280        47
53.300        60
53.320        47
53.340        27
53.360        33
53.380        27
53.400        33
53.420        47
53.440        33
53.460        33
53.480        13
53.500        33
53.520        33
53.540        47
53.560        40
53.580         7
53.600        20
53.620        47
53.640        47
53.660        53
53.680        27
53.700        60
53.720        47
53.740        27
53.760        20
53.780        33
53.800        47
53.820        20
53.840        27
53.860        60
53.880        40
53.900        20
53.920        73
53.940        40
53.960        27
53.980        33
54.000        20
54.020        27
54.040        60
54.060        20
54.080        13
54.100        53
54.120        20
54.140        27
54.160        33
54.180        27
54.200        33
54.220        53
54.240        20
54.260        27
54.280        60
54.300        33
54.320        27
54.340        20
54.360        53
54.380        47
54.400        47
54.420        40
54.440        40
54.460        53
54.480        80
54.500        27
54.520        53
54.540        20
54.560        20
54.580        20
54.600        20
54.620        40
54.640        27
54.660        33
54.680        33
54.700        27
54.720        47
54.740        20
54.760        27
54.780        27
54.800        33
54.820        27
54.840        60
54.860        13
54.880        40
54.900        33
54.920        40
54.940        67
54.960        20
54.980        20
55.000        40
55.020        87
55.040        40
55.060        67
55.080        40
55.100        33
55.120        80
55.140        73
55.160        60
55.180        20
55.200        87
55.220       120
55.240        40
55.260        80
55.280       113
55.300        73
55.320       107
55.340        93
55.360       113
55.380        87
55.400       100
55.420        80
55.440        67
55.460        93
55.480        67
55.500        67
55.520        67
55.540        47
55.560        40
55.580        40
55.600        67
55.620        60
55.640        40
55.660        47
55.680        80
55.700        47
55.720        33
55.740         7
55.760        40
55.780        27
55.800        20
55.820        47
55.840        53
55.860        20
55.880        33
55.900        13
55.920        27
55.940        33
55.960        13
55.980        33
56.000        27
56.020        47
56.040        67
56.060        33
56.080        53
56.100        33
56.120        40
56.140         7
56.160        47
56.180         7
56.200        20
56.220        13
56.240        33
56.260        20
56.280        60
56.300        60
56.320        53
56.340        20
56.360        53
56.380        47
56.400        27
56.420        60
56.440        40
56.460        27
56.480        33
56.500        40
56.520        33
56.540       100
56.560        60
56.580        27
56.600        20
56.620        40
56.640        40
56.660        33
56.680         7
56.700        33
56.720        33
56.740        47
56.760        40
56.780        33
56.800        13
56.820        13
56.840        20
56.860        27
56.880        33
56.900        40
56.920        20
56.940        27
56.960        40
56.980        60
57.000        20
57.020        60
57.040        47
57.060        40
57.080        20
57.100        53
57.120        47
57.140        13
57.160        60
57.180        53
57.200        33
57.220        60
57.240        73
57.260        33
57.280        60
57.300        20
57.320        47
57.340        47
57.360        53
57.380        40
57.400        80
57.420        47
57.440       140
57.460       187
57.480       293
57.500       327
57.520       287
57.540       180
57.560       127
57.580        87
57.600       100
57.620       180
57.640       180
57.660       193
57.680       160
57.700       100
57.720        47
57.740        53
57.760        47
57.780        60
57.800        87
57.820        33
57.840        20
57.860        33
57.880        53
57.900        33
57.920        13
57.940        33
57.960        27
57.980        20
58.000        27
58.020        40
58.040        40
58.060        33
58.080        27
58.100        40
58.120        27
58.140        40
58.160        40
58.180        33
58.200        40
58.220        13
58.240        47
58.260        13
58.280        20
58.300        60
58.320        13
58.340        13
58.360        33
58.380        33
58.400        27
58.420        27
58.440        27
58.460        27
58.480        53
58.500        47
58.520        40
58.540        33
58.560        27
58.580        27
58.600        20
58.620         7
58.640        33
58.660        27
58.680        27
58.700        40
58.720        13
58.740        13
58.760        33
58.780        13
58.800        47
58.820        47
58.840        53
58.860        60
58.880        27
58.900        13
58.920        67
58.940        33
58.960        13
58.980        53
59.000         0
59.020        40
59.040        13
59.060        33
59.080        20
59.100        27
59.120         7
59.140        20
59.160        20
59.180        20
59.200        40
59.220        47
59.240        27
59.260        53
59.280        33
59.300        27
59.320        27
59.340        33
59.360        40
59.380        27
59.400        40
59.420        27
59.440        47
59.460        20
59.480        27
59.500        13
59.520        53
59.540        40
59.560         7
59.580        33
59.600        33
59.620        33
59.640        33
59.660        20
59.680        27
59.700        20
59.720        27
59.740        33
59.760        20
59.780        27
59.800        27
59.820        80
59.840        87
59.860        33
59.880        33
59.900        60
59.920        13
59.940         0
59.960         0
59.980         0
60.000         0
