20.000         0
20.020         0
20.040         0
20.060         0
20.080         0
20.100         0
20.120         0
20.140         0
20.160         3
20.180        17
20.200       400
20.220       420
20.240       433
20.260       440
20.280       387
20.300       217
20.320       347
20.340       257
20.360       307
20.380       190
20.400       240
20.420       223
20.440       227
20.460       240
20.480       283
20.500       243
20.520       263
20.540       193
20.560       197
20.580       230
20.600       237
20.620       233
20.640       200
20.660       253
20.680       247
20.700       237
20.720       223
20.740       240
20.760       210
20.780       200
20.800       237
20.820       267
20.840       220
20.860       280
20.880       250
20.900       243
20.920       263
20.940       240
20.960       237
20.980       210
21.000       240
21.020       280
21.040       223
21.060       223
21.080       263
21.100       273
21.120       247
21.140       203
21.160       230
21.180       193
21.200       273
21.220       277
21.240       270
21.260       257
21.280       227
21.300       220
21.320       213
21.340       220
21.360       260
21.380       223
21.400       243
21.420       220
21.440       210
21.460       213
21.480       237
21.500       280
21.520       210
21.540       243
21.560       183
21.580       260
21.600       227
21.620       233
21.640       240
21.660       227
21.680       220
21.700       303
21.720       310
21.740       360
21.760       297
21.780       320
21.800       377
21.820       390
21.840       397
21.860       423
21.880       453
21.900       417
21.920       357
21.940       320
21.960       313
21.980       233
22.000       280
22.020       203
22.040       223
22.060       263
22.080       240
22.100       290
22.120       273
22.140       227
22.160       263
22.180       213
22.200       257
22.220       207
22.240       217
22.260       293
22.280       200
22.300       210
22.320       217
22.340       143
22.360       177
22.380       210
22.400       233
22.420       190
22.440       197
22.460       167
22.480       223
22.500       187
22.520       203
22.540       160
22.560       230
22.580       243
22.600       180
22.620       197
22.640       233
22.660       223
22.680       190
22.700       220
22.720       243
22.740       203
22.760       203
22.780       167
22.800       157
22.820       193
22.840       247
22.860       263
22.880       157
22.900       203
22.920       153
22.940       227
22.960       220
22.980       247
23.000       180
23.020       173
23.040       200
23.060       197
23.080       173
23.100       177
23.120       213
23.140       180
23.160       200
23.180       193
23.200       183
23.220       190
23.240       177
23.260       120
23.280       173
23.300       213
23.320       247
23.340       203
23.360       163
23.380       147
23.400       170
23.420       183
23.440       230
23.460       173
23.480       193
23.500       160
23.520       197
23.540       217
23.560       153
23.580       187
23.600       193
23.620       187
23.640       210
23.660       163
23.680       163
23.700       153
23.720       190
23.740       197
23.760       170
23.780       177
23.800       137
23.820       137
23.840       177
23.860       193
23.880       163
23.900       153
23.920       187
23.940       183
23.960       163
23.980       150
24.000       193
24.020       190
24.040       153
24.060       123
24.080       193
24.100       180
24.120       177
24.140       223
24.160       180
24.180       217
24.200       153
24.220       213
24.240       160
24.260       163
24.280       207
24.300       167
24.320       167
24.340       170
24.360       193
24.380       207
24.400       150
24.420       170
24.440       183
24.460       190
24.480       140
24.500       197
24.520       167
24.540       183
24.560       140
24.580       150
24.600       140
24.620       187
24.640       220
24.660       210
24.680       220
24.700       197
24.720       163
24.740       167
24.760       163
24.780       153
24.800       177
24.820       187
24.840       153
24.860       197
24.880       157
24.900       153
24.920       200
24.940       143
24.960       167
24.980       207
25.000       157
25.020       180
25.040       157
25.060       217
25.080       180
25.100       167
25.120       160
25.140       117
25.160       170
25.180       183
25.200       187
25.220       180
25.240       157
25.260       187
25.280       130
25.300       147
25.320       140
25.340       183
25.360       120
25.380       167
25.400       173
25.420       163
25.440       207
25.460       187
25.480       170
25.500       227
25.520       177
25.540       197
25.560       280
25.580       230
25.600       263
25.620       197
25.640       187
25.660       273
25.680       190
25.700       170
25.720       130
25.740       163
25.760       177
25.780       183
25.800       157
25.820       133
25.840       130
25.860       153
25.880       177
25.900       147
25.920       173
25.940       163
25.960       157
25.980       140
26.000       153
26.020       190
26.040       130
26.060       130
26.080       153
26.100       137
26.120       140
26.140       173
26.160       160
26.180       200
26.200       137
26.220       163
26.240       150
26.260       133
26.280       147
26.300       150
26.320       123
26.340       150
26.360       163
26.380       137
26.400       127
26.420       127
26.440       183
26.460       143
26.480       170
26.500       160
26.520       207
26.540       153
26.560       123
26.580       137
26.600       190
26.620       110
26.640       100
26.660       157
26.680       163
26.700       107
26.720       157
26.740       143
26.760       153
26.780       133
26.800       150
26.820       167
26.840       140
26.860       107
26.880       127
26.900       130
26.920       157
26.940       150
26.960       113
26.980       150
27.000       167
27.020       127
27.040       123
27.060       150
27.080       167
27.100       163
27.120       187
27.140       110
27.160       127
27.180       130
27.200       107
27.220       110
27.240       160
27.260       120
27.280       107
27.300       140
27.320       147
27.340       153
27.360       167
27.380       133
27.400       133
27.420       147
27.440       143
27.460       117
27.480       157
27.500       183
27.520       117
27.540       107
27.560       133
27.580       143
27.600       153
27.620       133
27.640       130
27.660       127
27.680       137
27.700       100
27.720       127
27.740       120
27.760       137
27.780       140
27.800       113
27.820       127
27.840       150
27.860       110
27.880       153
27.900       127
27.920       150
27.940       150
27.960       167
27.980       153
28.000       147
28.020       113
28.040       147
28.060       133
28.080       193
28.100       163
28.120       190
28.140       173
28.160       200
28.180       247
28.200       263
28.220       363
28.240       440
28.260       470
28.280       533
28.300       596
28.320       550
28.340       653
28.360       546
28.380       510
28.400       446
28.420       350
28.440       290
28.460       280
28.480       230
28.500       193
28.520       147
28.540       150
28.560       150
28.580       140
28.600       150
28.620        97
28.640       130
28.660       153
28.680       110
28.700       163
28.720       137
28.740       103
28.760       110
28.780       127
28.800       113
28.820       157
28.840       130
28.860       123
28.880       123
28.900       113
28.920       137
28.940       150
28.960       137
28.980       130
29.000        87
29.020       150
29.040       120
29.060       140
29.080       103
29.100       137
29.120       140
29.140       167
29.160       127
29.180       127
29.200       147
29.220       103
29.240       127
29.260       130
29.280       130
29.300       183
29.320       107
29.340       130
29.360       120
29.380       133
29.400        93
29.420       110
29.440       130
29.460       110
29.480       110
29.500       150
29.520       123
29.540       110
29.560       107
29.580       130
29.600        97
29.620       113
29.640        73
29.660       130
29.680       127
29.700       130
29.720        97
29.740       110
29.760        70
29.780       110
29.800       100
29.820        97
29.840       107
29.860       100
29.880        90
29.900       120
29.920       123
29.940       133
29.960       127
29.980       110
30.000       103
30.020        73
30.040       127
30.060        93
30.080       107
30.100       127
30.120       120
30.140        97
30.160       123
30.180        97
30.200       137
30.220       117
30.240        97
30.260       110
30.280        87
30.300       120
30.320       110
30.340       117
30.360        90
30.380        93
30.400       120
30.420        97
30.440       117
30.460       100
30.480       137
30.500       130
30.520       120
30.540       110
30.560       137
30.580       120
30.600       120
30.620       117
30.640       123
30.660       100
30.680       133
30.700       103
30.720       147
30.740       123
30.760       107
30.780       100
30.800       140
30.820       150
30.840       187
30.860       127
30.880       113
30.900       187
30.920       223
30.940       170
30.960       290
30.980       310
31.000       327
31.020       413
31.040       410
31.060       533
31.080       513
31.100       526
31.120       516
31.140       460
31.160       450
31.180       377
31.200       383
31.220       210
31.240       203
31.260       173
31.280       157
31.300       180
31.320       123
31.340       163
31.360       120
31.380        83
31.400       127
31.420        87
31.440        83
31.460       157
31.480       120
31.500        93
31.520       137
31.540       117
31.560       103
31.580        90
31.600       107
31.620        97
31.640       113
31.660        97
31.680       107
31.700       107
31.720       110
31.740        93
31.760        83
31.780        97
31.800        87
31.820       133
31.840        90
31.860       127
31.880       120
31.900        93
31.920       110
31.940        93
31.960        90
31.980       100
32.000        80
32.020       103
32.040       113
32.060       103
32.080       107
32.100       100
32.120        90
32.140       123
32.160        90
32.180       103
32.200       100
32.220       123
32.240       113
32.260       110
32.280       120
32.300       107
32.320       107
32.340       130
32.360        60
32.380       103
32.400        60
32.420        87
32.440       147
32.460       103
32.480       103
32.500       110
32.520       107
32.540       123
32.560       103
32.580       100
32.600       120
32.620        87
32.640        93
32.660        93
32.680       123
32.700       123
32.720       117
32.740        73
32.760       140
32.780        93
32.800        93
32.820       113
32.840       117
32.860        77
32.880       120
32.900       103
32.920        80
32.940       120
32.960       110
32.980        77
33.000       133
33.020       107
33.040        97
33.060       110
33.080       147
33.100       117
33.120       113
33.140        97
33.160       110
33.180       100
33.200       120
33.220       117
33.240       123
33.260       180
33.280       130
33.300       143
33.320       100
33.340       173
33.360       167
33.380       137
33.400       120
33.420       137
33.440       120
33.460       170
33.480       117
33.500       150
33.520       210
33.540       143
33.560       170
33.580       210
33.600       197
33.620       223
33.640       177
33.660       247
33.680       280
33.700       297
33.720       343
33.740       400
33.760       480
33.780       476
33.800       630
33.820       746
33.840       930
33.860      1133
33.880      1513
33.900      1829
33.920      2349
33.940      2532
33.960      2762
33.980      3142
34.000      3239
34.020      3405
34.040      3265
34.060      3109
34.080      2696
34.100      2416
34.120      1979
34.140      1643
34.160      1316
34.180      1130
34.200       806
34.220       706
34.240       593
34.260       500
34.280       360
34.300       367
34.320       310
34.340       260
34.360       257
34.380       220
34.400       213
34.420       187
34.440       177
34.460       180
34.480       127
34.500       157
34.520       170
34.540       143
34.560       127
34.580       133
34.600       117
34.620       150
34.640       100
34.660       117
34.680        87
34.700       150
34.720        90
34.740       113
34.760       120
34.780       100
34.800       123
34.820       113
34.840        73
34.860       147
34.880        97
34.900       117
34.920       113
34.940        87
34.960       110
34.980        90
35.000        60
35.020        87
35.040       107
35.060        77
35.080        87
35.100        87
35.120       110
35.140       107
35.160        90
35.180       103
35.200        90
35.220        87
35.240        90
35.260        83
35.280        87
35.300        87
35.320        77
35.340       113
35.360        90
35.380        80
35.400       100
35.420        83
35.440        93
35.460        90
35.480       123
35.500       107
35.520        80
35.540       117
35.560        93
35.580       110
35.600        87
35.620        80
35.640        93
35.660       107
35.680       123
35.700       107
35.720        77
35.740        77
35.760        97
35.780        93
35.800        67
35.820       100
35.840        73
35.860       107
35.880        67
35.900        83
35.920        87
35.940        73
35.960        87
35.980        90
36.000       100
36.020       137
36.040       100
36.060       117
36.080       117
36.100       127
36.120        97
36.140       140
36.160       147
36.180       137
36.200       127
36.220       143
36.240       123
36.260       110
36.280       107
36.300        93
36.320       103
36.340        97
36.360       100
36.380       103
36.400       127
36.420        83
36.440        80
36.460       127
36.480        87
36.500       103
36.520        97
36.540       107
36.560       113
36.580       103
36.600       113
36.620        90
36.640        80
36.660       100
36.680       153
36.700       100
36.720        97
36.740        73
36.760       103
36.780        80
36.800        50
36.820        77
36.840        77
36.860        93
36.880        70
36.900        93
36.920        80
36.940        83
36.960        90
36.980        77
37.000        93
37.020        67
37.040       123
37.060        57
37.080        97
37.100        87
37.120        70
37.140        73
37.160       100
37.180        93
37.200        97
37.220        70
37.240        97
37.260       107
37.280        83
37.300        80
37.320        87
37.340        70
37.360        87
37.380        73
37.400        83
37.420        67
37.440        83
37.460        83
37.480        80
37.500        93
37.520       103
37.540        83
37.560        87
37.580       100
37.600       100
37.620        57
37.640        73
37.660        43
37.680        80
37.700        80
37.720       100
37.740        83
37.760        57
37.780        90
37.800        87
37.820        83
37.840       100
37.860        73
37.880       113
37.900       103
37.920        87
37.940       117
37.960       143
37.980       127
38.000       123
38.020       167
38.040       170
38.060       123
38.080       237
38.100       160
38.120       297
38.140       253
38.160       353
38.180       377
38.200       533
38.220       703
38.240       733
38.260       916
38.280       963
38.300      1123
38.320      1140
38.340      1183
38.360      1150
38.380       976
38.400       993
38.420       813
38.440       716
38.460       613
38.480       440
38.500       350
38.520       353
38.540       290
38.560       217
38.580       173
38.600       123
38.620       120
38.640       117
38.660        83
38.680       120
38.700       123
38.720       113
38.740       130
38.760        73
38.780       117
38.800        87
38.820       110
38.840        73
38.860        90
38.880        87
38.900       103
38.920        77
38.940       107
38.960        67
38.980        87
39.000        67
39.020       103
39.040       110
39.060        77
39.080       120
39.100       107
39.120        77
39.140        67
39.160       100
39.180       103
39.200       110
39.220        63
39.240        90
39.260       100
39.280       100
39.300       137
39.320       127
39.340       143
39.360       123
39.380       170
39.400       173
39.420       173
39.440       190
39.460       193
39.480       250
39.500       210
39.520       217
39.540       207
39.560       223
39.580       243
39.600       143
39.620       150
39.640       180
39.660       150
39.680       103
39.700       153
39.720       137
39.740       100
39.760       100
39.780        93
39.800       103
39.820        83
39.840       130
39.860       120
39.880       107
39.900       133
39.920       127
39.940       113
39.960       127
39.980        73
40.000       103
40.020       123
40.040       103
40.060       130
40.080       117
40.100       123
40.120       117
40.140       127
40.160        97
40.180       103
40.200       100
40.220       107
40.240        87
40.260       107
40.280       133
40.300        87
40.320       107
40.340        83
40.360        97
40.380        57
40.400        83
40.420        93
40.440        90
40.460        57
40.480        80
40.500        83
40.520        70
40.540        50
40.560        77
40.580        77
40.600        40
40.620        83
40.640        57
40.660        97
40.680        83
40.700        70
40.720       103
40.740        77
40.760       130
40.780        83
40.800        90
40.820        93
40.840       103
40.860       153
40.880       153
40.900       187
40.920       203
40.940       173
40.960       250
40.980       270
41.000       353
41.020       400
41.040       403
41.060       530
41.080       570
41.100       673
41.120       593
41.140       506
41.160       560
41.180       480
41.200       397
41.220       337
41.240       337
41.260       263
41.280       230
41.300       157
41.320       177
41.340       130
41.360       130
41.380       110
41.400       110
41.420       110
41.440       107
41.460       137
41.480       113
41.500       113
41.520       100
41.540        93
41.560        87
41.580        77
41.600        80
41.620        87
41.640        73
41.660        77
41.680        60
41.700        83
41.720        57
41.740        83
41.760       103
41.780        73
41.800        73
41.820        63
41.840        93
41.860        50
41.880        77
41.900        43
41.920       100
41.940        90
41.960        70
41.980        67
42.000        63
42.020        77
42.040        43
42.060        80
42.080        83
42.100        77
42.120        73
42.140        53
42.160        87
42.180        70
42.200        60
42.220        90
42.240       103
42.260        50
42.280        80
42.300        90
42.320        67
42.340        73
42.360        83
42.380        63
42.400       100
42.420        53
42.440        67
42.460       100
42.480        77
42.500       127
42.520        93
42.540       117
42.560        60
42.580        97
42.600       113
42.620       103
42.640       133
42.660        90
42.680       100
42.700        87
42.720       103
42.740       117
42.760        87
42.780       110
42.800       120
42.820       103
42.840        70
42.860       100
42.880        87
42.900        80
42.920        83
42.940       100
42.960       113
42.980       113
43.000        97
43.020        80
43.040        80
43.060        97
43.080       123
43.100       110
43.120       107
43.140       120
43.160        90
43.180        63
43.200       103
43.220        77
43.240        67
43.260       133
43.280        73
43.300        87
43.320       103
43.340       113
43.360        97
43.380        80
43.400        97
43.420       117
43.440        63
43.460        60
43.480        97
43.500       127
43.520       107
43.540        97
43.560        83
43.580       103
43.600       107
43.620       100
43.640        80
43.660       113
43.680        67
43.700        97
43.720       130
43.740       107
43.760       110
43.780       130
43.800       110
43.820       127
43.840       130
43.860        90
43.880       120
43.900        87
43.920       107
43.940       120
43.960       127
43.980       117
44.000       140
44.020       123
44.040       133
44.060       183
44.080       173
44.100       217
44.120       203
44.140       173
44.160       217
44.180       287
44.200       290
44.220       367
44.240       343
44.260       450
44.280       590
44.300       743
44.320       743
44.340       956
44.360      1176
44.380      1489
44.400      1843
44.420      2322
44.440      2662
44.460      3172
44.480      3509
44.500      3958
44.520      4048
44.540      4448
44.560      4548
44.580      4365
44.600      3868
44.620      3808
44.640      3285
44.660      2952
44.680      2492
44.700      2196
44.720      1673
44.740      1383
44.760      1110
44.780       826
44.800       776
44.820       530
44.840       426
44.860       337
44.880       317
44.900       303
44.920       217
44.940       260
44.960       200
44.980       217
45.000       220
45.020       200
45.040       263
45.060       210
45.080       233
45.100       180
45.120       177
45.140       203
45.160       117
45.180       133
45.200       160
45.220       157
45.240       170
45.260       117
45.280       103
45.300       113
45.320       107
45.340       113
45.360       113
45.380        83
45.400        73
45.420        93
45.440       100
45.460        67
45.480        83
45.500       117
45.520        73
45.540        83
45.560        67
45.580       110
45.600       110
45.620        97
45.640        87
45.660        90
45.680        90
45.700        47
45.720        83
45.740        87
45.760        63
45.780        63
45.800        57
45.820       113
45.840        83
45.860       100
45.880       107
45.900       107
45.920       140
45.940       110
45.960        83
45.980       107
46.000        97
46.020        90
46.040       117
46.060        83
46.080        70
46.100        83
46.120        87
46.140       123
46.160       100
46.180       123
46.200        83
46.220        80
46.240        90
46.260        50
46.280       117
46.300        70
46.320        77
46.340        90
46.360        60
46.380       107
46.400        87
46.420       107
46.440        73
46.460       117
46.480        70
46.500        80
46.520        97
46.540        93
46.560       100
46.580        93
46.600        73
46.620       130
46.640        70
46.660        80
46.680        93
46.700        93
46.720        70
46.740       103
46.760        83
46.780        63
46.800       100
46.820        60
46.840        73
46.860        77
46.880        93
46.900        77
46.920        77
46.940        80
46.960        90
46.980        97
47.000        53
47.020        50
47.040        73
47.060        73
47.080        63
47.100        93
47.120       107
47.140        57
47.160        73
47.180        73
47.200       110
47.220       100
47.240        60
47.260        70
47.280        63
47.300        50
47.320       100
47.340        77
47.360        83
47.380        70
47.400        77
47.420        80
47.440        90
47.460        83
47.480        73
47.500        60
47.520        80
47.540        73
47.560        73
47.580        67
47.600        70
47.620        47
47.640        83
47.660        97
47.680        80
47.700        80
47.720        83
47.740        63
47.760        67
47.780        47
47.800        47
47.820        77
47.840        87
47.860        77
47.880        67
47.900        70
47.920        87
47.940        70
47.960        80
47.980        73
48.000        83
48.020        73
48.040        83
48.060        83
48.080        37
48.100        67
48.120        80
48.140        53
48.160        57
48.180        80
48.200        60
48.220        57
48.240        87
48.260        80
48.280        70
48.300       107
48.320        77
48.340        97
48.360        70
48.380        73
48.400        70
48.420        57
48.440        87
48.460        67
48.480        63
48.500        70
48.520        50
48.540        63
48.560        67
48.580        57
48.600        77
48.620        83
48.640        60
48.660        80
48.680        43
48.700        83
48.720        70
48.740        87
48.760        53
48.780        73
48.800        70
48.820        60
48.840       110
48.860        87
48.880        53
48.900        67
48.920        80
48.940        73
48.960        53
48.980        77
49.000        80
49.020        73
49.040        77
49.060        67
49.080        67
49.100        70
49.120       103
49.140        73
49.160        70
49.180        67
49.200        77
49.220        87
49.240       107
49.260        60
49.280        80
49.300        83
49.320        63
49.340        53
49.360        40
49.380        93
49.400       103
49.420        93
49.440        87
49.460        87
49.480        93
49.500        60
49.520        77
49.540        67
49.560        57
49.580        83
49.600        47
49.620        60
49.640       107
49.660        70
49.680        87
49.700        57
49.720        87
49.740        47
49.760        57
49.780        87
49.800        67
49.820       110
49.840        93
49.860        73
49.880        53
49.900        73
49.920        50
49.940       110
49.960        73
49.980        77
50.000        67
50.020        67
50.040        53
50.060        80
50.080       103
50.100        93
50.120        63
50.140        67
50.160        83
50.180        53
50.200        63
50.220        70
50.240        80
50.260        57
50.280        53
50.300        80
50.320       130
50.340        80
50.360        73
50.380        63
50.400        50
50.420        73
50.440        70
50.460        83
50.480        73
50.500        87
50.520        67
50.540        83
50.560        60
50.580        70
50.600        93
50.620        60
50.640        90
50.660        80
50.680        73
50.700        80
50.720       113
50.740        80
50.760        73
50.780        80
50.800        63
50.820        67
50.840        97
50.860        97
50.880        67
50.900        93
50.920       123
50.940       107
50.960       113
50.980       123
51.000        87
51.020       107
51.040       100
51.060        87
51.080        80
51.100        73
51.120       123
51.140        90
51.160        67
51.180       100
51.200       123
51.220        93
51.240        90
51.260       107
51.280       120
51.300        90
51.320        90
51.340        93
51.360       143
51.380       110
51.400       110
51.420        87
51.440        70
51.460        83
51.480       123
51.500        87
51.520        93
51.540       113
51.560        83
51.580        97
51.600       103
51.620       117
51.640       100
51.660        90
51.680        77
51.700       127
51.720        83
51.740        90
51.760        97
51.780        93
51.800       113
51.820       100
51.840       137
51.860        93
51.880        73
51.900       143
51.920        97
51.940       103
51.960       103
51.980        90
52.000       117
52.020       150
52.040       127
52.060       107
52.080        87
52.100       120
52.120        97
52.140       160
52.160       133
52.180       153
52.200       150
52.220       143
52.240       147
52.260       140
52.280       177
52.300       163
52.320       140
52.340       147
52.360       170
52.380       240
52.400       227
52.420       210
52.440       267
52.460       423
52.480       423
52.500       740
52.520      1030
52.540      1533
52.560      1929
52.580      1666
52.600      1196
52.620       770
52.640       670
52.660       690
52.680       816
52.700      1026
52.720       983
52.740       680
52.760       410
52.780       277
52.800       190
52.820       227
52.840       200
52.860       167
52.880       163
52.900       143
52.920       150
52.940       177
52.960       157
52.980       137
53.000       140
53.020       133
53.040       150
53.060       147
53.080       120
53.100       120
53.120       130
53.140       107
53.160       130
53.180       143
53.200       143
53.220       120
53.240       113
53.260       143
53.280       150
53.300       147
53.320       120
53.340       150
53.360       123
53.380       120
53.400        97
53.420       127
53.440       100
53.460        97
53.480       107
53.500       120
53.520       110
53.540       143
53.560       143
53.580       177
53.600       150
53.620       130
53.640       147
53.660       140
53.680       130
53.700       120
53.720       153
53.740       123
53.760       133
53.780       137
53.800       100
53.820       100
53.840       117
53.860       127
53.880        83
53.900        70
53.920        87
53.940       100
53.960        87
53.980       107
54.000       113
54.020        93
54.040        87
54.060        63
54.080        83
54.100        70
54.120        77
54.140        73
54.160        67
54.180        93
54.200       100
54.220       100
54.240        80
54.260       103
54.280        40
54.300        83
54.320        90
54.340       100
54.360       103
54.380       117
54.400        73
54.420        83
54.440        87
54.460        67
54.480        87
54.500        87
54.520       100
54.540        77
54.560       103
54.580       100
54.600        57
54.620        77
54.640        83
54.660        90
54.680       113
54.700        90
54.720        87
54.740        70
54.760       117
54.780        83
54.800        80
54.820        67
54.840       120
54.860        73
54.880       100
54.900        93
54.920        73
54.940        87
54.960       120
54.980        90
55.000        90
55.020       150
55.040        77
55.060       110
55.080       107
55.100       163
55.120       163
55.140       227
55.160       207
55.180       257
55.200       337
55.220       357
55.240       377
55.260       407
55.280       490
55.300       407
55.320       513
55.340       453
55.360       463
55.380       357
55.400       370
55.420       387
55.440       340
55.460       317
55.480       340
55.500       223
55.520       197
55.540       157
55.560       183
55.580       160
55.600       157
55.620       117
55.640        63
55.660        93
55.680        93
55.700        87
55.720        93
55.740        83
55.760       103
55.780        77
55.800        63
55.820        67
55.840       103
55.860        50
55.880        83
55.900        77
55.920        60
55.940        80
55.960        70
55.980        93
56.000        67
56.020       107
56.040        77
56.060        80
56.080        80
56.100        93
56.120        40
56.140        77
56.160        90
56.180       120
56.200        73
56.220        60
56.240        73
56.260        73
56.280       100
56.300        70
56.320       117
56.340        60
56.360        80
56.380        73
56.400        77
56.420        60
56.440        87
56.460        50
56.480        73
56.500        77
56.520        77
56.540        97
56.560        60
56.580        70
56.600        80
56.620        73
56.640        67
56.660        67
56.680        57
56.700        43
56.720        53
56.740        47
56.760        50
56.780        60
56.800        63
56.820        73
56.840        57
56.860        60
56.880        57
56.900        70
56.920        53
56.940        77
56.960       100
56.980        67
57.000        70
57.020        30
57.040        77
57.060        47
57.080        63
57.100        60
57.120        70
57.140        83
57.160        73
57.180        53
57.200        50
57.220        73
57.240        60
57.260        67
57.280        57
57.300        47
57.320        53
57.340        50
57.360        43
57.380        47
57.400        87
57.420        63
57.440        70
57.460        63
57.480        53
57.500        43
57.520        47
57.540        43
57.560        50
57.580        43
57.600        57
57.620        53
57.640        80
57.660        60
57.680        53
57.700        83
57.720        77
57.740       120
57.760        97
57.780        77
57.800        70
57.820       107
57.840        50
57.860        67
57.880        47
57.900        60
57.920       103
57.940        57
57.960        70
57.980        80
58.000        87
58.020        67
58.040        70
58.060        60
58.080        73
58.100        40
58.120        53
58.140        50
58.160        43
58.180        70
58.200        33
58.220        60
58.240        77
58.260        57
58.280        57
58.300        63
58.320        63
58.340        70
58.360        77
58.380        53
58.400        43
58.420        70
58.440        60
58.460        63
58.480        90
58.500        73
58.520       103
58.540        73
58.560        77
58.580        57
58.600       100
58.620        80
58.640        83
58.660        57
58.680       120
58.700        97
58.720        80
58.740        63
58.760        93
58.780        57
58.800       103
58.820        80
58.840        77
58.860        87
58.880        67
58.900        50
58.920        70
58.940        73
58.960        60
58.980        63
59.000        77
59.020        67
59.040        83
59.060        60
59.080        67
59.100        63
59.120        90
59.140        80
59.160        60
59.180        73
59.200        73
59.220        67
59.240        77
59.260        57
59.280        90
59.300        87
59.320        63
59.340        37
59.360        53
59.380        57
59.400        70
59.420        70
59.440        73
59.460        40
59.480        73
59.500        50
59.520        53
59.540        43
59.560        63
59.580        43
59.600        57
59.620        60
59.640        53
59.660        50
59.680        40
59.700        70
59.720        60
59.740        50
59.760        50
59.780        57
59.800        33
59.820        67
59.840        47
59.860        70
59.880        73
59.900        57
59.920        57
59.940        50
59.960        67
59.980        57
60.000        60
