20.000         0
20.020         0
20.040         0
20.060         0
20.080         0
20.100         0
20.120         0
20.140         0
20.160         0
20.180         0
20.200       733
20.220       843
20.240       913
20.260       913
20.280       926
20.300       813
20.320       946
20.340       906
20.360       780
20.380       823
20.400       906
20.420       906
20.440       793
20.460       880
20.480       926
20.500       896
20.520       796
20.540      1000
20.560       810
20.580       816
20.600       853
20.620       813
20.640       883
20.660       916
20.680       836
20.700       930
20.720       816
20.740      1000
20.760       850
20.780       780
20.800       833
20.820       936
20.840       850
20.860       853
20.880       880
20.900       843
20.920       920
20.940       896
20.960       950
20.980       866
21.000       853
21.020       770
21.040       833
21.060       950
21.080       856
21.100       850
21.120       890
21.140       876
21.160       963
21.180       816
21.200       840
21.220       850
21.240       976
21.260       846
21.280       943
21.300       846
21.320       840
21.340       903
21.360       783
21.380       863
21.400       916
21.420       970
21.440       890
21.460       833
21.480       820
21.500       853
21.520       873
21.540       783
21.560       766
21.580       793
21.600       910
21.620       756
21.640       776
21.660       740
21.680       823
21.700       823
21.720       833
21.740       773
21.760       763
21.780       633
21.800       736
21.820       823
21.840       770
21.860       823
21.880       700
21.900       733
21.920       843
21.940       730
21.960       740
21.980       626
22.000       706
22.020       683
22.040       840
22.060       680
22.080       720
22.100       666
22.120       806
22.140       670
22.160       613
22.180       713
22.200       656
22.220       660
22.240       706
22.260       726
22.280       706
22.300       666
22.320       700
22.340       716
22.360       596
22.380       646
22.400       716
22.420       643
22.440       620
22.460       710
22.480       796
22.500       686
22.520       676
22.540       630
22.560       700
22.580       696
22.600       786
22.620       700
22.640       656
22.660       586
22.680       696
22.700       586
22.720       583
22.740       693
22.760       716
22.780       616
22.800       600
22.820       660
22.840       693
22.860       676
22.880       606
22.900       670
22.920       693
22.940       720
22.960       666
22.980       756
23.000       653
23.020       683
23.040       656
23.060       613
23.080       666
23.100       603
23.120       600
23.140       696
23.160       620
23.180       596
23.200       623
23.220       690
23.240       600
23.260       623
23.280       556
23.300       713
23.320       696
23.340       576
23.360       610
23.380       543
23.400       596
23.420       640
23.440       593
23.460       683
23.480       573
23.500       553
23.520       560
23.540       533
23.560       713
23.580       583
23.600       706
23.620       646
23.640       590
23.660       663
23.680       626
23.700       600
23.720       616
23.740       570
23.760       603
23.780       646
23.800       670
23.820       560
23.840       580
23.860       593
23.880       593
23.900       553
23.920       570
23.940       563
23.960       500
23.980       463
24.000       546
24.020       566
24.040       600
24.060       546
24.080       573
24.100       586
24.120       593
24.140       636
24.160       503
24.180       560
24.200       570
24.220       590
24.240       596
24.260       506
24.280       576
24.300       540
24.320       536
24.340       510
24.360       463
24.380       566
24.400       513
24.420       443
24.440       553
24.460       520
24.480       520
24.500       493
24.520       536
24.540       510
24.560       393
24.580       523
24.600       536
24.620       536
24.640       496
24.660       470
24.680       510
24.700       553
24.720       603
24.740       640
24.760       660
24.780       613
24.800       653
24.820       663
24.840       600
24.860       623
24.880       666
24.900       613
24.920       530
24.940       560
24.960       520
24.980       480
25.000       486
25.020       546
25.040       506
25.060       510
25.080       490
25.100       476
25.120       503
25.140       480
25.160       483
25.180       463
25.200       460
25.220       433
25.240       463
25.260       543
25.280       446
25.300       463
25.320       407
25.340       480
25.360       483
25.380       417
25.400       536
25.420       383
25.440       440
25.460       417
25.480       490
25.500       360
25.520       423
25.540       413
25.560       456
25.580       450
25.600       407
25.620       423
25.640       436
25.660       443
25.680       350
25.700       410
25.720       413
25.740       353
25.760       330
25.780       400
25.800       420
25.820       357
25.840       353
25.860       320
25.880       407
25.900       317
25.920       333
25.940       420
25.960       373
25.980       360
26.000       367
26.020       310
26.040       347
26.060       353
26.080       347
26.100       307
26.120       333
26.140       293
26.160       347
26.180       337
26.200       343
26.220       320
26.240       357
26.260       340
26.280       330
26.300       307
26.320       310
26.340       363
26.360       370
26.380       403
26.400       367
26.420       340
26.440       343
26.460       357
26.480       360
26.500       303
26.520       367
26.540       320
26.560       280
26.580       313
26.600       353
26.620       347
26.640       330
26.660       367
26.680       340
26.700       383
26.720       300
26.740       327
26.760       340
26.780       300
26.800       267
26.820       270
26.840       353
26.860       337
26.880       293
26.900       293
26.920       250
26.940       337
26.960       313
26.980       283
27.000       267
27.020       323
27.040       353
27.060       333
27.080       307
27.100       310
27.120       303
27.140       370
27.160       297
27.180       313
27.200       303
27.220       250
27.240       220
27.260       250
27.280       263
27.300       267
27.320       273
27.340       217
27.360       247
27.380       313
27.400       250
27.420       257
27.440       270
27.460       253
27.480       307
27.500       313
27.520       263
27.540       287
27.560       257
27.580       267
27.600       270
27.620       233
27.640       287
27.660       270
27.680       237
27.700       257
27.720       270
27.740       227
27.760       250
27.780       283
27.800       243
27.820       233
27.840       277
27.860       247
27.880       250
27.900       247
27.920       297
27.940       270
27.960       263
27.980       233
28.000       230
28.020       213
28.040       253
28.060       273
28.080       270
28.100       230
28.120       257
28.140       313
28.160       283
28.180       220
28.200       330
28.220       237
28.240       237
28.260       240
28.280       323
28.300       230
28.320       263
28.340       223
28.360       293
28.380       270
28.400       230
28.420       250
28.440       233
28.460       300
28.480       213
28.500       260
28.520       253
28.540       247
28.560       243
28.580       257
28.600       197
28.620       253
28.640       240
28.660       287
28.680       270
28.700       227
28.720       247
28.740       190
28.760       267
28.780       243
28.800       270
28.820       293
28.840       257
28.860       280
28.880       310
28.900       273
28.920       283
28.940       250
28.960       267
28.980       317
29.000       290
29.020       310
29.040       310
29.060       313
29.080       283
29.100       300
29.120       360
29.140       340
29.160       350
29.180       350
29.200       407
29.220       460
29.240       470
29.260       570
29.280       663
29.300       543
29.320       560
29.340       716
29.360       733
29.380       736
29.400       620
29.420       580
29.440       470
29.460       443
29.480       373
29.500       367
29.520       373
29.540       323
29.560       373
29.580       323
29.600       253
29.620       307
29.640       287
29.660       253
29.680       280
29.700       217
29.720       297
29.740       297
29.760       210
29.780       253
29.800       217
29.820       313
29.840       243
29.860       237
29.880       240
29.900       257
29.920       250
29.940       273
29.960       220
29.980       293
30.000       293
30.020       213
30.040       233
30.060       220
30.080       230
30.100       277
30.120       233
30.140       253
30.160       250
30.180       213
30.200       273
30.220       273
30.240       287
30.260       210
30.280       230
30.300       253
30.320       227
30.340       217
30.360       187
30.380       237
30.400       247
30.420       243
30.440       233
30.460       300
30.480       233
30.500       257
30.520       267
30.540       227
30.560       237
30.580       253
30.600       263
30.620       300
30.640       250
30.660       277
30.680       247
30.700       227
30.720       240
30.740       263
30.760       277
30.780       263
30.800       243
30.820       330
30.840       283
30.860       260
30.880       280
30.900       260
30.920       273
30.940       257
30.960       350
30.980       317
31.000       313
31.020       217
31.040       300
31.060       260
31.080       263
31.100       257
31.120       300
31.140       223
31.160       223
31.180       313
31.200       317
31.220       330
31.240       260
31.260       243
31.280       250
31.300       273
31.320       237
31.340       273
31.360       287
31.380       270
31.400       310
31.420       273
31.440       313
31.460       283
31.480       270
31.500       290
31.520       310
31.540       323
31.560       297
31.580       413
31.600       287
31.620       257
31.640       320
31.660       353
31.680       330
31.700       400
31.720       400
31.740       357
31.760       357
31.780       363
31.800       387
31.820       470
31.840       463
31.860       490
31.880       563
31.900       536
31.920       573
31.940       530
31.960       510
31.980       523
32.000       560
32.020       620
32.040       753
32.060      1279
32.080      2396
32.100      4465
32.120      5431
32.140      4981
32.160      3492
32.180      1796
32.200      1030
32.220       766
32.240       703
32.260       613
32.280       590
32.300       490
32.320       523
32.340       407
32.360       423
32.380       426
32.400       456
32.420       387
32.440       357
32.460       377
32.480       353
32.500       473
32.520       347
32.540       350
32.560       420
32.580       426
32.600       490
32.620       417
32.640       383
32.660       367
32.680       357
32.700       353
32.720       380
32.740       383
32.760       367
32.780       430
32.800       383
32.820       307
32.840       333
32.860       377
32.880       337
32.900       330
32.920       323
32.940       340
32.960       393
32.980       383
33.000       367
33.020       400
33.040       373
33.060       333
33.080       413
33.100       347
33.120       420
33.140       330
33.160       400
33.180       350
33.200       320
33.220       360
33.240       367
33.260       340
33.280       393
33.300       330
33.320       347
33.340       297
33.360       343
33.380       347
33.400       340
33.420       347
33.440       360
33.460       330
33.480       357
33.500       350
33.520       377
33.540       347
33.560       400
33.580       310
33.600       377
33.620       413
33.640       343
33.660       303
33.680       337
33.700       357
33.720       350
33.740       387
33.760       330
33.780       400
33.800       370
33.820       317
33.840       413
33.860       413
33.880       323
33.900       397
33.920       370
33.940       363
33.960       303
33.980       353
34.000       313
34.020       380
34.040       387
34.060       330
34.080       407
34.100       380
34.120       403
34.140       383
34.160       323
34.180       410
34.200       347
34.220       360
34.240       397
34.260       363
34.280       313
34.300       380
34.320       407
34.340       486
34.360       586
34.380       763
34.400      1256
34.420      1423
34.440      2016
34.460      1889
34.480      2033
34.500      1856
34.520      1876
34.540      2003
34.560      2046
34.580      1996
34.600      2026
34.620      1973
34.640      2049
34.660      2019
34.680      2176
34.700      1943
34.720      1936
34.740      1899
34.760      2046
34.780      2086
34.800      1946
34.820      1979
34.840      1986
34.860      2043
34.880      2066
34.900      2083
34.920      2132
34.940      1956
34.960      2056
34.980      2026
35.000      2206
35.020      2286
35.040      2176
35.060      2159
35.080      2326
35.100      2319
35.120      2612
35.140      2406
35.160      2416
35.180      2526
35.200      2332
35.220      2659
35.240      2656
35.260      2766
35.280      3165
35.300      3152
35.320      3512
35.340      3575
35.360      3908
35.380      4688
35.400      5648
35.420      7747
35.440     11066
35.460     15537
35.480     20462
35.500     24903
35.520     29272
35.540     33110
35.560     40994
35.580     65654
35.600    150873
35.620    265890
35.640    297041
35.660    297134
35.680    283613
35.700    237862
35.720    235496
35.740    250393
35.760    240141
35.780    181547
35.800     91570
35.820     44869
35.840     31144
35.860     24933
35.880     20005
35.900     15294
35.920     10516
35.940      6971
35.960      5464
35.980      4831
36.000      4408
36.020      3865
36.040      3692
36.060      3622
36.080      3272
36.100      3389
36.120      3012
36.140      2979
36.160      2796
36.180      2939
36.200      2549
36.220      2499
36.240      2466
36.260      2439
36.280      2522
36.300      2219
36.320      2206
36.340      2156
36.360      2119
36.380      2132
36.400      1859
36.420      1829
36.440      1993
36.460      1926
36.480      1886
36.500      1939
36.520      1956
36.540      1726
36.560      1809
36.580      1796
36.600      1719
36.620      1689
36.640      1633
36.660      1726
36.680      1619
36.700      1709
36.720      1539
36.740      1663
36.760      1613
36.780      1403
36.800      1536
36.820      1546
36.840      1396
36.860      1516
36.880      1463
36.900      1576
36.920      1526
36.940      1439
36.960      1536
36.980      1459
37.000      1449
37.020      1473
37.040      1519
37.060      1516
37.080      1346
37.100      1386
37.120      1333
37.140      1369
37.160      1333
37.180      1433
37.200      1423
37.220      1296
37.240      1376
37.260      1286
37.280      1333
37.300      1359
37.320      1433
37.340      1299
37.360      1263
37.380      1453
37.400      1273
37.420      1166
37.440      1333
37.460      1299
37.480      1293
37.500      1259
37.520      1453
37.540      1226
37.560      1459
37.580      1266
37.600      1236
37.620      1279
37.640      1336
37.660      1333
37.680      1266
37.700      1266
37.720      1259
37.740      1293
37.760      1146
37.780      1220
37.800      1323
37.820      1213
37.840      1163
37.860      1200
37.880      1233
37.900      1230
37.920      1243
37.940      1033
37.960      1170
37.980      1146
38.000      1220
38.020      1230
38.040      1259
38.060      1136
38.080      1176
38.100      1086
38.120      1053
38.140      1233
38.160      1173
38.180      1076
38.200      1043
38.220      1110
38.240      1106
38.260      1133
38.280      1140
38.300      1063
38.320      1243
38.340      1030
38.360      1266
38.380      1053
38.400      1036
38.420      1080
38.440       986
38.460      1076
38.480      1223
38.500      1076
38.520      1163
38.540      1073
38.560      1036
38.580      1086
38.600      1146
38.620      1066
38.640      1236
38.660      1030
38.680      1060
38.700      1040
38.720      1020
38.740      1013
38.760      1053
38.780      1090
38.800       893
38.820       990
38.840      1046
38.860      1070
38.880      1026
38.900       916
38.920      1070
38.940       986
38.960       993
38.980      1046
39.000       890
39.020       990
39.040      1026
39.060      1013
39.080       953
39.100      1003
39.120      1026
39.140      1023
39.160      1060
39.180      1093
39.200      1013
39.220      1020
39.240       950
39.260      1130
39.280      1046
39.300      1073
39.320      1093
39.340      1110
39.360       966
39.380      1080
39.400      1106
39.420      1046
39.440       933
39.460      1053
39.480      1060
39.500       933
39.520      1003
39.540       980
39.560       880
39.580      1016
39.600       920
39.620       856
39.640       863
39.660       923
39.680       856
39.700       823
39.720       856
39.740       860
39.760       960
39.780       810
39.800       920
39.820       803
39.840       876
39.860       840
39.880       820
39.900       946
39.920       830
39.940       746
39.960       803
39.980       673
40.000       833
40.020       813
40.040       810
40.060       830
40.080       896
40.100       856
40.120       886
40.140       800
40.160       876
40.180       850
40.200       806
40.220       780
40.240       813
40.260       866
40.280       756
40.300       850
40.320       803
40.340       733
40.360       746
40.380       886
40.400       880
40.420       773
40.440       753
40.460       840
40.480       716
40.500       703
40.520       750
40.540       763
40.560       846
40.580       770
40.600       790
40.620       846
40.640       780
40.660       816
40.680       806
40.700       710
40.720       750
40.740       830
40.760       770
40.780       740
40.800       840
40.820       846
40.840       733
40.860       750
40.880       746
40.900       763
40.920       656
40.940       903
40.960       730
40.980       873
41.000       736
41.020       756
41.040       780
41.060       703
41.080       780
41.100       806
41.120       746
41.140       693
41.160       750
41.180       740
41.200       696
41.220       743
41.240       690
41.260       683
41.280       760
41.300       746
41.320       830
41.340       690
41.360       726
41.380       766
41.400       633
41.420       720
41.440       690
41.460       763
41.480       733
41.500       786
41.520       663
41.540       713
41.560       700
41.580       650
41.600       730
41.620       753
41.640       756
41.660       800
41.680       630
41.700       733
41.720       760
41.740       740
41.760       703
41.780       820
41.800       990
41.820      1096
41.840      1279
41.860      1279
41.880       840
41.900       836
41.920       763
41.940       976
41.960       840
41.980       726
42.000       790
42.020       660
42.040       706
42.060       670
42.080       603
42.100       613
42.120       566
42.140       616
42.160       686
42.180       673
42.200       656
42.220       596
42.240       630
42.260       646
42.280       603
42.300       630
42.320       683
42.340       613
42.360       640
42.380       650
42.400       583
42.420       666
42.440       536
42.460       626
42.480       626
42.500       620
42.520       673
42.540       616
42.560       663
42.580       643
42.600       600
42.620       620
42.640       600
42.660       616
42.680       600
42.700       603
42.720       513
42.740       580
42.760       533
42.780       593
42.800       636
42.820       550
42.840       556
42.860       503
42.880       613
42.900       690
42.920       606
42.940       610
42.960       656
42.980       713
43.000       590
43.020       633
43.040       656
43.060       673
43.080       636
43.100       650
43.120       733
43.140       703
43.160       596
43.180       716
43.200       696
43.220       570
43.240       626
43.260       610
43.280       576
43.300       543
43.320       566
43.340       543
43.360       606
43.380       630
43.400       463
43.420       486
43.440       526
43.460       486
43.480       546
43.500       483
43.520       520
43.540       513
43.560       533
43.580       533
43.600       546
43.620       536
43.640       453
43.660       493
43.680       443
43.700       510
43.720       500
43.740       563
43.760       466
43.780       513
43.800       460
43.820       500
43.840       496
43.860       466
43.880       456
43.900       533
43.920       486
43.940       500
43.960       420
43.980       470
44.000       483
44.020       456
44.040       486
44.060       480
44.080       483
44.100       500
44.120       443
44.140       423
44.160       473
44.180       493
44.200       470
44.220       443
44.240       490
44.260       483
44.280       440
44.300       420
44.320       420
44.340       463
44.360       466
44.380       453
44.400       480
44.420       463
44.440       480
44.460       423
44.480       500
44.500       387
44.520       480
44.540       503
44.560       473
44.580       503
44.600       523
44.620       446
44.640       490
44.660       450
44.680       526
44.700       483
44.720       443
44.740       463
44.760       440
44.780       446
44.800       363
44.820       413
44.840       443
44.860       393
44.880       393
44.900       463
44.920       510
44.940       423
44.960       363
44.980       433
45.000       380
45.020       446
45.040       446
45.060       390
45.080       436
45.100       423
45.120       530
45.140       503
45.160       443
45.180       423
45.200       453
45.220       407
45.240       453
45.260       473
45.280       446
45.300       490
45.320       426
45.340       460
45.360       450
45.380       466
45.400       446
45.420       350
45.440       453
45.460       456
45.480       503
45.500       407
45.520       440
45.540       436
45.560       373
45.580       413
45.600       433
45.620       410
45.640       450
45.660       393
45.680       383
45.700       393
45.720       423
45.740       417
45.760       410
45.780       347
45.800       403
45.820       407
45.840       360
45.860       387
45.880       393
45.900       370
45.920       343
45.940       397
45.960       373
45.980       410
46.000       440
46.020       400
46.040       403
46.060       340
46.080       330
46.100       400
46.120       476
46.140       426
46.160       347
46.180       323
46.200       360
46.220       413
46.240       393
46.260       367
46.280       426
46.300       383
46.320       343
46.340       420
46.360       407
46.380       347
46.400       327
46.420       400
46.440       323
46.460       377
46.480       353
46.500       377
46.520       370
46.540       383
46.560       347
46.580       393
46.600       363
46.620       330
46.640       387
46.660       323
46.680       390
46.700       333
46.720       363
46.740       340
46.760       403
46.780       370
46.800       380
46.820       390
46.840       333
46.860       393
46.880       383
46.900       403
46.920       367
46.940       403
46.960       420
46.980       417
47.000       460
47.020       387
47.040       363
47.060       403
47.080       403
47.100       466
47.120       446
47.140       400
47.160       357
47.180       470
47.200       390
47.220       407
47.240       417
47.260       410
47.280       417
47.300       500
47.320       413
47.340       513
47.360       440
47.380       483
47.400       463
47.420       506
47.440       463
47.460       546
47.480       546
47.500       463
47.520       480
47.540       417
47.560       500
47.580       453
47.600       433
47.620       357
47.640       387
47.660       317
47.680       357
47.700       436
47.720       353
47.740       363
47.760       383
47.780       397
47.800       333
47.820       350
47.840       330
47.860       370
47.880       313
47.900       307
47.920       307
47.940       327
47.960       377
47.980       320
48.000       327
48.020       383
48.040       307
48.060       373
48.080       367
48.100       327
48.120       390
48.140       363
48.160       407
48.180       370
48.200       456
48.220       403
48.240       343
48.260       440
48.280       407
48.300       430
48.320       407
48.340       407
48.360       387
48.380       473
48.400       413
48.420       463
48.440       463
48.460       473
48.480       480
48.500       433
48.520       423
48.540       410
48.560       426
48.580       430
48.600       426
48.620       436
48.640       317
48.660       323
48.680       337
48.700       340
48.720       360
48.740       290
48.760       307
48.780       250
48.800       290
48.820       303
48.840       333
48.860       300
48.880       250
48.900       323
48.920       290
48.940       303
48.960       347
48.980       257
49.000       323
49.020       300
49.040       350
49.060       287
49.080       280
49.100       257
49.120       320
49.140       300
49.160       333
49.180       333
49.200       223
49.220       333
49.240       250
49.260       343
49.280       307
49.300       337
49.320       317
49.340       300
49.360       233
49.380       307
49.400       290
49.420       303
49.440       333
49.460       260
49.480       263
49.500       247
49.520       263
49.540       353
49.560       300
49.580       253
49.600       257
49.620       313
49.640       293
49.660       257
49.680       257
49.700       280
49.720       267
49.740       293
49.760       293
49.780       273
49.800       240
49.820       260
49.840       283
49.860       330
49.880       243
49.900       277
49.920       260
49.940       310
49.960       313
49.980       310
50.000       310
50.020       317
50.040       263
50.060       290
50.080       313
50.100       243
50.120       263
50.140       253
50.160       280
50.180       287
50.200       263
50.220       307
50.240       283
50.260       303
50.280       283
50.300       290
50.320       257
50.340       277
50.360       237
50.380       293
50.400       260
50.420       277
50.440       270
50.460       250
50.480       260
50.500       243
50.520       287
50.540       307
50.560       233
50.580       237
50.600       263
50.620       310
50.640       240
50.660       290
50.680       257
50.700       263
50.720       313
50.740       293
50.760       250
50.780       240
50.800       273
50.820       297
50.840       283
50.860       227
50.880       327
50.900       267
50.920       233
50.940       243
50.960       297
50.980       333
51.000       340
51.020       230
51.040       270
51.060       273
51.080       267
51.100       293
51.120       250
51.140       217
51.160       250
51.180       253
51.200       290
51.220       307
51.240       233
51.260       243
51.280       223
51.300       310
51.320       283
51.340       250
51.360       223
51.380       217
51.400       240
51.420       297
51.440       243
51.460       230
51.480       233
51.500       197
51.520       227
51.540       200
51.560       293
51.580       253
51.600       227
51.620       240
51.640       257
51.660       263
51.680       233
51.700       290
51.720       297
51.740       260
51.760       257
51.780       223
51.800       240
51.820       237
51.840       290
51.860       243
51.880       257
51.900       273
51.920       237
51.940       207
51.960       227
51.980       210
52.000       307
52.020       227
52.040       270
52.060       293
52.080       290
52.100       237
52.120       230
52.140       227
52.160       227
52.180       303
52.200       263
52.220       270
52.240       283
52.260       227
52.280       220
52.300       193
52.320       223
52.340       230
52.360       197
52.380       223
52.400       240
52.420       227
52.440       253
52.460       247
52.480       240
52.500       237
52.520       190
52.540       230
52.560       327
52.580       227
52.600       293
52.620       250
52.640       207
52.660       270
52.680       247
52.700       317
52.720       250
52.740       247
52.760       250
52.780       310
52.800       230
52.820       303
52.840       227
52.860       180
52.880       293
52.900       233
52.920       267
52.940       253
52.960       223
52.980       260
53.000       193
53.020       207
53.040       237
53.060       267
53.080       197
53.100       283
53.120       203
53.140       237
53.160       237
53.180       233
53.200       303
53.220       253
53.240       250
53.260       197
53.280       300
53.300       250
53.320       203
53.340       240
53.360       233
53.380       237
53.400       273
53.420       237
53.440       223
53.460       233
53.480       253
53.500       247
53.520       220
53.540       220
53.560       273
53.580       287
53.600       230
53.620       220
53.640       243
53.660       247
53.680       183
53.700       173
53.720       257
53.740       227
53.760       310
53.780       260
53.800       203
53.820       263
53.840       277
53.860       240
53.880       227
53.900       210
53.920       207
53.940       233
53.960       280
53.980       243
54.000       213
54.020       253
54.040       230
54.060       257
54.080       197
54.100       230
54.120       217
54.140       247
54.160       237
54.180       207
54.200       277
54.220       263
54.240       180
54.260       247
54.280       250
54.300       243
54.320       160
54.340       237
54.360       223
54.380       233
54.400       263
54.420       207
54.440       233
54.460       283
54.480       270
54.500       247
54.520       253
54.540       227
54.560       240
54.580       303
54.600       337
54.620       503
54.640       486
54.660       470
54.680       460
54.700       337
54.720       260
54.740       317
54.760       367
54.780       350
54.800       363
54.820       317
54.840       300
54.860       290
54.880       283
54.900       240
54.920       260
54.940       283
54.960       230
54.980       247
55.000       227
55.020       287
55.040       357
55.060       283
55.080       253
55.100       330
55.120       250
55.140       243
55.160       300
55.180       287
55.200       330
55.220       303
55.240       300
55.260       287
55.280       223
55.300       250
55.320       253
55.340       267
55.360       203
55.380       290
55.400       243
55.420       243
55.440       280
55.460       233
55.480       247
55.500       227
55.520       230
55.540       217
55.560       240
55.580       247
55.600       290
55.620       223
55.640       270
55.660       227
55.680       230
55.700       233
55.720       257
55.740       257
55.760       220
55.780       213
55.800       243
55.820       247
55.840       200
55.860       217
55.880       223
55.900       200
55.920       270
55.940       193
55.960       237
55.980       233
56.000       210
56.020       230
56.040       267
56.060       277
56.080       223
56.100       147
56.120       257
56.140       283
56.160       237
56.180       240
56.200       193
56.220       233
56.240       270
56.260       217
56.280       230
56.300       260
56.320       193
56.340       250
56.360       267
56.380       220
56.400       283
56.420       240
56.440       257
56.460       203
56.480       233
56.500       300
56.520       260
56.540       257
56.560       307
56.580       287
56.600       280
56.620       267
56.640       217
56.660       267
56.680       263
56.700       243
56.720       237
56.740       240
56.760       227
56.780       240
56.800       260
56.820       200
56.840       270
56.860       253
56.880       180
56.900       263
56.920       223
56.940       303
56.960       273
56.980       247
57.000       210
57.020       253
57.040       223
57.060       263
57.080       180
57.100       260
57.120       270
57.140       233
57.160       277
57.180       270
57.200       217
57.220       283
57.240       317
57.260       247
57.280       310
57.300       273
57.320       347
57.340       253
57.360       320
57.380       283
57.400       303
57.420       293
57.440       250
57.460       283
57.480       233
57.500       223
57.520       247
57.540       267
57.560       230
57.580       260
57.600       237
57.620       273
57.640       243
57.660       253
57.680       180
57.700       230
57.720       243
57.740       260
57.760       220
57.780       240
57.800       223
57.820       230
57.840       257
57.860       233
57.880       237
57.900       247
57.920       297
57.940       203
57.960       257
57.980       270
58.000       223
58.020       260
58.040       203
58.060       243
58.080       230
58.100       237
58.120       227
58.140       253
58.160       207
58.180       203
58.200       203
58.220       273
58.240       223
58.260       200
58.280       220
58.300       240
58.320       227
58.340       227
58.360       177
58.380       193
58.400       247
58.420       233
58.440       210
58.460       210
58.480       210
58.500       210
58.520       197
58.540       217
58.560       223
58.580       213
58.600       217
58.620       247
58.640       257
58.660       263
58.680       190
58.700       177
58.720       193
58.740       187
58.760       273
58.780       190
58.800       213
58.820       217
58.840       217
58.860       210
58.880       177
58.900       230
58.920       193
58.940       217
58.960       207
58.980       240
59.000       177
59.020       193
59.040       210
59.060       283
59.080       210
59.100       170
59.120       230
59.140       233
59.160       250
59.180       213
59.200       207
59.220       170
59.240       200
59.260       210
59.280       200
59.300       217
59.320       237
59.340       183
59.360       247
59.380       190
59.400       183
59.420       190
59.440       207
59.460       183
59.480       207
59.500       207
59.520       213
59.540       213
59.560       250
59.580       207
59.600       190
59.620       210
59.640       210
59.660       210
59.680       197
59.700       223
59.720       233
59.740       160
59.760       213
59.780       210
59.800       210
59.820       237
59.840       253
59.860       193
59.880       233
59.900       270
59.920       253
59.940       240
59.960       207
59.980       227
60.000       247
