20.000       297
20.020       360
20.040       260
20.060       390
20.080       337
20.100       307
20.120       260
20.140       280
20.160       327
20.180       300
20.200       357
20.220       313
20.240       347
20.260       317
20.280       317
20.300       320
20.320       273
20.340       263
20.360       303
20.380       310
20.400       323
20.420       293
20.440       320
20.460       303
20.480       343
20.500       273
20.520       303
20.540       310
20.560       233
20.580       270
20.600       333
20.620       343
20.640       300
20.660       327
20.680       387
20.700       290
20.720       367
20.740       290
20.760       253
20.780       287
20.800       270
20.820       320
20.840       343
20.860       327
20.880       330
20.900       307
20.920       263
20.940       357
20.960       330
20.980       337
21.000       313
21.020       287
21.040       390
21.060       330
21.080       237
21.100       370
21.120       307
21.140       303
21.160       353
21.180       277
21.200       343
21.220       330
21.240       330
21.260       320
21.280       287
21.300       436
21.320       337
21.340       393
21.360       343
21.380       327
21.400       287
21.420       367
21.440       307
21.460       303
21.480       293
21.500       320
21.520       287
21.540       300
21.560       303
21.580       293
21.600       317
21.620       290
21.640       310
21.660       307
21.680       347
21.700       337
21.720       243
21.740       307
21.760       253
21.780       297
21.800       323
21.820       297
21.840       310
21.860       317
21.880       317
21.900       247
21.920       337
21.940       287
21.960       283
21.980       300
22.000       290
22.020       297
22.040       307
22.060       293
22.080       307
22.100       300
22.120       233
22.140       290
22.160       317
22.180       323
22.200       327
22.220       280
22.240       320
22.260       310
22.280       327
22.300       307
22.320       250
22.340       293
22.360       290
22.380       273
22.400       250
22.420       267
22.440       347
22.460       273
22.480       317
22.500       297
22.520       320
22.540       337
22.560       337
22.580       360
22.600       260
22.620       280
22.640       327
22.660       297
22.680       307
22.700       330
22.720       320
22.740       337
22.760       300
22.780       313
22.800       300
22.820       287
22.840       273
22.860       303
22.880       303
22.900       307
22.920       287
22.940       310
22.960       330
22.980       280
23.000       300
23.020       293
23.040       337
23.060       300
23.080       303
23.100       267
23.120       320
23.140       293
23.160       323
23.180       267
23.200       310
23.220       357
23.240       343
23.260       330
23.280       277
23.300       303
23.320       330
23.340       320
23.360       277
23.380       303
23.400       347
23.420       317
23.440       323
23.460       333
23.480       310
23.500       340
23.520       330
23.540       347
23.560       360
23.580       397
23.600       320
23.620       317
23.640       303
23.660       307
23.680       353
23.700       367
23.720       293
23.740       327
23.760       363
23.780       293
23.800       307
23.820       327
23.840       280
23.860       307
23.880       317
23.900       300
23.920       300
23.940       260
23.960       330
23.980       287
24.000       223
24.020       323
24.040       347
24.060       243
24.080       330
24.100       320
24.120       270
24.140       287
24.160       237
24.180       307
24.200       287
24.220       297
24.240       270
24.260       360
24.280       253
24.300       287
24.320       283
24.340       287
24.360       300
24.380       243
24.400       240
24.420       287
24.440       257
24.460       313
24.480       260
24.500       287
24.520       287
24.540       243
24.560       297
24.580       283
24.600       320
24.620       320
24.640       313
24.660       330
24.680       347
24.700       273
24.720       350
24.740       347
24.760       313
24.780       343
24.800       373
24.820       330
24.840       380
24.860       423
24.880       387
24.900       390
24.920       423
24.940       360
24.960       287
24.980       257
25.000       287
25.020       327
25.040       340
25.060       273
25.080       227
25.100       253
25.120       243
25.140       277
25.160       333
25.180       277
25.200       300
25.220       283
25.240       260
25.260       273
25.280       257
25.300       230
25.320       287
25.340       233
25.360       230
25.380       270
25.400       220
25.420       230
25.440       273
25.460       237
25.480       253
25.500       273
25.520       260
25.540       277
25.560       240
25.580       213
25.600       250
25.620       223
25.640       233
25.660       200
25.680       267
25.700       217
25.720       260
25.740       193
25.760       250
25.780       240
25.800       147
25.820       243
25.840       230
25.860       193
25.880       183
25.900       257
25.920       220
25.940       263
25.960       213
25.980       263
26.000       220
26.020       227
26.040       253
26.060       230
26.080       200
26.100       240
26.120       203
26.140       250
26.160       177
26.180       173
26.200       233
26.220       240
26.240       250
26.260       230
26.280       213
26.300       190
26.320       237
26.340       273
26.360       240
26.380       263
26.400       203
26.420       247
26.440       243
26.460       250
26.480       203
26.500       253
26.520       280
26.540       230
26.560       297
26.580       390
26.600       280
26.620       370
26.640       353
26.660       340
26.680       446
26.700       343
26.720       327
26.740       303
26.760       300
26.780       287
26.800       277
26.820       297
26.840       197
26.860       230
26.880       187
26.900       213
26.920       197
26.940       200
26.960       267
26.980       240
27.000       223
27.020       193
27.040       203
27.060       230
27.080       217
27.100       293
27.120       213
27.140       187
27.160       220
27.180       217
27.200       210
27.220       143
27.240       233
27.260       167
27.280       203
27.300       177
27.320       200
27.340       187
27.360       200
27.380       137
27.400       220
27.420       203
27.440       170
27.460       197
27.480       207
27.500       197
27.520       157
27.540       150
27.560       183
27.580       230
27.600       207
27.620       147
27.640       153
27.660       187
27.680       207
27.700       223
27.720       200
27.740       170
27.760       227
27.780       200
27.800       177
27.820       183
27.840       177
27.860       160
27.880       233
27.900       190
27.920       183
27.940       177
27.960       160
27.980       153
28.000       213
28.020       187
28.040       130
28.060       200
28.080       167
28.100       197
28.120       183
28.140       187
28.160       207
28.180       193
28.200       187
28.220       183
28.240       150
28.260       130
28.280       193
28.300       170
28.320       167
28.340       203
28.360       173
28.380       227
28.400       167
28.420       233
28.440       177
28.460       173
28.480       230
28.500       150
28.520       123
28.540       163
28.560       190
28.580       170
28.600       200
28.620       237
28.640       213
28.660       153
28.680       183
28.700       110
28.720       140
28.740       177
28.760       187
28.780       193
28.800       257
28.820       190
28.840       223
28.860       237
28.880       207
28.900       250
28.920       230
28.940       237
28.960       243
28.980       300
29.000       317
29.020       333
29.040       387
29.060       297
29.080       453
29.100       337
29.120       317
29.140       310
29.160       323
29.180       317
29.200       417
29.220       353
29.240       377
29.260       480
29.280       360
29.300       523
29.320       466
29.340       543
29.360       573
29.380       683
29.400       636
29.420       523
29.440       523
29.460       476
29.480       377
29.500       313
29.520       293
29.540       210
29.560       273
29.580       287
29.600       233
29.620       217
29.640       227
29.660       220
29.680       207
29.700       140
29.720       233
29.740       177
29.760       143
29.780       177
29.800       210
29.820       173
29.840       137
29.860       180
29.880       223
29.900       183
29.920       217
29.940       137
29.960       177
29.980       143
30.000       163
30.020       167
30.040       177
30.060       160
30.080       137
30.100       187
30.120       180
30.140       173
30.160       203
30.180       107
30.200       147
30.220       190
30.240       190
30.260       173
30.280       160
30.300       133
30.320       173
30.340       203
30.360       177
30.380       187
30.400       157
30.420       160
30.440       173
30.460       163
30.480       163
30.500       147
30.520       160
30.540       143
30.560       190
30.580       163
30.600       173
30.620       190
30.640       147
30.660       177
30.680       147
30.700       170
30.720       210
30.740       177
30.760       170
30.780       207
30.800       200
30.820       150
30.840       153
30.860       190
30.880       180
30.900       163
30.920       193
30.940       167
30.960       213
30.980       167
31.000       163
31.020       187
31.040       217
31.060       177
31.080       197
31.100       167
31.120       177
31.140       170
31.160       133
31.180       207
31.200       147
31.220       187
31.240       213
31.260       180
31.280       190
31.300       177
31.320       160
31.340       193
31.360       170
31.380       130
31.400       173
31.420       163
31.440       183
31.460       217
31.480       197
31.500       160
31.520       183
31.540       150
31.560       187
31.580       237
31.600       193
31.620       217
31.640       200
31.660       220
31.680       203
31.700       167
31.720       193
31.740       213
31.760       177
31.780       213
31.800       157
31.820       227
31.840       280
31.860       260
31.880       307
31.900       320
31.920       303
31.940       277
31.960       330
31.980       277
32.000       317
32.020       403
32.040       496
32.060       626
32.080      1363
32.100      2212
32.120      2576
32.140      2696
32.160      1736
32.180       780
32.200       516
32.220       353
32.240       357
32.260       436
32.280       310
32.300       283
32.320       280
32.340       303
32.360       247
32.380       220
32.400       270
32.420       277
32.440       247
32.460       290
32.480       267
32.500       317
32.520       207
32.540       257
32.560       267
32.580       250
32.600       283
32.620       260
32.640       257
32.660       307
32.680       253
32.700       260
32.720       227
32.740       240
32.760       270
32.780       277
32.800       273
32.820       267
32.840       230
32.860       187
32.880       200
32.900       263
32.920       233
32.940       263
32.960       197
32.980       250
33.000       243
33.020       183
33.040       257
33.060       233
33.080       190
33.100       200
33.120       250
33.140       263
33.160       247
33.180       230
33.200       287
33.220       293
33.240       213
33.260       197
33.280       223
33.300       233
33.320       233
33.340       223
33.360       240
33.380       207
33.400       223
33.420       203
33.440       217
33.460       237
33.480       243
33.500       177
33.520       290
33.540       237
33.560       217
33.580       260
33.600       197
33.620       197
33.640       257
33.660       250
33.680       237
33.700       230
33.720       173
33.740       227
33.760       223
33.780       207
33.800       253
33.820       203
33.840       170
33.860       227
33.880       253
33.900       290
33.920       260
33.940       260
33.960       277
33.980       270
34.000       280
34.020       273
34.040       333
34.060       337
34.080       300
34.100       327
34.120       350
34.140       330
34.160       290
34.180       303
34.200       290
34.220       253
34.240       327
34.260       237
34.280       350
34.300       283
34.320       377
34.340       340
34.360       353
34.380       546
34.400       690
34.420       890
34.440      1033
34.460       980
34.480       916
34.500       936
34.520      1003
34.540      1026
34.560      1116
34.580      1046
34.600       916
34.620       966
34.640      1103
34.660      1103
34.680      1013
34.700      1043
34.720       956
34.740      1090
34.760      1083
34.780      1256
34.800       976
34.820      1113
34.840      1066
34.860      1093
34.880      1040
34.900      1170
34.920       976
34.940      1050
34.960      1233
34.980      1113
35.000      1096
35.020      1200
35.040      1080
35.060      1156
35.080      1223
35.100      1100
35.120      1170
35.140      1176
35.160      1276
35.180      1436
35.200      1396
35.220      1433
35.240      1653
35.260      1763
35.280      1843
35.300      2192
35.320      2866
35.340      3559
35.360      5108
35.380      7097
35.400      9103
35.420     12208
35.440     15331
35.460     19029
35.480     21981
35.500     23857
35.520     25353
35.540     26719
35.560     30998
35.580     46132
35.600    104885
35.620    188241
35.640    230158
35.660    237188
35.680    193423
35.700    138078
35.720    143832
35.740    155501
35.760    144426
35.780     88108
35.800     35996
35.820     17753
35.840     11832
35.860      8846
35.880      7444
35.900      5704
35.920      4488
35.940      3462
35.960      2922
35.980      2502
36.000      2176
36.020      1996
36.040      2046
36.060      1829
36.080      1709
36.100      1533
36.120      1586
36.140      1483
36.160      1446
36.180      1493
36.200      1556
36.220      1366
36.240      1329
36.260      1313
36.280      1196
36.300      1156
36.320      1110
36.340      1076
36.360      1073
36.380      1183
36.400      1040
36.420      1220
36.440      1050
36.460      1036
36.480       960
36.500      1076
36.520       966
36.540       970
36.560      1096
36.580       883
36.600      1056
36.620       853
36.640      1040
36.660       903
36.680       896
36.700       903
36.720       846
36.740       850
36.760       860
36.780       886
36.800       910
36.820       776
36.840       860
36.860       896
36.880       816
36.900       766
36.920       716
36.940       796
36.960       836
36.980       806
37.000       873
37.020       770
37.040       780
37.060       810
37.080       773
37.100       726
37.120       736
37.140       830
37.160       783
37.180       730
37.200       753
37.220       806
37.240       796
37.260       666
37.280       760
37.300       760
37.320       716
37.340       770
37.360       873
37.380       726
37.400       720
37.420       700
37.440       616
37.460       693
37.480       713
37.500       736
37.520       803
37.540       626
37.560       866
37.580       736
37.600       753
37.620       676
37.640       743
37.660       753
37.680       746
37.700       636
37.720       753
37.740       733
37.760       746
37.780       606
37.800       623
37.820       703
37.840       616
37.860       636
37.880       636
37.900       720
37.920       600
37.940       620
37.960       703
37.980       713
38.000       676
38.020       683
38.040       623
38.060       600
38.080       656
38.100       683
38.120       656
38.140       700
38.160       753
38.180       573
38.200       616
38.220       620
38.240       676
38.260       606
38.280       716
38.300       730
38.320       670
38.340       636
38.360       746
38.380       683
38.400       633
38.420       706
38.440       630
38.460       680
38.480       630
38.500       640
38.520       613
38.540       690
38.560       570
38.580       650
38.600       613
38.620       653
38.640       553
38.660       626
38.680       603
38.700       596
38.720       613
38.740       596
38.760       626
38.780       546
38.800       563
38.820       570
38.840       546
38.860       610
38.880       536
38.900       626
38.920       546
38.940       596
38.960       566
38.980       610
39.000       683
39.020       596
39.040       563
39.060       600
39.080       580
39.100       503
39.120       613
39.140       620
39.160       530
39.180       686
39.200       556
39.220       640
39.240       610
39.260       616
39.280       626
39.300       643
39.320       673
39.340       636
39.360       690
39.380       680
39.400       613
39.420       620
39.440       693
39.460       613
39.480       596
39.500       536
39.520       490
39.540       563
39.560       560
39.580       486
39.600       593
39.620       543
39.640       510
39.660       490
39.680       543
39.700       530
39.720       543
39.740       566
39.760       510
39.780       563
39.800       526
39.820       446
39.840       473
39.860       473
39.880       510
39.900       500
39.920       456
39.940       490
39.960       570
39.980       510
40.000       483
40.020       510
40.040       466
40.060       506
40.080       490
40.100       546
40.120       473
40.140       483
40.160       466
40.180       430
40.200       436
40.220       503
40.240       553
40.260       456
40.280       453
40.300       516
40.320       516
40.340       546
40.360       510
40.380       526
40.400       553
40.420       430
40.440       516
40.460       540
40.480       480
40.500       460
40.520       520
40.540       470
40.560       540
40.580       483
40.600       466
40.620       466
40.640       506
40.660       393
40.680       533
40.700       473
40.720       493
40.740       483
40.760       480
40.780       516
40.800       420
40.820       470
40.840       450
40.860       480
40.880       460
40.900       426
40.920       546
40.940       490
40.960       430
40.980       420
41.000       430
41.020       556
41.040       543
41.060       436
41.080       463
41.100       420
41.120       483
41.140       443
41.160       513
41.180       456
41.200       420
41.220       440
41.240       446
41.260       407
41.280       413
41.300       400
41.320       417
41.340       460
41.360       403
41.380       440
41.400       423
41.420       463
41.440       440
41.460       423
41.480       443
41.500       540
41.520       393
41.540       387
41.560       377
41.580       380
41.600       533
41.620       347
41.640       473
41.660       460
41.680       347
41.700       420
41.720       420
41.740       417
41.760       350
41.780       436
41.800       476
41.820       496
41.840       473
41.860       543
41.880       490
41.900       466
41.920       476
41.940       440
41.960       417
41.980       403
42.000       417
42.020       466
42.040       436
42.060       370
42.080       490
42.100       433
42.120       380
42.140       297
42.160       340
42.180       373
42.200       353
42.220       390
42.240       373
42.260       417
42.280       430
42.300       397
42.320       383
42.340       390
42.360       400
42.380       397
42.400       407
42.420       403
42.440       347
42.460       393
42.480       367
42.500       387
42.520       380
42.540       400
42.560       446
42.580       473
42.600       383
42.620       383
42.640       377
42.660       397
42.680       440
42.700       436
42.720       393
42.740       470
42.760       393
42.780       377
42.800       367
42.820       423
42.840       323
42.860       340
42.880       440
42.900       347
42.920       367
42.940       423
42.960       430
42.980       403
43.000       450
43.020       407
43.040       417
43.060       377
43.080       483
43.100       453
43.120       426
43.140       440
43.160       433
43.180       433
43.200       390
43.220       413
43.240       430
43.260       450
43.280       426
43.300       397
43.320       333
43.340       383
43.360       357
43.380       360
43.400       390
43.420       373
43.440       337
43.460       343
43.480       380
43.500       340
43.520       350
43.540       337
43.560       383
43.580       347
43.600       380
43.620       327
43.640       353
43.660       407
43.680       343
43.700       377
43.720       323
43.740       313
43.760       337
43.780       290
43.800       367
43.820       300
43.840       333
43.860       337
43.880       310
43.900       347
43.920       380
43.940       307
43.960       407
43.980       347
44.000       283
44.020       320
44.040       390
44.060       383
44.080       340
44.100       426
44.120       403
44.140       373
44.160       410
44.180       410
44.200       400
44.220       463
44.240       476
44.260       510
44.280       496
44.300       500
44.320       443
44.340       466
44.360       503
44.380       576
44.400       496
44.420       523
44.440       606
44.460       520
44.480       463
44.500       456
44.520       483
44.540       433
44.560       433
44.580       473
44.600       360
44.620       347
44.640       377
44.660       453
44.680       347
44.700       310
44.720       403
44.740       347
44.760       433
44.780       343
44.800       360
44.820       323
44.840       313
44.860       310
44.880       290
44.900       330
44.920       303
44.940       320
44.960       337
44.980       300
45.000       330
45.020       303
45.040       303
45.060       230
45.080       313
45.100       323
45.120       277
45.140       310
45.160       287
45.180       340
45.200       297
45.220       303
45.240       320
45.260       347
45.280       297
45.300       303
45.320       340
45.340       357
45.360       333
45.380       323
45.400       320
45.420       257
45.440       350
45.460       267
45.480       343
45.500       290
45.520       323
45.540       210
45.560       303
45.580       263
45.600       313
45.620       237
45.640       227
45.660       250
45.680       260
45.700       250
45.720       300
45.740       310
45.760       300
45.780       290
45.800       303
45.820       270
45.840       280
45.860       263
45.880       317
45.900       277
45.920       297
45.940       267
45.960       253
45.980       283
46.000       233
46.020       307
46.040       260
46.060       317
46.080       240
46.100       243
46.120       327
46.140       217
46.160       257
46.180       293
46.200       290
46.220       267
46.240       283
46.260       260
46.280       283
46.300       260
46.320       253
46.340       250
46.360       273
46.380       253
46.400       283
46.420       260
46.440       277
46.460       297
46.480       277
46.500       283
46.520       237
46.540       233
46.560       260
46.580       293
46.600       273
46.620       270
46.640       223
46.660       277
46.680       240
46.700       290
46.720       260
46.740       300
46.760       333
46.780       313
46.800       270
46.820       233
46.840       317
46.860       317
46.880       270
46.900       270
46.920       300
46.940       290
46.960       300
46.980       287
47.000       287
47.020       277
47.040       327
47.060       280
47.080       307
47.100       280
47.120       340
47.140       397
47.160       327
47.180       320
47.200       317
47.220       397
47.240       367
47.260       343
47.280       380
47.300       377
47.320       413
47.340       440
47.360       466
47.380       400
47.400       493
47.420       466
47.440       503
47.460       436
47.480       476
47.500       453
47.520       390
47.540       400
47.560       400
47.580       330
47.600       333
47.620       417
47.640       353
47.660       307
47.680       387
47.700       297
47.720       297
47.740       277
47.760       263
47.780       217
47.800       257
47.820       267
47.840       257
47.860       237
47.880       343
47.900       303
47.920       273
47.940       247
47.960       243
47.980       250
48.000       270
48.020       270
48.040       267
48.060       283
48.080       323
48.100       287
48.120       446
48.140       520
48.160       570
48.180       430
48.200       387
48.220       357
48.240       360
48.260       473
48.280       476
48.300       513
48.320       423
48.340       353
48.360       317
48.380       343
48.400       363
48.420       333
48.440       367
48.460       426
48.480       407
48.500       417
48.520       373
48.540       383
48.560       387
48.580       347
48.600       357
48.620       297
48.640       370
48.660       317
48.680       310
48.700       273
48.720       260
48.740       213
48.760       233
48.780       243
48.800       227
48.820       283
48.840       217
48.860       213
48.880       240
48.900       210
48.920       240
48.940       267
48.960       233
48.980       217
49.000       227
49.020       230
49.040       217
49.060       213
49.080       283
49.100       223
49.120       193
49.140       263
49.160       217
49.180       183
49.200       220
49.220       217
49.240       240
49.260       227
49.280       263
49.300       230
49.320       277
49.340       200
49.360       257
49.380       280
49.400       227
49.420       247
49.440       223
49.460       237
49.480       220
49.500       233
49.520       220
49.540       253
49.560       220
49.580       210
49.600       207
49.620       193
49.640       203
49.660       227
49.680       153
49.700       230
49.720       203
49.740       217
49.760       270
49.780       207
49.800       210
49.820       227
49.840       227
49.860       170
49.880       217
49.900       223
49.920       177
49.940       200
49.960       200
49.980       237
50.000       207
50.020       230
50.040       187
50.060       180
50.080       207
50.100       183
50.120       227
50.140       197
50.160       193
50.180       217
50.200       157
50.220       213
50.240       187
50.260       210
50.280       140
50.300       197
50.320       207
50.340       163
50.360       197
50.380       167
50.400       197
50.420       190
50.440       223
50.460       187
50.480       197
50.500       203
50.520       223
50.540       227
50.560       253
50.580       273
50.600       220
50.620       207
50.640       217
50.660       177
50.680       160
50.700       170
50.720       200
50.740       203
50.760       217
50.780       213
50.800       210
50.820       200
50.840       223
50.860       200
50.880       220
50.900       230
50.920       240
50.940       183
50.960       183
50.980       240
51.000       200
51.020       243
51.040       180
51.060       230
51.080       193
51.100       250
51.120       207
51.140       217
51.160       200
51.180       190
51.200       233
51.220       187
51.240       157
51.260       213
51.280       247
51.300       187
51.320       193
51.340       220
51.360       223
51.380       140
51.400       227
51.420       233
51.440       157
51.460       230
51.480       253
51.500       250
51.520       250
51.540       170
51.560       180
51.580       207
51.600       207
51.620       190
51.640       150
51.660       170
51.680       227
51.700       173
51.720       133
51.740       210
51.760       187
51.780       177
51.800       197
51.820       230
51.840       213
51.860       213
51.880       227
51.900       263
51.920       283
51.940       250
51.960       273
51.980       257
52.000       260
52.020       270
52.040       217
52.060       213
52.080       270
52.100       203
52.120       260
52.140       277
52.160       230
52.180       273
52.200       190
52.220       210
52.240       240
52.260       153
52.280       207
52.300       200
52.320       197
52.340       177
52.360       207
52.380       180
52.400       193
52.420       200
52.440       173
52.460       260
52.480       210
52.500       227
52.520       200
52.540       163
52.560       167
52.580       187
52.600       190
52.620       223
52.640       193
52.660       230
52.680       250
52.700       193
52.720       167
52.740       197
52.760       200
52.780       213
52.800       147
52.820       193
52.840       157
52.860       253
52.880       190
52.900       217
52.920       203
52.940       200
52.960       207
52.980       180
53.000       213
53.020       187
53.040       197
53.060       160
53.080       243
53.100       217
53.120       203
53.140       197
53.160       200
53.180       200
53.200       207
53.220       217
53.240       200
53.260       207
53.280       177
53.300       190
53.320       167
53.340       187
53.360       187
53.380       193
53.400       223
53.420       220
53.440       143
53.460       250
53.480       220
53.500       187
53.520       167
53.540       183
53.560       163
53.580       167
53.600       220
53.620       187
53.640       200
53.660       207
53.680       230
53.700       173
53.720       160
53.740       160
53.760       130
53.780       183
53.800       180
53.820       190
53.840       213
53.860       197
53.880       200
53.900       163
53.920       237
53.940       177
53.960       193
53.980       197
54.000       203
54.020       167
54.040       253
54.060       183
54.080       177
54.100       190
54.120       240
54.140       223
54.160       150
54.180       187
54.200       173
54.220       227
54.240       187
54.260       210
54.280       207
54.300       193
54.320       200
54.340       220
54.360       193
54.380       193
54.400       247
54.420       167
54.440       233
54.460       203
54.480       227
54.500       210
54.520       223
54.540       217
54.560       220
54.580       280
54.600       260
54.620       310
54.640       290
54.660       273
54.680       240
54.700       240
54.720       287
54.740       233
54.760       213
54.780       240
54.800       240
54.820       213
54.840       260
54.860       260
54.880       230
54.900       200
54.920       250
54.940       267
54.960       257
54.980       227
55.000       283
55.020       270
55.040       240
55.060       257
55.080       237
55.100       250
55.120       303
55.140       253
55.160       287
55.180       243
55.200       267
55.220       223
55.240       207
55.260       220
55.280       213
55.300       203
55.320       197
55.340       217
55.360       170
55.380       223
55.400       213
55.420       167
55.440       177
55.460       207
55.480       257
55.500       240
55.520       190
55.540       227
55.560       230
55.580       213
55.600       203
55.620       220
55.640       177
55.660       227
55.680       190
55.700       210
55.720       170
55.740       190
55.760       213
55.780       197
55.800       187
55.820       240
55.840       143
55.860       180
55.880       180
55.900       227
55.920       187
55.940       177
55.960       223
55.980       187
56.000       183
56.020       197
56.040       193
56.060       173
56.080       163
56.100       190
56.120       197
56.140       180
56.160       170
56.180       250
56.200       200
56.220       210
56.240       197
56.260       160
56.280       223
56.300       203
56.320       203
56.340       237
56.360       273
56.380       243
56.400       190
56.420       247
56.440       233
56.460       210
56.480       223
56.500       230
56.520       193
56.540       200
56.560       273
56.580       197
56.600       283
56.620       210
56.640       233
56.660       257
56.680       260
56.700       220
56.720       170
56.740       207
56.760       247
56.780       227
56.800       170
56.820       230
56.840       223
56.860       190
56.880       240
56.900       233
56.920       207
56.940       260
56.960       207
56.980       240
57.000       197
57.020       203
57.040       233
57.060       207
57.080       213
57.100       260
57.120       227
57.140       220
57.160       180
57.180       243
57.200       210
57.220       197
57.240       223
57.260       230
57.280       257
57.300       247
57.320       260
57.340       263
57.360       243
57.380       273
57.400       267
57.420       243
57.440       250
57.460       250
57.480       177
57.500       183
57.520       187
57.540       227
57.560       220
57.580       230
57.600       180
57.620       200
57.640       250
57.660       190
57.680       210
57.700       160
57.720       197
57.740       200
57.760       197
57.780       193
57.800       193
57.820       170
57.840       147
57.860       227
57.880       230
57.900       203
57.920       237
57.940       247
57.960       213
57.980       207
58.000       237
58.020       213
58.040       210
58.060       200
58.080       283
58.100       217
58.120       243
58.140       237
58.160       213
58.180       213
58.200       183
58.220       197
58.240       223
58.260       193
58.280       233
58.300       160
58.320       237
58.340       223
58.360       193
58.380       190
58.400       233
58.420       180
58.440       207
58.460       220
58.480       207
58.500       173
58.520       197
58.540       213
58.560       170
58.580       163
58.600       223
58.620       173
58.640       127
58.660       163
58.680       167
58.700       240
58.720       190
58.740       167
58.760       173
58.780       190
58.800       167
58.820       217
58.840       173
58.860       190
58.880       230
58.900       253
58.920       200
58.940       200
58.960       157
58.980       160
59.000       183
59.020       143
59.040       200
59.060       173
59.080       157
59.100       213
59.120       210
59.140       157
59.160       217
59.180       210
59.200       207
59.220       230
59.240       190
59.260       150
59.280       173
59.300       190
59.320       203
59.340       173
59.360       220
59.380       187
59.400       153
59.420       187
59.440       193
59.460       177
59.480       197
59.500       187
59.520       217
59.540       207
59.560       173
59.580       187
59.600       207
59.620       183
59.640       203
59.660       213
59.680       210
59.700       140
59.720       157
59.740       190
59.760       210
59.780       177
59.800       180
59.820        77
59.840         0
59.860         0
59.880         0
59.900         0
59.920         3
59.940         0
59.960         0
59.980         0
60.000         0
