20.000         0
20.020         0
20.040       333
20.060       846
20.080       846
20.100       830
20.120       940
20.140       796
20.160       856
20.180       900
20.200       846
20.220       946
20.240       910
20.260       786
20.280       913
20.300       716
20.320       860
20.340       903
20.360       790
20.380       893
20.400       873
20.420       743
20.440       753
20.460       856
20.480       846
20.500       950
20.520       790
20.540       776
20.560       856
20.580       796
20.600       880
20.620       790
20.640       833
20.660       743
20.680       913
20.700       826
20.720       843
20.740       870
20.760       726
20.780       770
20.800       873
20.820       753
20.840       813
20.860       810
20.880       876
20.900       880
20.920       923
20.940       796
20.960       790
20.980       743
21.000       840
21.020       873
21.040       823
21.060       813
21.080       793
21.100       706
21.120       856
21.140       796
21.160       786
21.180       830
21.200       766
21.220       846
21.240       866
21.260       790
21.280       850
21.300       803
21.320       780
21.340       963
21.360       750
21.380       916
21.400       766
21.420       816
21.440       820
21.460       766
21.480       820
21.500       856
21.520       846
21.540       823
21.560       820
21.580       826
21.600       870
21.620       870
21.640       870
21.660       883
21.680       933
21.700       886
21.720       870
21.740       850
21.760       850
21.780       766
21.800       883
21.820       756
21.840       770
21.860       780
21.880       733
21.900       773
21.920       880
21.940       820
21.960       763
21.980       740
22.000       776
22.020       673
22.040       703
22.060       713
22.080       770
22.100       740
22.120       703
22.140       770
22.160       823
22.180       673
22.200       710
22.220       763
22.240       720
22.260       676
22.280       730
22.300       646
22.320       830
22.340       703
22.360       723
22.380       663
22.400       710
22.420       750
22.440       723
22.460       730
22.480       726
22.500       743
22.520       750
22.540       740
22.560       703
22.580       730
22.600       660
22.620       780
22.640       766
22.660       713
22.680       730
22.700       763
22.720       790
22.740       740
22.760       770
22.780       730
22.800       686
22.820       773
22.840       626
22.860       693
22.880       723
22.900       760
22.920       723
22.940       693
22.960       740
22.980       723
23.000       746
23.020       780
23.040       790
23.060       670
23.080       700
23.100       753
23.120       646
23.140       673
23.160       706
23.180       723
23.200       636
23.220       726
23.240       746
23.260       696
23.280       706
23.300       690
23.320       723
23.340       660
23.360       536
23.380       650
23.400       683
23.420       676
23.440       720
23.460       753
23.480       633
23.500       823
23.520       706
23.540       626
23.560       680
23.580       660
23.600       620
23.620       653
23.640       753
23.660       643
23.680       620
23.700       623
23.720       693
23.740       690
23.760       666
23.780       750
23.800       583
23.820       540
23.840       630
23.860       596
23.880       600
23.900       550
23.920       706
23.940       633
23.960       683
23.980       656
24.000       703
24.020       640
24.040       480
24.060       623
24.080       670
24.100       606
24.120       606
24.140       523
24.160       670
24.180       620
24.200       543
24.220       593
24.240       730
24.260       566
24.280       600
24.300       603
24.320       616
24.340       603
24.360       713
24.380       553
24.400       620
24.420       633
24.440       633
24.460       606
24.480       673
24.500       673
24.520       706
24.540       670
24.560       540
24.580       550
24.600       620
24.620       600
24.640       583
24.660       660
24.680       640
24.700       663
24.720       626
24.740       623
24.760       560
24.780       513
24.800       573
24.820       613
24.840       613
24.860       620
24.880       626
24.900       583
24.920       610
24.940       600
24.960       653
24.980       586
25.000       706
25.020       526
25.040       463
25.060       600
25.080       553
25.100       556
25.120       510
25.140       623
25.160       563
25.180       543
25.200       680
25.220       606
25.240       650
25.260       553
25.280       546
25.300       526
25.320       560
25.340       663
25.360       556
25.380       506
25.400       586
25.420       513
25.440       603
25.460       613
25.480       640
25.500       613
25.520       593
25.540       603
25.560       673
25.580       530
25.600       613
25.620       696
25.640       560
25.660       570
25.680       583
25.700       693
25.720       486
25.740       513
25.760       510
25.780       580
25.800       533
25.820       513
25.840       550
25.860       506
25.880       560
25.900       510
25.920       576
25.940       523
25.960       550
25.980       516
26.000       516
26.020       520
26.040       613
26.060       573
26.080       626
26.100       520
26.120       513
26.140       540
26.160       586
26.180       466
26.200       513
26.220       453
26.240       560
26.260       446
26.280       553
26.300       526
26.320       536
26.340       470
26.360       530
26.380       593
26.400       453
26.420       543
26.440       526
26.460       560
26.480       530
26.500       553
26.520       510
26.540       510
26.560       473
26.580       580
26.600       550
26.620       540
26.640       526
26.660       566
26.680       473
26.700       550
26.720       486
26.740       536
26.760       553
26.780       550
26.800       493
26.820       543
26.840       496
26.860       516
26.880       500
26.900       496
26.920       543
26.940       520
26.960       506
26.980       570
27.000       543
27.020       510
27.040       433
27.060       486
27.080       540
27.100       516
27.120       560
27.140       530
27.160       480
27.180       526
27.200       436
27.220       506
27.240       540
27.260       423
27.280       500
27.300       480
27.320       530
27.340       516
27.360       480
27.380       430
27.400       526
27.420       516
27.440       626
27.460       516
27.480       520
27.500       550
27.520       453
27.540       466
27.560       470
27.580       510
27.600       500
27.620       573
27.640       440
27.660       503
27.680       503
27.700       533
27.720       550
27.740       596
27.760       490
27.780       496
27.800       556
27.820       533
27.840       486
27.860       463
27.880       480
27.900       493
27.920       510
27.940       480
27.960       480
27.980       523
28.000       556
28.020       520
28.040       470
28.060       523
28.080       446
28.100       486
28.120       443
28.140       500
28.160       460
28.180       460
28.200       536
28.220       490
28.240       446
28.260       397
28.280       450
28.300       503
28.320       536
28.340       440
28.360       486
28.380       513
28.400       476
28.420       500
28.440       486
28.460       486
28.480       496
28.500       486
28.520       486
28.540       433
28.560       470
28.580       443
28.600       540
28.620       397
28.640       433
28.660       363
28.680       460
28.700       493
28.720       403
28.740       456
28.760       503
28.780       436
28.800       443
28.820       476
28.840       383
28.860       456
28.880       470
28.900       500
28.920       466
28.940       403
28.960       463
28.980       486
29.000       540
29.020       430
29.040       456
29.060       463
29.080       443
29.100       513
29.120       563
29.140       466
29.160       426
29.180       536
29.200       493
29.220       550
29.240       370
29.260       453
29.280       500
29.300       453
29.320       466
29.340       463
29.360       500
29.380       483
29.400       573
29.420       486
29.440       493
29.460       460
29.480       433
29.500       463
29.520       420
29.540       540
29.560       536
29.580       453
29.600       393
29.620       443
29.640       450
29.660       550
29.680       506
29.700       506
29.720       523
29.740       440
29.760       470
29.780       520
29.800       500
29.820       506
29.840       500
29.860       500
29.880       476
29.900       516
29.920       510
29.940       496
29.960       566
29.980       480
30.000       423
30.020       496
30.040       530
30.060       440
30.080       433
30.100       433
30.120       463
30.140       453
30.160       466
30.180       510
30.200       453
30.220       586
30.240       606
30.260       560
30.280       533
30.300       563
30.320       566
30.340       606
30.360       540
30.380       636
30.400       726
30.420       710
30.440       800
30.460       910
30.480       946
30.500      1150
30.520      1373
30.540      1596
30.560      1743
30.580      2266
30.600      2532
30.620      3275
30.640      3729
30.660      4398
30.680      5335
30.700      6561
30.720      7540
30.740      8170
30.760      9270
30.780      9816
30.800     10109
30.820      9570
30.840      9133
30.860      8190
30.880      7057
30.900      5481
30.920      4208
30.940      3505
30.960      2522
30.980      1796
31.000      1473
31.020      1120
31.040       920
31.060       783
31.080       756
31.100       713
31.120       610
31.140       660
31.160       563
31.180       523
31.200       566
31.220       560
31.240       540
31.260       470
31.280       486
31.300       570
31.320       513
31.340       486
31.360       496
31.380       550
31.400       503
31.420       436
31.440       553
31.460       473
31.480       493
31.500       440
31.520       523
31.540       546
31.560       486
31.580       490
31.600       490
31.620       516
31.640       466
31.660       446
31.680       473
31.700       463
31.720       453
31.740       473
31.760       493
31.780       463
31.800       460
31.820       443
31.840       450
31.860       466
31.880       450
31.900       453
31.920       486
31.940       397
31.960       500
31.980       423
32.000       430
32.020       460
32.040       483
32.060       443
32.080       403
32.100       460
32.120       456
32.140       503
32.160       466
32.180       526
32.200       420
32.220       420
32.240       473
32.260       387
32.280       393
32.300       513
32.320       430
32.340       466
32.360       413
32.380       370
32.400       430
32.420       443
32.440       446
32.460       510
32.480       430
32.500       496
32.520       460
32.540       463
32.560       440
32.580       377
32.600       443
32.620       463
32.640       453
32.660       420
32.680       493
32.700       420
32.720       553
32.740       500
32.760       470
32.780       483
32.800       446
32.820       463
32.840       456
32.860       453
32.880       440
32.900       453
32.920       390
32.940       446
32.960       393
32.980       363
33.000       420
33.020       490
33.040       433
33.060       540
33.080       456
33.100       363
33.120       400
33.140       446
33.160       433
33.180       367
33.200       493
33.220       436
33.240       403
33.260       383
33.280       493
33.300       413
33.320       387
33.340       400
33.360       463
33.380       413
33.400       393
33.420       393
33.440       446
33.460       436
33.480       417
33.500       373
33.520       430
33.540       383
33.560       363
33.580       423
33.600       433
33.620       456
33.640       470
33.660       420
33.680       367
33.700       443
33.720       407
33.740       503
33.760       383
33.780       310
33.800       417
33.820       380
33.840       490
33.860       423
33.880       446
33.900       463
33.920       393
33.940       430
33.960       446
33.980       493
34.000       436
34.020       433
34.040       433
34.060       390
34.080       480
34.100       513
34.120       506
34.140       553
34.160       556
34.180       470
34.200       546
34.220       536
34.240       506
34.260       636
34.280       680
34.300       670
34.320       743
34.340       873
34.360       976
34.380      1136
34.400      1153
34.420      1279
34.440      1299
34.460      1306
34.480      1180
34.500      1093
34.520       966
34.540       950
34.560       743
34.580       773
34.600       683
34.620       680
34.640       536
34.660       590
34.680       583
34.700       550
34.720       533
34.740       483
34.760       516
34.780       446
34.800       476
34.820       433
34.840       566
34.860       503
34.880       500
34.900       493
34.920       496
34.940       590
34.960       570
34.980       516
35.000       583
35.020       636
35.040       710
35.060       793
35.080       850
35.100       833
35.120       903
35.140       870
35.160       896
35.180       876
35.200       853
35.220       813
35.240       706
35.260       546
35.280       650
35.300       616
35.320       530
35.340       483
35.360       453
35.380       476
35.400       450
35.420       426
35.440       436
35.460       460
35.480       397
35.500       456
35.520       367
35.540       506
35.560       476
35.580       453
35.600       430
35.620       413
35.640       433
35.660       463
35.680       476
35.700       440
35.720       436
35.740       513
35.760       476
35.780       410
35.800       520
35.820       500
35.840       480
35.860       490
35.880       400
35.900       456
35.920       466
35.940       380
35.960       436
35.980       456
36.000       480
36.020       450
36.040       433
36.060       500
36.080       453
36.100       520
36.120       463
36.140       513
36.160       503
36.180       417
36.200       453
36.220       486
36.240       490
36.260       503
36.280       530
36.300       443
36.320       456
36.340       493
36.360       506
36.380       546
36.400       463
36.420       526
36.440       530
36.460       570
36.480       473
36.500       453
36.520       526
36.540       400
36.560       560
36.580       443
36.600       516
36.620       563
36.640       530
36.660       456
36.680       500
36.700       656
36.720       580
36.740       590
36.760       550
36.780       610
36.800       563
36.820       693
36.840       776
36.860       900
36.880       863
36.900       970
36.920      1070
36.940      1060
36.960      1010
36.980      1233
37.000      1100
37.020      1140
37.040      1190
37.060      1160
37.080      1289
37.100      1323
37.120      1186
37.140      1196
37.160      1306
37.180      1113
37.200      1363
37.220      1399
37.240      1333
37.260      1263
37.280      1316
37.300      1143
37.320      1336
37.340      1356
37.360      1403
37.380      1529
37.400      1436
37.420      1479
37.440      1563
37.460      1543
37.480      1523
37.500      1619
37.520      1709
37.540      1616
37.560      1729
37.580      1649
37.600      1726
37.620      1869
37.640      1829
37.660      1883
37.680      2083
37.700      2259
37.720      2356
37.740      2622
37.760      2856
37.780      3115
37.800      3319
37.820      3432
37.840      3805
37.860      4282
37.880      4745
37.900      5331
37.920      6441
37.940      7310
37.960      8786
37.980      9973
38.000     11812
38.020     14644
38.040     18126
38.060     22488
38.080     28215
38.100     36719
38.120     46828
38.140     58916
38.160     71601
38.180     83530
38.200     97254
38.220    110356
38.240    117983
38.260    121618
38.280    124247
38.300    120985
38.320    116094
38.340    106254
38.360     96395
38.380     84476
38.400     72681
38.420     59003
38.440     49170
38.460     38745
38.480     30748
38.500     23860
38.520     18882
38.540     15500
38.560     12445
38.580     10702
38.600      8916
38.620      7444
38.640      6597
38.660      5724
38.680      5121
38.700      4658
38.720      4145
38.740      3715
38.760      3522
38.780      3212
38.800      3219
38.820      2942
38.840      2619
38.860      2509
38.880      2329
38.900      2306
38.920      2182
38.940      2129
38.960      2066
38.980      1963
39.000      1983
39.020      1646
39.040      1793
39.060      1759
39.080      1596
39.100      1673
39.120      1613
39.140      1629
39.160      1636
39.180      1356
39.200      1403
39.220      1446
39.240      1426
39.260      1469
39.280      1206
39.300      1266
39.320      1293
39.340      1269
39.360      1223
39.380      1180
39.400      1133
39.420      1170
39.440      1173
39.460      1160
39.480      1096
39.500      1123
39.520      1050
39.540      1066
39.560      1080
39.580      1126
39.600      1103
39.620      1126
39.640       973
39.660      1083
39.680      1056
39.700       986
39.720       983
39.740       986
39.760      1076
39.780       970
39.800       970
39.820       846
39.840       996
39.860       820
39.880       976
39.900       886
39.920       883
39.940       993
39.960       940
39.980       833
40.000       890
40.020       886
40.040       936
40.060       770
40.080       870
40.100       900
40.120       826
40.140       833
40.160       810
40.180       846
40.200       876
40.220       850
40.240       883
40.260       790
40.280       836
40.300       910
40.320       826
40.340       840
40.360       803
40.380       753
40.400       850
40.420       810
40.440       756
40.460       800
40.480       800
40.500       743
40.520       793
40.540       770
40.560       763
40.580       866
40.600       723
40.620       766
40.640       800
40.660       810
40.680       756
40.700       746
40.720       796
40.740       743
40.760       660
40.780       766
40.800       730
40.820       773
40.840       766
40.860       766
40.880       746
40.900       766
40.920       716
40.940       740
40.960       753
40.980       720
41.000       753
41.020       736
41.040       743
41.060       736
41.080       706
41.100       773
41.120       816
41.140       636
41.160       796
41.180       700
41.200       726
41.220       646
41.240       636
41.260       723
41.280       740
41.300       763
41.320       623
41.340       670
41.360       693
41.380       720
41.400       710
41.420       676
41.440       706
41.460       866
41.480       760
41.500       686
41.520       780
41.540       980
41.560       823
41.580       940
41.600      1060
41.620      1150
41.640      1123
41.660      1163
41.680      1026
41.700      1060
41.720      1153
41.740       996
41.760       963
41.780       910
41.800       803
41.820       786
41.840       683
41.860       730
41.880       643
41.900       683
41.920       690
41.940       676
41.960       713
41.980       703
42.000       600
42.020       710
42.040       680
42.060       770
42.080       586
42.100       616
42.120       673
42.140       806
42.160       603
42.180       616
42.200       643
42.220       653
42.240       606
42.260       550
42.280       666
42.300       653
42.320       633
42.340       570
42.360       616
42.380       580
42.400       626
42.420       643
42.440       733
42.460       613
42.480       623
42.500       603
42.520       660
42.540       600
42.560       616
42.580       656
42.600       560
42.620       633
42.640       630
42.660       630
42.680       640
42.700       600
42.720       683
42.740       640
42.760       626
42.780       673
42.800       603
42.820       576
42.840       670
42.860       666
42.880       643
42.900       593
42.920       663
42.940       603
42.960       653
42.980       596
43.000       596
43.020       646
43.040       620
43.060       626
43.080       653
43.100       660
43.120       636
43.140       573
43.160       610
43.180       640
43.200       753
43.220       716
43.240       883
43.260       850
43.280       896
43.300       880
43.320       896
43.340       743
43.360       743
43.380       760
43.400       800
43.420       716
43.440       726
43.460       653
43.480       666
43.500       650
43.520       670
43.540       643
43.560       576
43.580       640
43.600       530
43.620       600
43.640       483
43.660       603
43.680       663
43.700       736
43.720       690
43.740       663
43.760       670
43.780       706
43.800       746
43.820       753
43.840       850
43.860       966
43.880      1186
43.900      1220
43.920      1396
43.940      1706
43.960      1886
43.980      2056
44.000      2279
44.020      2789
44.040      2886
44.060      3192
44.080      3429
44.100      3555
44.120      3505
44.140      3332
44.160      3349
44.180      2766
44.200      2779
44.220      2236
44.240      2159
44.260      1733
44.280      1593
44.300      1323
44.320      1073
44.340      1103
44.360       880
44.380       833
44.400       830
44.420       723
44.440       610
44.460       716
44.480       603
44.500       646
44.520       616
44.540       610
44.560       623
44.580       613
44.600       570
44.620       583
44.640       586
44.660       556
44.680       566
44.700       506
44.720       543
44.740       573
44.760       623
44.780       540
44.800       593
44.820       556
44.840       563
44.860       417
44.880       593
44.900       533
44.920       543
44.940       483
44.960       560
44.980       586
45.000       606
45.020       520
45.040       513
45.060       520
45.080       510
45.100       493
45.120       470
45.140       506
45.160       530
45.180       543
45.200       536
45.220       503
45.240       463
45.260       423
45.280       483
45.300       496
45.320       576
45.340       503
45.360       520
45.380       470
45.400       563
45.420       473
45.440       506
45.460       560
45.480       526
45.500       480
45.520       473
45.540       486
45.560       470
45.580       470
45.600       456
45.620       476
45.640       417
45.660       476
45.680       480
45.700       397
45.720       453
45.740       453
45.760       456
45.780       470
45.800       506
45.820       483
45.840       460
45.860       440
45.880       510
45.900       403
45.920       476
45.940       470
45.960       430
45.980       423
46.000       473
46.020       500
46.040       476
46.060       493
46.080       426
46.100       446
46.120       486
46.140       503
46.160       423
46.180       483
46.200       553
46.220       417
46.240       473
46.260       500
46.280       426
46.300       453
46.320       473
46.340       463
46.360       420
46.380       450
46.400       476
46.420       413
46.440       413
46.460       373
46.480       466
46.500       417
46.520       433
46.540       490
46.560       413
46.580       480
46.600       430
46.620       463
46.640       403
46.660       403
46.680       413
46.700       440
46.720       390
46.740       443
46.760       483
46.780       453
46.800       373
46.820       390
46.840       330
46.860       496
46.880       417
46.900       453
46.920       440
46.940       436
46.960       410
46.980       420
47.000       503
47.020       516
47.040       466
47.060       436
47.080       500
47.100       410
47.120       433
47.140       453
47.160       490
47.180       536
47.200       486
47.220       493
47.240       540
47.260       450
47.280       423
47.300       510
47.320       426
47.340       417
47.360       423
47.380       480
47.400       446
47.420       463
47.440       443
47.460       420
47.480       340
47.500       480
47.520       426
47.540       436
47.560       436
47.580       363
47.600       370
47.620       383
47.640       433
47.660       420
47.680       460
47.700       440
47.720       400
47.740       323
47.760       443
47.780       363
47.800       493
47.820       483
47.840       430
47.860       413
47.880       370
47.900       393
47.920       357
47.940       460
47.960       400
47.980       370
48.000       407
48.020       407
48.040       370
48.060       397
48.080       390
48.100       383
48.120       387
48.140       463
48.160       397
48.180       423
48.200       523
48.220       453
48.240       426
48.260       463
48.280       470
48.300       420
48.320       423
48.340       397
48.360       363
48.380       350
48.400       393
48.420       407
48.440       397
48.460       387
48.480       343
48.500       426
48.520       420
48.540       400
48.560       383
48.580       393
48.600       310
48.620       420
48.640       400
48.660       360
48.680       390
48.700       430
48.720       383
48.740       426
48.760       430
48.780       400
48.800       373
48.820       337
48.840       400
48.860       397
48.880       436
48.900       347
48.920       347
48.940       420
48.960       343
48.980       400
49.000       370
49.020       377
49.040       373
49.060       377
49.080       393
49.100       383
49.120       443
49.140       367
49.160       400
49.180       387
49.200       390
49.220       410
49.240       350
49.260       353
49.280       350
49.300       393
49.320       383
49.340       390
49.360       357
49.380       393
49.400       360
49.420       363
49.440       357
49.460       347
49.480       360
49.500       347
49.520       333
49.540       337
49.560       357
49.580       330
49.600       400
49.620       390
49.640       350
49.660       390
49.680       363
49.700       343
49.720       290
49.740       300
49.760       367
49.780       387
49.800       357
49.820       380
49.840       367
49.860       407
49.880       320
49.900       367
49.920       380
49.940       310
49.960       320
49.980       380
50.000       357
50.020       323
50.040       426
50.060       277
50.080       307
50.100       436
50.120       383
50.140       360
50.160       383
50.180       377
50.200       307
50.220       323
50.240       333
50.260       393
50.280       327
50.300       380
50.320       327
50.340       350
50.360       340
50.380       323
50.400       383
50.420       333
50.440       363
50.460       313
50.480       353
50.500       390
50.520       333
50.540       307
50.560       377
50.580       350
50.600       310
50.620       340
50.640       340
50.660       273
50.680       350
50.700       377
50.720       390
50.740       400
50.760       320
50.780       350
50.800       313
50.820       397
50.840       327
50.860       307
50.880       283
50.900       340
50.920       397
50.940       317
50.960       353
50.980       360
51.000       397
51.020       350
51.040       350
51.060       300
51.080       353
51.100       313
51.120       337
51.140       353
51.160       350
51.180       343
51.200       333
51.220       337
51.240       367
51.260       340
51.280       407
51.300       353
51.320       330
51.340       300
51.360       340
51.380       347
51.400       277
51.420       293
51.440       287
51.460       363
51.480       370
51.500       350
51.520       363
51.540       353
51.560       323
51.580       337
51.600       270
51.620       320
51.640       300
51.660       280
51.680       223
51.700       310
51.720       320
51.740       267
51.760       393
51.780       347
51.800       300
51.820       397
51.840       353
51.860       333
51.880       393
51.900       283
51.920       320
51.940       290
51.960       383
51.980       377
52.000       383
52.020       337
52.040       337
52.060       350
52.080       350
52.100       270
52.120       287
52.140       370
52.160       280
52.180       313
52.200       343
52.220       320
52.240       380
52.260       310
52.280       337
52.300       360
52.320       380
52.340       400
52.360       270
52.380       307
52.400       307
52.420       420
52.440       360
52.460       446
52.480       580
52.500       693
52.520       763
52.540       843
52.560       673
52.580       506
52.600       407
52.620       480
52.640       513
52.660       613
52.680       493
52.700       506
52.720       473
52.740       403
52.760       340
52.780       300
52.800       327
52.820       277
52.840       390
52.860       283
52.880       273
52.900       333
52.920       310
52.940       360
52.960       323
52.980       297
53.000       317
53.020       327
53.040       287
53.060       320
53.080       297
53.100       310
53.120       293
53.140       307
53.160       317
53.180       307
53.200       333
53.220       307
53.240       300
53.260       340
53.280       310
53.300       267
53.320       330
53.340       433
53.360       267
53.380       333
53.400       380
53.420       330
53.440       293
53.460       330
53.480       320
53.500       283
53.520       357
53.540       340
53.560       320
53.580       293
53.600       343
53.620       270
53.640       283
53.660       293
53.680       337
53.700       347
53.720       323
53.740       340
53.760       393
53.780       340
53.800       363
53.820       343
53.840       303
53.860       363
53.880       317
53.900       320
53.920       320
53.940       350
53.960       303
53.980       317
54.000       293
54.020       320
54.040       400
54.060       330
54.080       383
54.100       350
54.120       327
54.140       340
54.160       327
54.180       363
54.200       357
54.220       323
54.240       330
54.260       293
54.280       333
54.300       400
54.320       360
54.340       297
54.360       343
54.380       307
54.400       397
54.420       460
54.440       293
54.460       490
54.480       420
54.500       536
54.520       476
54.540       453
54.560       596
54.580       640
54.600       676
54.620       800
54.640       823
54.660      1056
54.680      1316
54.700      1446
54.720      1766
54.740      1959
54.760      2059
54.780      2066
54.800      2036
54.820      2126
54.840      1953
54.860      1876
54.880      1933
54.900      1683
54.920      1626
54.940      1346
54.960      1313
54.980      1176
55.000      1086
55.020       996
55.040       780
55.060       763
55.080       566
55.100       563
55.120       433
55.140       483
55.160       413
55.180       410
55.200       380
55.220       370
55.240       330
55.260       373
55.280       423
55.300       456
55.320       333
55.340       320
55.360       343
55.380       413
55.400       353
55.420       260
55.440       367
55.460       343
55.480       350
55.500       330
55.520       300
55.540       307
55.560       327
55.580       333
55.600       400
55.620       303
55.640       357
55.660       263
55.680       293
55.700       293
55.720       287
55.740       363
55.760       303
55.780       310
55.800       323
55.820       320
55.840       360
55.860       337
55.880       257
55.900       313
55.920       307
55.940       327
55.960       263
55.980       300
56.000       290
56.020       300
56.040       270
56.060       337
56.080       337
56.100       340
56.120       320
56.140       343
56.160       293
56.180       370
56.200       250
56.220       310
56.240       310
56.260       290
56.280       287
56.300       280
56.320       313
56.340       317
56.360       243
56.380       300
56.400       317
56.420       300
56.440       293
56.460       280
56.480       323
56.500       340
56.520       337
56.540       310
56.560       307
56.580       307
56.600       293
56.620       290
56.640       310
56.660       333
56.680       337
56.700       327
56.720       373
56.740       340
56.760       333
56.780       310
56.800       290
56.820       303
56.840       247
56.860       353
56.880       243
56.900       280
56.920       317
56.940       297
56.960       327
56.980       370
57.000       303
57.020       277
57.040       243
57.060       287
57.080       350
57.100       297
57.120       337
57.140       313
57.160       330
57.180       327
57.200       330
57.220       293
57.240       300
57.260       320
57.280       273
57.300       310
57.320       407
57.340       400
57.360       383
57.380       426
57.400       556
57.420       543
57.440       566
57.460       643
57.480       633
57.500       740
57.520       750
57.540       643
57.560       623
57.580       573
57.600       526
57.620       480
57.640       503
57.660       397
57.680       510
57.700       443
57.720       463
57.740       330
57.760       363
57.780       283
57.800       297
57.820       310
57.840       310
57.860       297
57.880       250
57.900       253
57.920       303
57.940       273
57.960       280
57.980       303
58.000       310
58.020       317
58.040       253
58.060       220
58.080       273
58.100       317
58.120       307
58.140       270
58.160       267
58.180       293
58.200       280
58.220       323
58.240       303
58.260       307
58.280       297
58.300       277
58.320       280
58.340       210
58.360       287
58.380       287
58.400       263
58.420       310
58.440       270
58.460       263
58.480       320
58.500       263
58.520       263
58.540       310
58.560       300
58.580       323
58.600       310
58.620       297
58.640       247
58.660       287
58.680       280
58.700       283
58.720       250
58.740       290
58.760       270
58.780       293
58.800       237
58.820       323
58.840       257
58.860       300
58.880       320
58.900       330
58.920       323
58.940       250
58.960       367
58.980       297
59.000       287
59.020       303
59.040       310
59.060       233
59.080       277
59.100       323
59.120       253
59.140       260
59.160       273
59.180       280
59.200       330
59.220       270
59.240       237
59.260       313
59.280       313
59.300       257
59.320       323
59.340       297
59.360       280
59.380       353
59.400       260
59.420       277
59.440       370
59.460       310
59.480       293
59.500       303
59.520       250
59.540       307
59.560       303
59.580       323
59.600       277
59.620       260
59.640       287
59.660       290
59.680       243
59.700       303
59.720       330
59.740       270
59.760       320
59.780       293
59.800       317
59.820       273
59.840       310
59.860       293
59.880       247
59.900       263
59.920       260
59.940       303
59.960       300
59.980       260
60.000       253
