20.000        93
20.020        93
20.040       120
20.060        73
20.080        47
20.100        93
20.120       187
20.140        73
20.160       120
20.180       100
20.200       133
20.220        67
20.240       107
20.260        60
20.280       140
20.300       100
20.320       140
20.340        60
20.360       100
20.380        47
20.400       100
20.420       107
20.440       140
20.460        93
20.480       100
20.500        80
20.520        93
20.540       147
20.560        93
20.580       107
20.600        93
20.620       133
20.640        73
20.660       107
20.680       160
20.700       153
20.720        93
20.740        87
20.760       107
20.780       127
20.800       113
20.820       113
20.840        93
20.860       133
20.880        80
20.900        67
20.920       133
20.940        73
20.960       120
20.980       107
21.000       147
21.020       127
21.040       127
21.060        87
21.080       120
21.100       113
21.120       100
21.140       113
21.160        93
21.180       100
21.200       100
21.220       147
21.240       107
21.260       113
21.280       100
21.300        80
21.320        80
21.340       120
21.360        73
21.380       107
21.400        87
21.420       140
21.440       113
21.460       133
21.480       133
21.500        47
21.520       100
21.540       100
21.560        93
21.580       120
21.600        60
21.620        93
21.640        93
21.660       180
21.680       100
21.700       127
21.720       133
21.740        80
21.760       107
21.780        87
21.800        47
21.820       113
21.840       107
21.860       120
21.880       127
21.900        73
21.920        80
21.940        67
21.960        67
21.980       107
22.000       120
22.020        93
22.040       133
22.060        60
22.080       100
22.100        93
22.120       100
22.140       120
22.160        80
22.180        73
22.200       140
22.220        60
22.240        53
22.260       107
22.280        73
22.300       147
22.320        93
22.340        87
22.360        93
22.380        93
22.400       113
22.420        73
22.440        60
22.460        80
22.480        80
22.500        80
22.520       113
22.540       100
22.560       133
22.580       127
22.600       100
22.620       120
22.640        67
22.660        60
22.680       127
22.700       113
22.720        73
22.740       113
22.760        67
22.780       100
22.800        87
22.820        87
22.840       173
22.860       140
22.880       180
22.900        93
22.920        93
22.940       127
22.960       113
22.980       107
23.000        67
23.020       107
23.040       107
23.060        27
23.080       133
23.100        80
23.120       140
23.140        87
23.160       100
23.180       100
23.200       107
23.220       100
23.240        73
23.260       160
23.280       107
23.300       127
23.320       173
23.340       107
23.360        87
23.380       133
23.400        47
23.420       120
23.440        80
23.460        87
23.480        80
23.500       140
23.520       107
23.540       127
23.560        60
23.580       133
23.600        47
23.620       153
23.640        60
23.660       160
23.680       107
23.700       147
23.720        47
23.740       120
23.760        73
23.780       133
23.800        60
23.820        80
23.840        87
23.860        93
23.880        93
23.900       113
23.920        47
23.940        87
23.960       127
23.980        93
24.000       107
24.020       107
24.040        87
24.060        87
24.080        60
24.100        93
24.120        67
24.140        73
24.160        73
24.180       107
24.200        93
24.220       100
24.240       113
24.260        67
24.280        60
24.300        67
24.320        60
24.340        93
24.360        93
24.380       133
24.400       107
24.420       113
24.440        67
24.460        93
24.480        73
24.500        93
24.520        53
24.540       113
24.560        93
24.580        73
24.600        73
24.620        93
24.640        80
24.660       100
24.680        80
24.700        60
24.720        73
24.740       133
24.760        93
24.780        80
24.800       100
24.820        93
24.840        67
24.860        60
24.880       100
24.900        93
24.920       100
24.940        93
24.960        40
24.980        80
25.000        73
25.020        87
25.040        80
25.060        67
25.080       107
25.100       100
25.120        67
25.140        87
25.160       100
25.180        80
25.200        53
25.220       107
25.240        27
25.260        60
25.280       107
25.300       107
25.320        73
25.340        60
25.360        87
25.380        87
25.400        67
25.420        67
25.440        93
25.460        93
25.480       113
25.500        73
25.520        87
25.540       120
25.560        73
25.580        73
25.600        40
25.620       100
25.640       120
25.660        47
25.680        53
25.700        53
25.720       100
25.740        87
25.760        67
25.780       100
25.800       100
25.820        53
25.840        40
25.860        67
25.880       127
25.900        80
25.920        93
25.940        80
25.960       120
25.980        93
26.000        67
26.020        93
26.040        53
26.060       120
26.080        60
26.100        73
26.120       113
26.140        67
26.160        80
26.180        73
26.200        47
26.220        80
26.240        60
26.260        87
26.280        87
26.300        67
26.320        47
26.340        73
26.360        33
26.380       127
26.400        60
26.420        67
26.440        60
26.460        67
26.480        93
26.500       100
26.520        87
26.540        53
26.560        93
26.580       113
26.600        80
26.620        67
26.640        67
26.660        47
26.680        73
26.700        47
26.720        33
26.740        67
26.760        53
26.780        67
26.800        47
26.820        40
26.840        47
26.860        73
26.880        53
26.900        80
26.920        80
26.940        80
26.960        87
26.980        93
27.000       100
27.020        73
27.040        47
27.060        27
27.080        60
27.100        47
27.120        93
27.140        53
27.160        60
27.180        53
27.200        67
27.220        87
27.240        47
27.260        47
27.280        33
27.300        93
27.320        60
27.340        33
27.360        80
27.380        27
27.400       100
27.420        67
27.440        73
27.460        87
27.480        60
27.500        47
27.520        40
27.540        60
27.560        60
27.580        60
27.600        53
27.620        40
27.640        53
27.660        47
27.680        67
27.700        67
27.720       100
27.740        93
27.760        87
27.780        87
27.800        73
27.820        73
27.840        73
27.860        80
27.880        53
27.900        47
27.920        73
27.940        73
27.960        60
27.980        53
28.000        40
28.020        47
28.040        73
28.060        73
28.080        47
28.100        53
28.120        60
28.140        80
28.160        73
28.180        33
28.200        73
28.220        80
28.240        60
28.260        40
28.280       100
28.300       107
28.320       100
28.340        67
28.360        87
28.380        53
28.400        73
28.420        73
28.440        67
28.460       107
28.480        47
28.500        53
28.520        47
28.540        60
28.560        60
28.580        60
28.600        80
28.620        73
28.640        47
28.660        60
28.680        60
28.700        67
28.720        60
28.740        53
28.760        67
28.780        40
28.800        87
28.820        67
28.840        47
28.860        60
28.880        60
28.900        73
28.920        27
28.940        73
28.960       113
28.980        60
29.000        40
29.020        53
29.040        67
29.060        73
29.080        80
29.100        60
29.120        60
29.140        27
29.160        40
29.180        80
29.200       113
29.220        87
29.240        80
29.260        60
29.280        67
29.300        40
29.320        47
29.340        27
29.360        47
29.380        67
29.400        40
29.420        60
29.440        47
29.460        67
29.480        33
29.500        67
29.520        67
29.540        60
29.560        47
29.580        47
29.600        47
29.620        53
29.640        73
29.660        93
29.680        53
29.700        47
29.720        33
29.740        40
29.760        73
29.780        73
29.800        33
29.820        87
29.840        93
29.860        33
29.880        67
29.900        60
29.920        60
29.940        40
29.960        40
29.980        47
30.000        47
30.020        33
30.040        47
30.060        87
30.080        53
30.100         7
30.120        53
30.140        27
30.160        20
30.180        53
30.200        53
30.220        33
30.240        73
30.260        27
30.280        93
30.300        40
30.320        40
30.340        47
30.360        47
30.380        27
30.400        53
30.420        60
30.440        53
30.460        60
30.480        27
30.500        20
30.520        47
30.540        40
30.560        33
30.580        20
30.600        53
30.620        47
30.640        67
30.660        60
30.680        47
30.700        33
30.720        33
30.740        67
30.760        27
30.780        47
30.800        47
30.820        80
30.840        60
30.860        33
30.880        33
30.900        60
30.920        40
30.940        33
30.960        40
30.980        53
31.000        80
31.020        67
31.040        60
31.060        67
31.080        53
31.100        67
31.120        47
31.140        67
31.160        60
31.180         7
31.200        47
31.220        53
31.240        80
31.260        87
31.280        73
31.300       160
31.320       287
31.340       307
31.360       353
31.380       520
31.400       466
31.420       580
31.440       553
31.460       460
31.480       440
31.500       360
31.520       267
31.540       180
31.560       140
31.580       107
31.600        80
31.620       140
31.640       107
31.660        67
31.680        53
31.700        60
31.720        53
31.740        80
31.760        60
31.780        73
31.800        53
31.820        67
31.840        73
31.860        33
31.880        53
31.900        40
31.920        53
31.940        47
31.960        20
31.980        20
32.000        40
32.020        27
32.040        80
32.060        20
32.080        20
32.100        80
32.120        47
32.140        53
32.160        33
32.180        40
32.200        27
32.220        53
32.240        33
32.260        47
32.280        27
32.300        53
32.320        67
32.340        67
32.360        47
32.380        40
32.400        27
32.420        13
32.440        67
32.460        80
32.480        33
32.500        20
32.520        47
32.540        40
32.560        47
32.580        60
32.600        60
32.620        67
32.640        60
32.660        87
32.680        47
32.700        53
32.720        73
32.740        53
32.760        80
32.780        40
32.800        40
32.820        33
32.840        60
32.860        40
32.880        40
32.900        40
32.920        33
32.940        20
32.960        60
32.980        60
33.000        60
33.020        27
33.040        33
33.060        73
33.080        60
33.100        67
33.120        27
33.140        47
33.160        33
33.180        47
33.200        67
33.220        53
33.240        27
33.260        53
33.280        47
33.300        33
33.320        60
33.340        40
33.360        87
33.380        47
33.400        40
33.420        73
33.440        27
33.460        73
33.480        40
33.500        60
33.520        47
33.540        53
33.560        53
33.580        80
33.600        40
33.620        40
33.640        40
33.660        33
33.680        20
33.700        47
33.720        60
33.740        33
33.760        27
33.780        33
33.800        53
33.820        53
33.840        73
33.860        47
33.880        47
33.900        20
33.920        73
33.940        40
33.960        53
33.980        40
34.000        47
34.020        40
34.040        87
34.060        47
34.080        47
34.100        40
34.120        60
34.140        53
34.160        47
34.180        40
34.200        40
34.220        60
34.240        60
34.260        80
34.280        80
34.300        60
34.320        80
34.340       180
34.360       113
34.380       140
34.400       200
34.420       187
34.440       273
34.460       333
34.480       320
34.500       233
34.520       300
34.540       193
34.560       173
34.580       120
34.600       100
34.620        93
34.640        73
34.660        80
34.680       100
34.700        60
34.720        67
34.740        53
34.760       100
34.780        73
34.800        80
34.820       100
34.840        93
34.860       100
34.880        40
34.900        40
34.920       100
34.940        53
34.960        67
34.980        47
35.000        80
35.020       100
35.040        60
35.060        47
35.080       120
35.100       120
35.120       127
35.140       127
35.160       160
35.180       233
35.200       140
35.220       173
35.240       100
35.260       100
35.280        73
35.300        80
35.320        73
35.340        87
35.360        33
35.380        33
35.400        40
35.420        73
35.440        67
35.460        47
35.480        67
35.500        67
35.520        67
35.540        60
35.560        60
35.580        67
35.600        27
35.620        87
35.640        47
35.660        60
35.680        40
35.700        47
35.720        47
35.740        67
35.760        47
35.780        47
35.800        87
35.820        67
35.840        47
35.860        33
35.880        80
35.900        40
35.920        67
35.940        53
35.960        47
35.980        73
36.000       113
36.020        47
36.040        27
36.060        73
36.080        53
36.100        60
36.120        40
36.140        53
36.160        87
36.180        80
36.200        47
36.220       113
36.240        73
36.260        33
36.280        60
36.300        73
36.320        33
36.340       107
36.360        80
36.380        73
36.400        40
36.420        47
36.440        53
36.460        47
36.480        87
36.500       100
36.520        47
36.540        60
36.560        33
36.580        67
36.600       140
36.620        60
36.640        87
36.660        53
36.680       127
36.700        93
36.720        73
36.740       113
36.760       107
36.780        87
36.800        87
36.820       120
36.840       113
36.860       127
36.880       100
36.900        93
36.920       133
36.940       153
36.960       173
36.980       293
37.000       247
37.020       293
37.040       193
37.060       260
37.080       240
37.100       253
37.120       320
37.140       247
37.160       307
37.180       340
37.200       213
37.220       247
37.240       200
37.260       273
37.280       213
37.300       247
37.320       300
37.340       247
37.360       267
37.380       320
37.400       220
37.420       293
37.440       307
37.460       353
37.480       287
37.500       333
37.520       273
37.540       340
37.560       287
37.580       367
37.600       313
37.620       320
37.640       340
37.660       373
37.680       353
37.700       426
37.720       413
37.740       500
37.760       466
37.780       486
37.800       586
37.820       460
37.840       493
37.860       466
37.880       653
37.900       720
37.920      1013
37.940       946
37.960      1146
37.980      1466
38.000      1813
38.020      2092
38.040      2886
38.060      3305
38.080      4012
38.100      4945
38.120      6058
38.140      8190
38.160     11562
38.180     16114
38.200     21658
38.220     28209
38.240     33913
38.260     38745
38.280     41104
38.300     38891
38.320     36592
38.340     33540
38.360     29961
38.380     26230
38.400     22704
38.420     17553
38.440     13281
38.460      9669
38.480      7284
38.500      6231
38.520      4838
38.540      3625
38.560      2832
38.580      2579
38.600      2206
38.620      2186
38.640      2232
38.660      2412
38.680      2852
38.700      3012
38.720      3299
38.740      3072
38.760      2859
38.780      2339
38.800      2179
38.820      1853
38.840      1906
38.860      1393
38.880      1226
38.900       886
38.920       640
38.940       653
38.960       533
38.980       520
39.000       453
39.020       513
39.040       400
39.060       300
39.080       347
39.100       360
39.120       233
39.140       300
39.160       327
39.180       327
39.200       240
39.220       313
39.240       307
39.260       313
39.280       307
39.300       380
39.320       233
39.340       320
39.360       213
39.380       227
39.400       253
39.420       300
39.440       213
39.460       307
39.480       247
39.500       213
39.520       193
39.540       127
39.560       193
39.580       227
39.600       173
39.620       220
39.640       180
39.660       133
39.680       273
39.700       140
39.720       187
39.740       220
39.760       213
39.780       187
39.800       193
39.820       200
39.840       273
39.860       187
39.880       193
39.900       233
39.920       173
39.940       193
39.960       167
39.980       173
40.000       133
40.020       160
40.040       193
40.060       127
40.080        93
40.100       147
40.120       227
40.140        80
40.160       140
40.180       207
40.200       147
40.220       120
40.240       127
40.260       120
40.280       113
40.300       167
40.320       127
40.340       160
40.360       153
40.380       200
40.400       147
40.420       173
40.440       133
40.460       113
40.480       147
40.500       140
40.520       133
40.540       153
40.560       140
40.580       160
40.600       140
40.620       213
40.640       107
40.660       153
40.680       127
40.700       160
40.720       120
40.740       153
40.760       153
40.780       113
40.800       113
40.820       107
40.840       133
40.860       133
40.880       167
40.900       113
40.920       113
40.940       153
40.960        87
40.980       173
41.000       107
41.020       120
41.040        93
41.060       153
41.080       120
41.100       113
41.120       133
41.140       107
41.160       100
41.180       133
41.200        93
41.220       180
41.240       127
41.260       133
41.280       147
41.300       120
41.320       240
41.340       173
41.360       153
41.380       153
41.400       173
41.420       140
41.440       167
41.460       140
41.480       133
41.500       127
41.520       100
41.540       107
41.560       113
41.580       140
41.600       127
41.620       220
41.640       160
41.660       227
41.680       300
41.700       247
41.720       167
41.740       140
41.760       213
41.780       180
41.800       140
41.820       180
41.840       107
41.860       113
41.880       133
41.900        73
41.920       107
41.940       127
41.960        80
41.980       113
42.000       120
42.020       153
42.040        80
42.060       107
42.080       120
42.100       133
42.120       113
42.140       113
42.160       107
42.180       120
42.200       107
42.220       100
42.240        73
42.260        73
42.280        53
42.300       147
42.320        93
42.340        80
42.360        87
42.380       180
42.400        93
42.420       133
42.440       107
42.460       113
42.480       173
42.500       107
42.520        87
42.540       107
42.560        53
42.580       180
42.600       113
42.620        80
42.640        60
42.660       113
42.680        73
42.700       133
42.720       113
42.740        80
42.760       100
42.780        67
42.800        73
42.820        67
42.840       113
42.860        73
42.880       153
42.900        93
42.920        87
42.940        73
42.960        73
42.980       113
43.000        87
43.020       107
43.040        93
43.060        80
43.080        53
43.100        73
43.120        93
43.140        73
43.160       107
43.180        73
43.200        80
43.220       140
43.240       107
43.260        80
43.280       113
43.300       100
43.320       113
43.340       140
43.360       180
43.380       140
43.400       107
43.420        87
43.440        87
43.460       127
43.480       113
43.500       160
43.520        93
43.540        87
43.560        67
43.580       120
43.600       107
43.620       107
43.640        80
43.660        60
43.680        67
43.700       107
43.720       153
43.740        67
43.760       127
43.780        87
43.800       127
43.820       107
43.840       120
43.860       100
43.880        93
43.900        60
43.920       113
43.940        60
43.960        73
43.980        80
44.000       100
44.020        40
44.040       107
44.060       113
44.080        80
44.100       113
44.120        93
44.140        53
44.160        80
44.180       140
44.200        73
44.220        60
44.240        73
44.260       100
44.280        67
44.300       127
44.320        93
44.340       133
44.360       113
44.380       113
44.400       100
44.420        93
44.440        93
44.460       140
44.480       120
44.500        93
44.520       153
44.540       113
44.560        60
44.580       127
44.600       120
44.620       127
44.640       127
44.660        53
44.680       133
44.700       153
44.720       140
44.740       120
44.760       147
44.780       193
44.800       147
44.820       233
44.840       307
44.860       393
44.880       373
44.900       320
44.920       486
44.940       480
44.960       540
44.980       420
45.000       393
45.020       413
45.040       387
45.060       267
45.080       253
45.100       193
45.120       160
45.140       200
45.160       147
45.180       133
45.200       120
45.220       127
45.240       113
45.260       100
45.280        87
45.300       113
45.320       140
45.340       113
45.360       140
45.380        80
45.400       113
45.420        67
45.440       100
45.460        93
45.480        73
45.500        60
45.520        40
45.540        53
45.560        67
45.580        87
45.600        47
45.620        67
45.640       100
45.660        73
45.680       100
45.700        60
45.720       100
45.740        73
45.760        60
45.780        60
45.800        73
45.820        73
45.840        73
45.860        80
45.880        53
45.900        60
45.920        33
45.940        47
45.960        93
45.980        67
46.000       107
46.020        27
46.040        47
46.060       100
46.080        67
46.100        87
46.120        53
46.140        67
46.160       100
46.180        53
46.200       113
46.220        67
46.240       107
46.260        80
46.280        67
46.300       127
46.320        53
46.340        80
46.360        40
46.380        73
46.400        60
46.420        40
46.440        73
46.460       120
46.480        47
46.500       100
46.520        87
46.540       107
46.560        73
46.580        87
46.600        80
46.620       133
46.640        47
46.660        87
46.680        47
46.700        93
46.720        87
46.740        80
46.760        47
46.780        80
46.800        47
46.820        80
46.840       127
46.860        67
46.880        73
46.900        73
46.920        67
46.940        93
46.960        73
46.980       113
47.000        53
47.020        93
47.040        93
47.060        33
47.080        40
47.100        80
47.120        87
47.140        73
47.160       120
47.180        53
47.200        80
47.220        47
47.240        73
47.260        87
47.280        80
47.300       100
47.320       113
47.340       140
47.360        60
47.380        73
47.400        93
47.420        80
47.440        60
47.460        80
47.480        80
47.500        60
47.520        53
47.540        53
47.560        47
47.580        60
47.600        73
47.620        33
47.640        47
47.660        53
47.680        33
47.700        47
47.720        53
47.740        47
47.760        67
47.780        33
47.800        27
47.820        67
47.840        67
47.860        87
47.880        80
47.900        73
47.920        93
47.940        60
47.960        40
47.980        80
48.000        93
48.020        87
48.040        20
48.060        40
48.080        53
48.100        47
48.120       100
48.140        67
48.160        33
48.180        40
48.200        40
48.220        60
48.240        73
48.260        87
48.280        80
48.300        60
48.320       100
48.340        73
48.360        60
48.380        67
48.400        73
48.420        80
48.440        80
48.460        67
48.480        53
48.500        80
48.520        47
48.540        73
48.560        33
48.580        67
48.600        53
48.620        93
48.640        53
48.660        60
48.680        67
48.700        40
48.720        40
48.740        73
48.760        27
48.780         0
48.800        60
48.820        27
48.840        67
48.860        73
48.880        80
48.900        40
48.920        60
48.940        93
48.960        87
48.980        40
49.000        60
49.020        47
49.040        67
49.060        47
49.080        40
49.100        13
49.120        13
49.140        47
49.160        53
49.180        60
49.200        80
49.220        33
49.240        67
49.260        80
49.280        53
49.300        60
49.320        80
49.340        53
49.360        27
49.380        93
49.400        80
49.420        67
49.440        47
49.460        80
49.480        60
49.500        53
49.520        40
49.540        53
49.560        47
49.580        87
49.600        53
49.620        67
49.640        47
49.660        87
49.680        47
49.700        40
49.720        20
49.740        33
49.760        53
49.780       107
49.800        67
49.820        67
49.840        53
49.860        33
49.880        40
49.900        93
49.920        40
49.940        73
49.960        33
49.980        47
50.000        53
50.020        33
50.040        47
50.060        33
50.080        27
50.100        47
50.120        27
50.140        47
50.160        47
50.180        60
50.200        53
50.220        53
50.240        60
50.260        67
50.280        33
50.300        67
50.320        33
50.340        40
50.360        67
50.380        40
50.400        67
50.420        87
50.440        33
50.460        40
50.480        27
50.500        80
50.520        47
50.540        33
50.560        67
50.580        67
50.600        40
50.620        33
50.640        60
50.660        40
50.680        80
50.700        27
50.720        40
50.740        27
50.760        87
50.780        47
50.800        20
50.820        53
50.840        60
50.860        47
50.880        33
50.900        33
50.920        47
50.940        53
50.960        47
50.980        47
51.000        47
51.020        40
51.040        27
51.060        27
51.080        60
51.100         7
51.120        40
51.140        67
51.160        53
51.180        47
51.200        33
51.220        40
51.240        67
51.260        33
51.280        87
51.300        27
51.320        47
51.340        20
51.360        60
51.380        20
51.400        93
51.420        60
51.440        60
51.460        27
51.480        53
51.500        40
51.520        60
51.540        67
51.560        47
51.580        33
51.600        47
51.620        67
51.640        40
51.660        20
51.680        20
51.700        53
51.720        20
51.740        53
51.760        53
51.780        60
51.800        27
51.820        40
51.840        47
51.860        27
51.880        40
51.900        20
51.920        60
51.940        47
51.960        33
51.980        40
52.000        67
52.020        73
52.040        27
52.060        60
52.080        60
52.100        87
52.120        40
52.140        80
52.160        47
52.180        33
52.200        33
52.220        53
52.240        13
52.260        47
52.280        40
52.300        27
52.320        47
52.340        27
52.360        67
52.380        53
52.400        60
52.420        20
52.440        67
52.460        60
52.480        53
52.500        73
52.520        40
52.540        80
52.560        60
52.580        33
52.600        33
52.620       100
52.640        80
52.660        73
52.680        27
52.700        20
52.720        47
52.740        47
52.760        60
52.780        53
52.800        33
52.820        47
52.840        27
52.860        40
52.880        33
52.900        13
52.920        53
52.940        47
52.960        33
52.980        20
53.000        53
53.020        40
53.040        47
53.060        60
53.080        20
53.100        33
53.120        27
53.140        40
53.160        20
53.180        53
53.200        20
53.220        27
53.240        53
53.260        33
53.280        67
53.300        27
53.320        33
53.340        40
53.360        53
53.380        13
53.400        80
53.420        40
53.440        40
53.460        53
53.480        40
53.500        47
53.520        33
53.540        13
53.560        67
53.580        47
53.600        40
53.620        27
53.640        40
53.660        60
53.680        33
53.700        60
53.720        27
53.740        47
53.760        40
53.780        33
53.800        33
53.820        40
53.840        13
53.860        40
53.880        20
53.900        33
53.920        53
53.940        27
53.960        33
53.980        40
54.000        47
54.020        27
54.040        53
54.060        60
54.080        27
54.100        20
54.120        60
54.140        13
54.160        33
54.180        67
54.200        67
54.220        40
54.240        33
54.260        13
54.280        13
54.300        40
54.320        33
54.340        27
54.360        53
54.380        53
54.400        47
54.420        60
54.440        33
54.460        33
54.480        33
54.500        73
54.520        47
54.540        33
54.560        20
54.580        40
54.600        33
54.620        33
54.640        47
54.660        60
54.680        27
54.700        27
54.720        40
54.740        33
54.760        53
54.780        40
54.800        67
54.820        60
54.840        53
54.860        80
54.880        47
54.900        73
54.920        27
54.940        20
54.960        53
54.980         7
55.000        60
55.020        67
55.040        27
55.060        60
55.080        20
55.100        40
55.120        67
55.140        13
55.160        80
55.180        40
55.200        53
55.220        40
55.240        53
55.260        60
55.280        13
55.300        20
55.320        33
55.340        47
55.360        47
55.380        47
55.400        40
55.420        67
55.440        47
55.460        27
55.480        20
55.500        33
55.520        27
55.540        60
55.560        53
55.580        47
55.600        33
55.620        13
55.640        40
55.660        53
55.680        47
55.700        33
55.720        67
55.740        80
55.760        40
55.780        80
55.800        73
55.820        53
55.840       107
55.860       133
55.880        73
55.900       133
55.920       107
55.940       180
55.960       120
55.980       140
56.000       120
56.020       107
56.040        93
56.060        93
56.080       133
56.100       107
56.120        80
56.140        73
56.160        67
56.180        53
56.200        53
56.220        67
56.240        53
56.260        53
56.280        73
56.300        27
56.320        27
56.340        67
56.360        13
56.380        47
56.400        33
56.420        33
56.440        60
56.460        33
56.480        20
56.500        33
56.520        33
56.540        40
56.560        60
56.580        27
56.600       100
56.620        53
56.640        47
56.660        33
56.680        20
56.700        13
56.720        27
56.740        47
56.760        33
56.780        13
56.800        67
56.820        47
56.840        27
56.860        47
56.880        87
56.900        47
56.920        73
56.940        13
56.960        53
56.980        53
57.000        60
57.020        53
57.040        73
57.060        33
57.080        47
57.100        40
57.120        60
57.140        27
57.160        33
57.180        33
57.200        20
57.220        73
57.240        40
57.260        60
57.280        67
57.300        47
57.320        60
57.340        33
57.360        40
57.380        27
57.400        20
57.420        40
57.440        93
57.460       153
57.480       120
57.500       133
57.520       140
57.540       107
57.560        67
57.580        60
57.600        73
57.620       100
57.640        73
57.660        73
57.680        27
57.700        40
57.720        67
57.740        60
57.760        47
57.780        20
57.800        33
57.820        47
57.840        20
57.860        20
57.880        60
57.900        53
57.920        60
57.940        20
57.960        27
57.980        27
58.000        27
58.020        20
58.040        13
58.060        33
58.080        20
58.100        47
58.120        33
58.140        20
58.160        40
58.180        60
58.200        27
58.220        33
58.240        20
58.260        33
58.280        40
58.300        27
58.320        33
58.340        33
58.360        60
58.380        67
58.400        33
58.420        20
58.440        60
58.460        20
58.480        53
58.500        47
58.520        67
58.540        27
58.560        27
58.580         7
58.600        13
58.620        20
58.640        13
58.660         7
58.680        13
58.700        40
58.720         7
58.740        27
58.760        20
58.780        33
58.800        13
58.820        60
58.840         7
58.860        20
58.880        20
58.900        20
58.920        33
58.940        60
58.960        27
58.980        20
59.000        33
59.020        33
59.040        33
59.060        40
59.080        40
59.100        60
59.120        53
59.140        20
59.160        27
59.180        33
59.200        40
59.220        20
59.240        40
59.260        33
59.280        20
59.300        53
59.320        20
59.340        33
59.360        20
59.380        13
59.400        33
59.420        27
59.440        27
59.460        13
59.480        27
59.500        60
59.520        47
59.540        47
59.560        27
59.580        13
59.600        33
59.620        20
59.640        20
59.660        33
59.680        33
59.700        53
59.720        47
59.740        13
59.760        47
59.780        20
59.800        80
59.820        53
59.840        47
59.860        33
59.880        27
59.900        53
59.920        20
59.940        20
59.960         0
59.980        13
60.000        13
