20.000         0
20.020         0
20.040        13
20.060        47
20.080        67
20.100        87
20.120        67
20.140        87
20.160        60
20.180        80
20.200        93
20.220        40
20.240        87
20.260        27
20.280        67
20.300        87
20.320       100
20.340        93
20.360        87
20.380       120
20.400        73
20.420        67
20.440        93
20.460       107
20.480       107
20.500        47
20.520        60
20.540        93
20.560        40
20.580       100
20.600       100
20.620        53
20.640       100
20.660       113
20.680        53
20.700       120
20.720        93
20.740        40
20.760        33
20.780       100
20.800        53
20.820        80
20.840        80
20.860       100
20.880       113
20.900        47
20.920        47
20.940        73
20.960       107
20.980        93
21.000       107
21.020        73
21.040        87
21.060        73
21.080        80
21.100        87
21.120        47
21.140        67
21.160        80
21.180        87
21.200        53
21.220        73
21.240       107
21.260        80
21.280        53
21.300       100
21.320        60
21.340        93
21.360        53
21.380        53
21.400        27
21.420        93
21.440        80
21.460       113
21.480        73
21.500       120
21.520       100
21.540        53
21.560        80
21.580        67
21.600        67
21.620        93
21.640       120
21.660        80
21.680        93
21.700        67
21.720        73
21.740        93
21.760        60
21.780       100
21.800        87
21.820        87
21.840       100
21.860        40
21.880        87
21.900        73
21.920        60
21.940        53
21.960       120
21.980        93
22.000       100
22.020        87
22.040        80
22.060        60
22.080        87
22.100        60
22.120        67
22.140        73
22.160        73
22.180        33
22.200        67
22.220        53
22.240        60
22.260        20
22.280        47
22.300        87
22.320        87
22.340        53
22.360        93
22.380        60
22.400        80
22.420        80
22.440       113
22.460        53
22.480        80
22.500        87
22.520        73
22.540       120
22.560        80
22.580        60
22.600        47
22.620        47
22.640        33
22.660        53
22.680        73
22.700        40
22.720        60
22.740        73
22.760        60
22.780        60
22.800        93
22.820        87
22.840        60
22.860        27
22.880        80
22.900        80
22.920        73
22.940        67
22.960        53
22.980        53
23.000       107
23.020        53
23.040        60
23.060        47
23.080        73
23.100        73
23.120        80
23.140       107
23.160        60
23.180        67
23.200       100
23.220        73
23.240        60
23.260        73
23.280       133
23.300        47
23.320        93
23.340        73
23.360        93
23.380        67
23.400        67
23.420        73
23.440        67
23.460        87
23.480        53
23.500       100
23.520       120
23.540        53
23.560        40
23.580        67
23.600        80
23.620        60
23.640       120
23.660        73
23.680       100
23.700        67
23.720        73
23.740        40
23.760        73
23.780        67
23.800        53
23.820        73
23.840        60
23.860        87
23.880        93
23.900        87
23.920        93
23.940        87
23.960        87
23.980        87
24.000        40
24.020        60
24.040        67
24.060        67
24.080        33
24.100        60
24.120       120
24.140        73
24.160        40
24.180        73
24.200        67
24.220        67
24.240        73
24.260       107
24.280       107
24.300        73
24.320        53
24.340        73
24.360        93
24.380        33
24.400        73
24.420        80
24.440        67
24.460        53
24.480        67
24.500        73
24.520        40
24.540        73
24.560        60
24.580        40
24.600        93
24.620        87
24.640        80
24.660        80
24.680       113
24.700        73
24.720        53
24.740        47
24.760        47
24.780        67
24.800        53
24.820        67
24.840        73
24.860       113
24.880        73
24.900        93
24.920        60
24.940        33
24.960        93
24.980        60
25.000       107
25.020        73
25.040        67
25.060       107
25.080       100
25.100        73
25.120       107
25.140        60
25.160        60
25.180       100
25.200        60
25.220        60
25.240        67
25.260       100
25.280        73
25.300        67
25.320        47
25.340        60
25.360        60
25.380        53
25.400        60
25.420        80
25.440        93
25.460        60
25.480        67
25.500       107
25.520        67
25.540        93
25.560        67
25.580       127
25.600       113
25.620       133
25.640       100
25.660        80
25.680        73
25.700       153
25.720        33
25.740        80
25.760        67
25.780        27
25.800        80
25.820       100
25.840        80
25.860        73
25.880        87
25.900        73
25.920        53
25.940        67
25.960        53
25.980        60
26.000        73
26.020        53
26.040        27
26.060        60
26.080        80
26.100        53
26.120        73
26.140        53
26.160        67
26.180       107
26.200        53
26.220        67
26.240        53
26.260        87
26.280        60
26.300        60
26.320        33
26.340        27
26.360        53
26.380        40
26.400        40
26.420        53
26.440        73
26.460        33
26.480        67
26.500        33
26.520        27
26.540        53
26.560        67
26.580        27
26.600        87
26.620        47
26.640        53
26.660        27
26.680        53
26.700        33
26.720        87
26.740        53
26.760        20
26.780        67
26.800        73
26.820        67
26.840        67
26.860        67
26.880        67
26.900        80
26.920        67
26.940        53
26.960        53
26.980        47
27.000        40
27.020        27
27.040        40
27.060        40
27.080        53
27.100        73
27.120        47
27.140        67
27.160        40
27.180        53
27.200        47
27.220        67
27.240        33
27.260        33
27.280       100
27.300        73
27.320        47
27.340        73
27.360        33
27.380        47
27.400        47
27.420        47
27.440        33
27.460       100
27.480        33
27.500        47
27.520        33
27.540        87
27.560        47
27.580        60
27.600        40
27.620        60
27.640        47
27.660        27
27.680        60
27.700        20
27.720        47
27.740        60
27.760        67
27.780        73
27.800        47
27.820        40
27.840        47
27.860        67
27.880        33
27.900        53
27.920        67
27.940        93
27.960        67
27.980        33
28.000        47
28.020        87
28.040        67
28.060        47
28.080        47
28.100        60
28.120        40
28.140        73
28.160        87
28.180        87
28.200       113
28.220        73
28.240        27
28.260        53
28.280        73
28.300        33
28.320       100
28.340        40
28.360        40
28.380        53
28.400        80
28.420        60
28.440        40
28.460        47
28.480        33
28.500        33
28.520        40
28.540        27
28.560        53
28.580        20
28.600        20
28.620        53
28.640        27
28.660        67
28.680        60
28.700        40
28.720        20
28.740        20
28.760        40
28.780        40
28.800        33
28.820        87
28.840        33
28.860        60
28.880        40
28.900        40
28.920        60
28.940        20
28.960        33
28.980        67
29.000        87
29.020        73
29.040        40
29.060        80
29.080        73
29.100        47
29.120        40
29.140        60
29.160        60
29.180        60
29.200        87
29.220        60
29.240        40
29.260        40
29.280        33
29.300        33
29.320        53
29.340        33
29.360        67
29.380        40
29.400        33
29.420        47
29.440        33
29.460        40
29.480        47
29.500        27
29.520        47
29.540        40
29.560        27
29.580        60
29.600        47
29.620        67
29.640        20
29.660        73
29.680        47
29.700        53
29.720        40
29.740        47
29.760        40
29.780        27
29.800        53
29.820        40
29.840        40
29.860        60
29.880        33
29.900        40
29.920        47
29.940        40
29.960        80
29.980        27
30.000        40
30.020        60
30.040        60
30.060        53
30.080        60
30.100        47
30.120        27
30.140        33
30.160        53
30.180        20
30.200        53
30.220        47
30.240        53
30.260        47
30.280        73
30.300        73
30.320        80
30.340        33
30.360        53
30.380        60
30.400        33
30.420        33
30.440        33
30.460        33
30.480        20
30.500        53
30.520        27
30.540        67
30.560        60
30.580        33
30.600        53
30.620        47
30.640        53
30.660        60
30.680        53
30.700        60
30.720        60
30.740        27
30.760        40
30.780        73
30.800        80
30.820        27
30.840        80
30.860        47
30.880        33
30.900        33
30.920        87
30.940        87
30.960        47
30.980        20
31.000        33
31.020        13
31.040        53
31.060        40
31.080        20
31.100        60
31.120        60
31.140        73
31.160       100
31.180        60
31.200        93
31.220        67
31.240        73
31.260       153
31.280       207
31.300       187
31.320       207
31.340       227
31.360       307
31.380       287
31.400       380
31.420       640
31.440       546
31.460       500
31.480       533
31.500       407
31.520       367
31.540       173
31.560       173
31.580       180
31.600       100
31.620        67
31.640        87
31.660        87
31.680        80
31.700        73
31.720        67
31.740        47
31.760        27
31.780        47
31.800        67
31.820        27
31.840        60
31.860        33
31.880        60
31.900        20
31.920        73
31.940        67
31.960        60
31.980        73
32.000        33
32.020        33
32.040        47
32.060        60
32.080        40
32.100        27
32.120        53
32.140        53
32.160        53
32.180        33
32.200        53
32.220        33
32.240         7
32.260        40
32.280        53
32.300        60
32.320        13
32.340        27
32.360        40
32.380        47
32.400        67
32.420        60
32.440        33
32.460        80
32.480        60
32.500        33
32.520        27
32.540        40
32.560        67
32.580        33
32.600        40
32.620        47
32.640        80
32.660        20
32.680        33
32.700        47
32.720        40
32.740        60
32.760        47
32.780        40
32.800        47
32.820        27
32.840        20
32.860        20
32.880        40
32.900        60
32.920        27
32.940        27
32.960        40
32.980        20
33.000        40
33.020        40
33.040         7
33.060        20
33.080        53
33.100        40
33.120        27
33.140        13
33.160        67
33.180        33
33.200        60
33.220        60
33.240        53
33.260        67
33.280        33
33.300        27
33.320        40
33.340        27
33.360        60
33.380       100
33.400         7
33.420        73
33.440        47
33.460        27
33.480        40
33.500        53
33.520        33
33.540        20
33.560        40
33.580        33
33.600        40
33.620        93
33.640        53
33.660        53
33.680        67
33.700        93
33.720        60
33.740        53
33.760        20
33.780        33
33.800        27
33.820        27
33.840        47
33.860        13
33.880        20
33.900        40
33.920        73
33.940        40
33.960        33
33.980        47
34.000        40
34.020        73
34.040        40
34.060        40
34.080        33
34.100        40
34.120        33
34.140        53
34.160        27
34.180        20
34.200        73
34.220        13
34.240        40
34.260        27
34.280        33
34.300        33
34.320        40
34.340        20
34.360        53
34.380        20
34.400        73
34.420        73
34.440        33
34.460        20
34.480        60
34.500        47
34.520        27
34.540        20
34.560        40
34.580        47
34.600         7
34.620        73
34.640        73
34.660        27
34.680        33
34.700        47
34.720        53
34.740        33
34.760        20
34.780        47
34.800        73
34.820        53
34.840        20
34.860        27
34.880        33
34.900        67
34.920        33
34.940        27
34.960        27
34.980        53
35.000        40
35.020        73
35.040        93
35.060        87
35.080       107
35.100       160
35.120       127
35.140       180
35.160       167
35.180       113
35.200        93
35.220       160
35.240       107
35.260        67
35.280        47
35.300        33
35.320        67
35.340        73
35.360        60
35.380        47
35.400        33
35.420        33
35.440        93
35.460        67
35.480        73
35.500        20
35.520        47
35.540        27
35.560        47
35.580        47
35.600        53
35.620       120
35.640        27
35.660        73
35.680        67
35.700        53
35.720        93
35.740        60
35.760        73
35.780        93
35.800        40
35.820       100
35.840        87
35.860       113
35.880        93
35.900       120
35.920       127
35.940        73
35.960        53
35.980        87
36.000        53
36.020        33
36.040        27
36.060        73
36.080        33
36.100        20
36.120        33
36.140        53
36.160       100
36.180        33
36.200        27
36.220        47
36.240        13
36.260        60
36.280        67
36.300        27
36.320        40
36.340        53
36.360        53
36.380        13
36.400        53
36.420        20
36.440        13
36.460        40
36.480        53
36.500        53
36.520        67
36.540        53
36.560        27
36.580        73
36.600        13
36.620        67
36.640        47
36.660        33
36.680        53
36.700        33
36.720        40
36.740        53
36.760        33
36.780        33
36.800        80
36.820        33
36.840        20
36.860        47
36.880        47
36.900        20
36.920        80
36.940        47
36.960        60
36.980        33
37.000        53
37.020        53
37.040        53
37.060        33
37.080        47
37.100        40
37.120        33
37.140         7
37.160         7
37.180        40
37.200        33
37.220        27
37.240        73
37.260        87
37.280        47
37.300        47
37.320        27
37.340        27
37.360        27
37.380        80
37.400        47
37.420        60
37.440        33
37.460        40
37.480        20
37.500        67
37.520        87
37.540        47
37.560        53
37.580        27
37.600        53
37.620        33
37.640        47
37.660        47
37.680        93
37.700       107
37.720       127
37.740       100
37.760       160
37.780       167
37.800       107
37.820       127
37.840        87
37.860        60
37.880        80
37.900        87
37.920        73
37.940        47
37.960        73
37.980        67
38.000        20
38.020        27
38.040        40
38.060        27
38.080        60
38.100        73
38.120        53
38.140        53
38.160        47
38.180        47
38.200        67
38.220        53
38.240        60
38.260        47
38.280        60
38.300        47
38.320        73
38.340        87
38.360        87
38.380        47
38.400        93
38.420        73
38.440       160
38.460        47
38.480       140
38.500       153
38.520       113
38.540        67
38.560        60
38.580       113
38.600       107
38.620        73
38.640       113
38.660        93
38.680       120
38.700        93
38.720       213
38.740       100
38.760       247
38.780       220
38.800       160
38.820       160
38.840       160
38.860       127
38.880       133
38.900       213
38.920       140
38.940        93
38.960       100
38.980       187
39.000       153
39.020       173
39.040       167
39.060       173
39.080       173
39.100       147
39.120       140
39.140       147
39.160       167
39.180       193
39.200       173
39.220       173
39.240       140
39.260       180
39.280       253
39.300       200
39.320       253
39.340       173
39.360       247
39.380       293
39.400       300
39.420       293
39.440       360
39.460       387
39.480       327
39.500       480
39.520       493
39.540       693
39.560       733
39.580       866
39.600      1173
39.620      1446
39.640      1626
39.660      2086
39.680      2999
39.700      3679
39.720      5071
39.740      6244
39.760      7744
39.780      9216
39.800     10722
39.820     10929
39.840     11282
39.860     10303
39.880      9896
39.900      8896
39.920      8157
39.940      6784
39.960      5624
39.980      4158
40.000      3105
40.020      2486
40.040      1726
40.060      1473
40.080      1086
40.100       926
40.120       720
40.140       660
40.160       613
40.180       440
40.200       420
40.220       360
40.240       340
40.260       220
40.280       313
40.300       240
40.320       287
40.340       193
40.360       227
40.380       147
40.400       153
40.420       133
40.440       193
40.460       173
40.480       160
40.500       173
40.520       133
40.540       113
40.560       167
40.580       147
40.600       153
40.620       133
40.640       187
40.660       133
40.680       127
40.700        93
40.720       140
40.740       147
40.760       147
40.780        73
40.800       113
40.820       107
40.840        93
40.860        73
40.880        80
40.900        93
40.920        80
40.940        93
40.960       113
40.980       100
41.000       133
41.020        53
41.040       120
41.060        60
41.080       140
41.100        53
41.120       113
41.140        93
41.160       107
41.180        80
41.200        80
41.220       107
41.240        67
41.260        60
41.280        60
41.300        60
41.320        73
41.340       120
41.360        40
41.380        73
41.400        80
41.420        93
41.440        53
41.460        47
41.480       140
41.500        93
41.520        80
41.540        93
41.560        73
41.580       120
41.600       153
41.620       140
41.640       147
41.660       113
41.680       153
41.700       113
41.720       127
41.740        80
41.760        93
41.780       133
41.800        87
41.820       107
41.840        87
41.860       113
41.880        80
41.900        60
41.920        60
41.940       127
41.960        60
41.980        47
42.000        47
42.020        47
42.040        67
42.060        60
42.080        47
42.100       100
42.120        93
42.140        47
42.160       120
42.180        80
42.200        60
42.220        93
42.240       127
42.260        53
42.280        67
42.300        33
42.320        53
42.340        67
42.360       100
42.380        87
42.400       107
42.420        40
42.440        53
42.460        67
42.480        53
42.500        60
42.520        40
42.540        93
42.560        67
42.580        87
42.600       120
42.620        80
42.640        47
42.660        73
42.680       107
42.700        73
42.720        53
42.740        67
42.760        67
42.780       100
42.800        73
42.820        27
42.840        33
42.860        53
42.880        67
42.900        67
42.920        67
42.940        67
42.960        67
42.980        87
43.000        60
43.020        67
43.040        53
43.060        60
43.080        47
43.100        40
43.120        60
43.140        60
43.160        47
43.180        73
43.200        53
43.220       107
43.240       133
43.260       160
43.280       100
43.300       193
43.320       207
43.340       187
43.360       147
43.380       140
43.400       180
43.420       147
43.440       113
43.460       120
43.480        87
43.500       100
43.520        73
43.540        60
43.560        27
43.580        73
43.600        60
43.620        33
43.640        47
43.660        73
43.680        73
43.700        40
43.720        33
43.740        60
43.760        33
43.780        53
43.800        47
43.820        60
43.840       100
43.860        73
43.880        53
43.900        33
43.920        53
43.940        73
43.960        40
43.980        47
44.000       113
44.020        67
44.040        67
44.060        53
44.080        73
44.100        80
44.120        73
44.140        33
44.160        27
44.180       100
44.200        87
44.220        67
44.240        47
44.260        80
44.280        53
44.300        60
44.320        73
44.340        40
44.360        67
44.380        93
44.400        60
44.420        33
44.440       100
44.460        67
44.480        33
44.500        47
44.520        60
44.540        40
44.560        40
44.580        33
44.600        33
44.620        60
44.640        87
44.660       140
44.680        80
44.700        33
44.720        67
44.740       107
44.760        87
44.780       160
44.800       107
44.820       187
44.840       173
44.860       280
44.880       267
44.900       293
44.920       460
44.940       387
44.960       480
44.980       433
45.000       560
45.020       420
45.040       446
45.060       446
45.080       313
45.100       247
45.120       260
45.140       227
45.160       167
45.180       127
45.200       140
45.220       107
45.240        67
45.260        93
45.280        73
45.300        60
45.320        67
45.340        53
45.360        60
45.380        53
45.400        33
45.420        47
45.440        67
45.460        33
45.480        87
45.500        33
45.520        47
45.540       107
45.560        80
45.580        53
45.600        60
45.620        47
45.640        73
45.660        60
45.680        40
45.700        47
45.720        13
45.740        33
45.760        47
45.780        40
45.800        47
45.820        40
45.840        73
45.860        60
45.880        87
45.900        47
45.920        93
45.940        53
45.960        53
45.980        47
46.000        47
46.020        67
46.040        80
46.060        60
46.080        47
46.100        47
46.120        40
46.140        60
46.160        53
46.180        60
46.200        33
46.220        80
46.240        60
46.260        87
46.280        93
46.300        80
46.320        60
46.340        67
46.360        87
46.380        33
46.400        93
46.420        53
46.440        53
46.460        47
46.480        67
46.500        20
46.520        80
46.540        53
46.560        67
46.580        47
46.600        73
46.620        73
46.640        47
46.660        53
46.680        47
46.700        40
46.720        67
46.740        67
46.760        60
46.780        67
46.800        47
46.820        13
46.840        60
46.860        67
46.880        40
46.900        53
46.920        27
46.940        40
46.960        27
46.980        60
47.000        80
47.020        60
47.040        87
47.060        47
47.080        40
47.100        27
47.120        40
47.140        27
47.160        47
47.180        47
47.200        67
47.220        33
47.240        33
47.260        73
47.280        53
47.300        47
47.320        80
47.340        27
47.360        67
47.380        33
47.400        40
47.420        40
47.440        20
47.460        53
47.480        20
47.500        87
47.520        33
47.540        40
47.560        93
47.580        67
47.600        67
47.620        27
47.640        47
47.660        53
47.680        47
47.700        60
47.720        33
47.740        93
47.760        27
47.780        60
47.800        40
47.820        33
47.840        53
47.860        33
47.880        40
47.900        20
47.920        20
47.940        40
47.960        47
47.980        40
48.000        53
48.020        53
48.040        60
48.060        60
48.080        40
48.100        87
48.120        53
48.140        40
48.160        33
48.180        53
48.200        80
48.220        73
48.240        60
48.260        47
48.280        47
48.300        53
48.320        27
48.340        40
48.360        27
48.380        47
48.400        53
48.420        27
48.440        60
48.460        67
48.480        20
48.500        33
48.520        87
48.540        47
48.560        27
48.580        20
48.600        40
48.620        20
48.640        47
48.660        60
48.680        60
48.700        60
48.720        67
48.740        53
48.760        40
48.780        27
48.800        20
48.820        33
48.840        53
48.860        40
48.880        47
48.900        53
48.920        47
48.940        53
48.960        40
48.980        40
49.000        27
49.020        27
49.040        47
49.060        33
49.080        60
49.100        53
49.120        47
49.140        53
49.160        47
49.180        40
49.200       100
49.220        67
49.240        47
49.260        40
49.280        27
49.300        13
49.320        60
49.340        53
49.360        47
49.380        40
49.400        13
49.420        40
49.440        53
49.460        47
49.480        47
49.500         7
49.520         7
49.540        67
49.560        47
49.580        33
49.600        47
49.620        47
49.640        47
49.660        40
49.680        20
49.700        40
49.720        40
49.740        13
49.760        40
49.780        40
49.800        67
49.820        53
49.840        40
49.860        40
49.880        60
49.900        27
49.920        60
49.940        27
49.960        20
49.980        40
50.000        47
50.020        27
50.040        40
50.060        47
50.080        53
50.100        60
50.120        40
50.140        67
50.160        33
50.180        27
50.200        33
50.220        33
50.240        40
50.260        40
50.280        47
50.300        33
50.320        80
50.340        47
50.360        47
50.380        60
50.400        33
50.420        20
50.440        27
50.460        53
50.480        53
50.500        33
50.520        40
50.540        47
50.560        27
50.580        27
50.600        53
50.620        53
50.640        27
50.660        27
50.680        53
50.700        53
50.720         7
50.740        33
50.760        20
50.780        40
50.800        53
50.820        67
50.840        27
50.860        47
50.880        33
50.900        40
50.920        40
50.940        27
50.960        33
50.980        27
51.000        33
51.020        40
51.040        27
51.060        27
51.080        20
51.100        40
51.120        47
51.140        33
51.160        53
51.180        33
51.200        27
51.220        60
51.240        60
51.260        27
51.280        47
51.300        33
51.320        53
51.340        33
51.360        47
51.380        60
51.400        40
51.420        33
51.440        60
51.460        27
51.480        60
51.500        40
51.520        47
51.540        13
51.560        40
51.580        27
51.600        53
51.620        40
51.640        20
51.660        33
51.680        27
51.700        40
51.720        47
51.740        13
51.760        33
51.780        13
51.800        20
51.820        47
51.840        53
51.860        53
51.880        40
51.900        33
51.920        47
51.940        20
51.960        27
51.980        27
52.000        27
52.020        33
52.040        27
52.060        40
52.080        20
52.100        40
52.120        33
52.140        20
52.160        40
52.180         7
52.200        33
52.220        47
52.240        33
52.260        40
52.280        47
52.300        47
52.320        13
52.340        40
52.360        40
52.380        40
52.400        47
52.420        53
52.440        47
52.460        33
52.480        60
52.500        53
52.520        87
52.540       120
52.560        67
52.580        27
52.600        80
52.620        73
52.640        60
52.660        40
52.680         7
52.700        93
52.720        47
52.740        53
52.760        27
52.780        47
52.800        33
52.820        67
52.840        13
52.860        13
52.880        27
52.900        40
52.920        27
52.940        20
52.960        40
52.980        20
53.000        53
53.020        47
53.040        47
53.060        27
53.080        27
53.100        53
53.120        20
53.140        20
53.160        40
53.180        13
53.200        53
53.220         7
53.240        33
53.260        27
53.280        27
53.300        47
53.320        27
53.340        13
53.360        53
53.380        20
53.400        27
53.420        47
53.440        33
53.460        73
53.480        33
53.500        27
53.520         7
53.540        27
53.560        27
53.580        40
53.600         7
53.620        40
53.640        33
53.660        33
53.680        33
53.700         7
53.720        20
53.740        47
53.760        40
53.780        53
53.800        33
53.820        20
53.840        67
53.860        33
53.880        53
53.900        33
53.920        20
53.940        40
53.960        33
53.980        53
54.000        27
54.020        40
54.040        53
54.060        53
54.080        20
54.100        13
54.120        33
54.140        40
54.160        60
54.180        27
54.200       100
54.220        33
54.240        27
54.260        27
54.280        40
54.300        67
54.320        13
54.340        27
54.360        27
54.380        60
54.400        27
54.420         7
54.440        27
54.460        13
54.480        27
54.500        13
54.520        20
54.540        53
54.560         7
54.580         7
54.600        20
54.620        33
54.640         0
54.660        13
54.680        33
54.700        40
54.720        60
54.740        27
54.760        33
54.780        33
54.800        40
54.820         7
54.840        40
54.860        20
54.880        47
54.900        27
54.920        27
54.940         7
54.960        47
54.980        13
55.000        60
55.020        40
55.040        60
55.060        27
55.080        60
55.100        33
55.120        40
55.140        27
55.160        47
55.180        27
55.200        27
55.220        60
55.240        27
55.260        27
55.280        60
55.300        20
55.320        27
55.340         7
55.360        27
55.380         7
55.400        20
55.420        40
55.440        67
55.460        67
55.480        33
55.500        27
55.520        47
55.540        20
55.560        33
55.580        33
55.600        53
55.620        20
55.640        20
55.660        60
55.680        40
55.700        33
55.720        47
55.740        33
55.760        40
55.780        73
55.800        60
55.820        60
55.840        60
55.860        93
55.880       140
55.900        67
55.920       100
55.940       133
55.960       167
55.980       247
56.000       140
56.020       180
56.040       167
56.060       133
56.080       160
56.100       100
56.120       153
56.140       113
56.160       153
56.180        80
56.200        60
56.220        53
56.240        67
56.260        87
56.280        67
56.300        33
56.320        47
56.340        33
56.360        40
56.380        33
56.400        53
56.420        47
56.440        60
56.460        60
56.480        20
56.500        33
56.520        47
56.540        47
56.560        47
56.580        20
56.600        33
56.620        20
56.640        27
56.660        53
56.680        20
56.700        13
56.720        47
56.740        47
56.760        33
56.780        27
56.800        20
56.820        47
56.840        73
56.860        20
56.880        20
56.900        47
56.920        40
56.940        53
56.960        33
56.980        27
57.000        33
57.020         0
57.040        60
57.060        60
57.080        33
57.100        27
57.120        33
57.140        40
57.160        33
57.180        33
57.200        47
57.220        27
57.240        20
57.260        87
57.280        53
57.300        60
57.320        87
57.340        60
57.360        67
57.380        73
57.400       153
57.420       220
57.440       293
57.460       280
57.480       440
57.500       400
57.520       320
57.540       327
57.560       280
57.580       180
57.600       160
57.620       260
57.640       173
57.660       267
57.680       180
57.700       113
57.720       113
57.740        60
57.760        40
57.780        40
57.800        47
57.820         7
57.840        27
57.860        27
57.880        27
57.900        40
57.920        27
57.940        13
57.960        27
57.980         7
58.000        20
58.020        20
58.040        20
58.060         7
58.080        53
58.100        20
58.120        27
58.140        33
58.160        20
58.180        53
58.200        40
58.220        20
58.240        33
58.260        13
58.280        33
58.300        20
58.320        33
58.340        27
58.360        20
58.380        60
58.400        40
58.420        53
58.440        13
58.460         7
58.480        40
58.500        20
58.520        20
58.540        33
58.560        27
58.580        47
58.600        40
58.620        33
58.640        27
58.660        27
58.680        47
58.700        27
58.720        20
58.740        13
58.760        53
58.780        13
58.800        40
58.820         7
58.840        33
58.860        47
58.880        40
58.900        40
58.920        27
58.940        80
58.960        40
58.980         7
59.000        20
59.020        13
59.040         0
59.060        27
59.080        20
59.100        13
59.120        20
59.140        13
59.160         0
59.180        27
59.200        67
59.220        47
59.240        53
59.260        53
59.280        33
59.300        20
59.320        27
59.340        40
59.360        27
59.380        27
59.400        40
59.420        27
59.440        27
59.460        33
59.480        53
59.500        33
59.520        27
59.540        33
59.560        27
59.580        13
59.600        27
59.620        60
59.640        47
59.660        80
59.680        33
59.700        40
59.720        27
59.740        33
59.760        60
59.780        27
59.800        47
59.820        33
59.840        33
59.860        40
59.880        60
59.900        47
59.920        20
59.940        20
59.960        27
59.980        40
60.000        33
