20.000       113
20.020       107
20.040        80
20.060        80
20.080       167
20.100        93
20.120        87
20.140        60
20.160       167
20.180       100
20.200       113
20.220       100
20.240        73
20.260       100
20.280       100
20.300        80
20.320        73
20.340       100
20.360        93
20.380       147
20.400       107
20.420       133
20.440       140
20.460       120
20.480        93
20.500       153
20.520       133
20.540       113
20.560        87
20.580       133
20.600        87
20.620        93
20.640       120
20.660       127
20.680        93
20.700       100
20.720        87
20.740       113
20.760       133
20.780       100
20.800       100
20.820       100
20.840        87
20.860       120
20.880        93
20.900       113
20.920       100
20.940        80
20.960       113
20.980       127
21.000       107
21.020       113
21.040       140
21.060        93
21.080        80
21.100       113
21.120        93
21.140       127
21.160        47
21.180        80
21.200       113
21.220       127
21.240       100
21.260       167
21.280       167
21.300       120
21.320       100
21.340       107
21.360       100
21.380        67
21.400       113
21.420       127
21.440        80
21.460       113
21.480        80
21.500        93
21.520       107
21.540       113
21.560        93
21.580       127
21.600       100
21.620        93
21.640        93
21.660       127
21.680       133
21.700        80
21.720       100
21.740        53
21.760        73
21.780        80
21.800       107
21.820       100
21.840        87
21.860       113
21.880        87
21.900       140
21.920        80
21.940        87
21.960       107
21.980       120
22.000       133
22.020       100
22.040        87
22.060       120
22.080        80
22.100       100
22.120        80
22.140        87
22.160       160
22.180       113
22.200        47
22.220        80
22.240       113
22.260        80
22.280       107
22.300        73
22.320       113
22.340       107
22.360        53
22.380       113
22.400       127
22.420       140
22.440       147
22.460       113
22.480        73
22.500       100
22.520       120
22.540       127
22.560       173
22.580       140
22.600        87
22.620       147
22.640        53
22.660        87
22.680        73
22.700        93
22.720       100
22.740       113
22.760       107
22.780       107
22.800        80
22.820        80
22.840       147
22.860       120
22.880        93
22.900        87
22.920        87
22.940       100
22.960        73
22.980       140
23.000        73
23.020        33
23.040        93
23.060        67
23.080        60
23.100        87
23.120        93
23.140       120
23.160       107
23.180       107
23.200       107
23.220       113
23.240        47
23.260        53
23.280        53
23.300       107
23.320        60
23.340        80
23.360        80
23.380        87
23.400        80
23.420       140
23.440        93
23.460        87
23.480        80
23.500       113
23.520        73
23.540       120
23.560       133
23.580       120
23.600        67
23.620        73
23.640        73
23.660       100
23.680        60
23.700       107
23.720       107
23.740        93
23.760        73
23.780       120
23.800        93
23.820        80
23.840        73
23.860        67
23.880       113
23.900        93
23.920        93
23.940       127
23.960        93
23.980        60
24.000        47
24.020        67
24.040        67
24.060        60
24.080        73
24.100        87
24.120        40
24.140        73
24.160       133
24.180       113
24.200        47
24.220        87
24.240        87
24.260        80
24.280       133
24.300        73
24.320        80
24.340        87
24.360       133
24.380       127
24.400        60
24.420        87
24.440        93
24.460        87
24.480        67
24.500        87
24.520       153
24.540        67
24.560        67
24.580        60
24.600       147
24.620        80
24.640       120
24.660       113
24.680        87
24.700       113
24.720        87
24.740        80
24.760        53
24.780        73
24.800        93
24.820        93
24.840        73
24.860       107
24.880        60
24.900        73
24.920        67
24.940        67
24.960       107
24.980       120
25.000        67
25.020        80
25.040       180
25.060        73
25.080        93
25.100        80
25.120        93
25.140        80
25.160        93
25.180        60
25.200        47
25.220       100
25.240        80
25.260        60
25.280        80
25.300        73
25.320        80
25.340        67
25.360        93
25.380        33
25.400       153
25.420        60
25.440        33
25.460       100
25.480        73
25.500        53
25.520        67
25.540        93
25.560        73
25.580       107
25.600        80
25.620        93
25.640        60
25.660        47
25.680        60
25.700        93
25.720        73
25.740       113
25.760        73
25.780        53
25.800        87
25.820        60
25.840        67
25.860        60
25.880        67
25.900        80
25.920       107
25.940        67
25.960        33
25.980        73
26.000        80
26.020       100
26.040        47
26.060        33
26.080        93
26.100       113
26.120        53
26.140        53
26.160        80
26.180        93
26.200        67
26.220        53
26.240        67
26.260        53
26.280        73
26.300        73
26.320        80
26.340        87
26.360        80
26.380       107
26.400        80
26.420        53
26.440        87
26.460        87
26.480        60
26.500       133
26.520        60
26.540        80
26.560        40
26.580        40
26.600        60
26.620        80
26.640        67
26.660        67
26.680        53
26.700       100
26.720        27
26.740        53
26.760        60
26.780        47
26.800        67
26.820        60
26.840        53
26.860        53
26.880        33
26.900        80
26.920        47
26.940        40
26.960        87
26.980        67
27.000        27
27.020        67
27.040        87
27.060        60
27.080        53
27.100        93
27.120        60
27.140        87
27.160        80
27.180        47
27.200        67
27.220        53
27.240        87
27.260        73
27.280        40
27.300        93
27.320        80
27.340        80
27.360        40
27.380        53
27.400        67
27.420        80
27.440        47
27.460       107
27.480        73
27.500        73
27.520        93
27.540        73
27.560        67
27.580        73
27.600        67
27.620        53
27.640        53
27.660        67
27.680        27
27.700       100
27.720        53
27.740        80
27.760       107
27.780        87
27.800        53
27.820        80
27.840        60
27.860        87
27.880        87
27.900        53
27.920        73
27.940        60
27.960        80
27.980        60
28.000        67
28.020        87
28.040        60
28.060        40
28.080        73
28.100        60
28.120        87
28.140        60
28.160       100
28.180        87
28.200        87
28.220        80
28.240        73
28.260        87
28.280        40
28.300        60
28.320        73
28.340        80
28.360        93
28.380        47
28.400       107
28.420        33
28.440        67
28.460        60
28.480        60
28.500        60
28.520        87
28.540        67
28.560        73
28.580        80
28.600        60
28.620        80
28.640        47
28.660       100
28.680        40
28.700        87
28.720       113
28.740        33
28.760        73
28.780        40
28.800        73
28.820        80
28.840        87
28.860        87
28.880        73
28.900        73
28.920        80
28.940       113
28.960        33
28.980        80
29.000        60
29.020        60
29.040        67
29.060       100
29.080       107
29.100        47
29.120       113
29.140        80
29.160        93
29.180       107
29.200       140
29.220        67
29.240       133
29.260       147
29.280       127
29.300       167
29.320       140
29.340        80
29.360       107
29.380        73
29.400       107
29.420        87
29.440        93
29.460        60
29.480        93
29.500        73
29.520        53
29.540        80
29.560        60
29.580        47
29.600        40
29.620        73
29.640        80
29.660        60
29.680       107
29.700        47
29.720        53
29.740        80
29.760        53
29.780        33
29.800        53
29.820        67
29.840        73
29.860        93
29.880        47
29.900        20
29.920        67
29.940        40
29.960        73
29.980        73
30.000        47
30.020        53
30.040        47
30.060        73
30.080        40
30.100        53
30.120        60
30.140        93
30.160        60
30.180        33
30.200        40
30.220        60
30.240        73
30.260        67
30.280        60
30.300        53
30.320        60
30.340        73
30.360        53
30.380        67
30.400        73
30.420        53
30.440        53
30.460        73
30.480        73
30.500        80
30.520        67
30.540        33
30.560        67
30.580        47
30.600        33
30.620        73
30.640        67
30.660        40
30.680        67
30.700        40
30.720        73
30.740        73
30.760        67
30.780        47
30.800        87
30.820        80
30.840        47
30.860        47
30.880        80
30.900        33
30.920        67
30.940        60
30.960        27
30.980        53
31.000        33
31.020        80
31.040        53
31.060        67
31.080        40
31.100        53
31.120        73
31.140        53
31.160        20
31.180        47
31.200        60
31.220       100
31.240        67
31.260        80
31.280        53
31.300        67
31.320        67
31.340        87
31.360       133
31.380        60
31.400       147
31.420       127
31.440       133
31.460       133
31.480       120
31.500       127
31.520        93
31.540       133
31.560        67
31.580        93
31.600       127
31.620        67
31.640        87
31.660        53
31.680       100
31.700        60
31.720        80
31.740        53
31.760        93
31.780        87
31.800        33
31.820        40
31.840        53
31.860        47
31.880        67
31.900        40
31.920        40
31.940        47
31.960        33
31.980        67
32.000        47
32.020        67
32.040        60
32.060        67
32.080        33
32.100        53
32.120        60
32.140        60
32.160        73
32.180       107
32.200        60
32.220        67
32.240        40
32.260        80
32.280        60
32.300        80
32.320        73
32.340        87
32.360        67
32.380        60
32.400        33
32.420        33
32.440        53
32.460        53
32.480        40
32.500        53
32.520        67
32.540        53
32.560        73
32.580        47
32.600        67
32.620        33
32.640        40
32.660        60
32.680        40
32.700        53
32.720        27
32.740        60
32.760        13
32.780        40
32.800        27
32.820        40
32.840        67
32.860        40
32.880        47
32.900        47
32.920       100
32.940        40
32.960        93
32.980        33
33.000        47
33.020        27
33.040        40
33.060        53
33.080        40
33.100        60
33.120        73
33.140        67
33.160        80
33.180        73
33.200        60
33.220        33
33.240        53
33.260        87
33.280        47
33.300        60
33.320        67
33.340        40
33.360        33
33.380        73
33.400        33
33.420        67
33.440        93
33.460        27
33.480        20
33.500        60
33.520       127
33.540        47
33.560        47
33.580        80
33.600        40
33.620        67
33.640        53
33.660        60
33.680        47
33.700        47
33.720        47
33.740        40
33.760        47
33.780        20
33.800        47
33.820        33
33.840        47
33.860        53
33.880        47
33.900        53
33.920        20
33.940        20
33.960        60
33.980        73
34.000        20
34.020        40
34.040        27
34.060        73
34.080        47
34.100        73
34.120        87
34.140        87
34.160        67
34.180       147
34.200        87
34.220        87
34.240        80
34.260        47
34.280       107
34.300        87
34.320        67
34.340        73
34.360       113
34.380       140
34.400       107
34.420       147
34.440       147
34.460       167
34.480       273
34.500       127
34.520       187
34.540       227
34.560       133
34.580       107
34.600       113
34.620        80
34.640        47
34.660       100
34.680        80
34.700        40
34.720       113
34.740        87
34.760        67
34.780       100
34.800        93
34.820        27
34.840        67
34.860        93
34.880        60
34.900       107
34.920        33
34.940       107
34.960        67
34.980        60
35.000        40
35.020        67
35.040       107
35.060       100
35.080       100
35.100       247
35.120       340
35.140       273
35.160       273
35.180       247
35.200       140
35.220       207
35.240       153
35.260       147
35.280       107
35.300        87
35.320        53
35.340        40
35.360        40
35.380        40
35.400        47
35.420        93
35.440        60
35.460        60
35.480        47
35.500        87
35.520        27
35.540        40
35.560        47
35.580        47
35.600        53
35.620        33
35.640        87
35.660        67
35.680        60
35.700        87
35.720        20
35.740        93
35.760        60
35.780       107
35.800        67
35.820        87
35.840        93
35.860       100
35.880        33
35.900        53
35.920        87
35.940        47
35.960        93
35.980       100
36.000       100
36.020        73
36.040        73
36.060        53
36.080        27
36.100       107
36.120        40
36.140        40
36.160        47
36.180        47
36.200        67
36.220        60
36.240        53
36.260        87
36.280        67
36.300        33
36.320        47
36.340        80
36.360        53
36.380        80
36.400        80
36.420        53
36.440        73
36.460        93
36.480        60
36.500        53
36.520        73
36.540        67
36.560        80
36.580        33
36.600        67
36.620        80
36.640        47
36.660        40
36.680        60
36.700        73
36.720        73
36.740        47
36.760        80
36.780        73
36.800        67
36.820       133
36.840        87
36.860       140
36.880       140
36.900       160
36.920       120
36.940       167
36.960       127
36.980       260
37.000       127
37.020       160
37.040       187
37.060       167
37.080       227
37.100       220
37.120       227
37.140       220
37.160       200
37.180       200
37.200       247
37.220       267
37.240       167
37.260       267
37.280       160
37.300       200
37.320       240
37.340       260
37.360       220
37.380       193
37.400       293
37.420       213
37.440       193
37.460       273
37.480       260
37.500       313
37.520       227
37.540       273
37.560       347
37.580       273
37.600       253
37.620       307
37.640       247
37.660       347
37.680       400
37.700       313
37.720       466
37.740       380
37.760       460
37.780       446
37.800       613
37.820       426
37.840       626
37.860       513
37.880       626
37.900       620
37.920       746
37.940       800
37.960      1053
37.980      1206
38.000      1286
38.020      1746
38.040      2146
38.060      2532
38.080      3252
38.100      4165
38.120      4951
38.140      6851
38.160      8363
38.180     11422
38.200     15887
38.220     20732
38.240     25110
38.260     29075
38.280     30874
38.300     31321
38.320     29582
38.340     28682
38.360     26843
38.380     22977
38.400     19172
38.420     16227
38.440     12582
38.460     10083
38.480      7690
38.500      5751
38.520      4805
38.540      3485
38.560      2906
38.580      2432
38.600      1766
38.620      1886
38.640      1379
38.660      1353
38.680      1273
38.700      1173
38.720      1193
38.740      1080
38.760      1013
38.780      1086
38.800      1146
38.820      1053
38.840       773
38.860       973
38.880       680
38.900       640
38.920       506
38.940       533
38.960       453
38.980       413
39.000       486
39.020       400
39.040       380
39.060       320
39.080       353
39.100       347
39.120       260
39.140       360
39.160       293
39.180       247
39.200       313
39.220       280
39.240       327
39.260       227
39.280       280
39.300       187
39.320       287
39.340       300
39.360       287
39.380       200
39.400       207
39.420       207
39.440       147
39.460       247
39.480       173
39.500       207
39.520       227
39.540       147
39.560       167
39.580       100
39.600       160
39.620       187
39.640       200
39.660       240
39.680       160
39.700       207
39.720       193
39.740       213
39.760       147
39.780       160
39.800       140
39.820       173
39.840       267
39.860       160
39.880       153
39.900        93
39.920       173
39.940       147
39.960       200
39.980       100
40.000       167
40.020       147
40.040       113
40.060       127
40.080       120
40.100       173
40.120       153
40.140       173
40.160       160
40.180       113
40.200       167
40.220       113
40.240       140
40.260       133
40.280       127
40.300       127
40.320       127
40.340       200
40.360       160
40.380       127
40.400       120
40.420        93
40.440       120
40.460       107
40.480       107
40.500       113
40.520       147
40.540       113
40.560       127
40.580       120
40.600       140
40.620       120
40.640       100
40.660       147
40.680        73
40.700       127
40.720       153
40.740       133
40.760       187
40.780       133
40.800       127
40.820       120
40.840        93
40.860       167
40.880       127
40.900        80
40.920       107
40.940        87
40.960       180
40.980        87
41.000        80
41.020       193
41.040        93
41.060       107
41.080       147
41.100       140
41.120       127
41.140       107
41.160       140
41.180       127
41.200        80
41.220       167
41.240       100
41.260        87
41.280        93
41.300        93
41.320        80
41.340        87
41.360       107
41.380        73
41.400        67
41.420        67
41.440       120
41.460        93
41.480       100
41.500       147
41.520       140
41.540       187
41.560       147
41.580       180
41.600       140
41.620       233
41.640       213
41.660       247
41.680       260
41.700       233
41.720       267
41.740       207
41.760       173
41.780       200
41.800       153
41.820        87
41.840        93
41.860       113
41.880       120
41.900       120
41.920        93
41.940       100
41.960       127
41.980       120
42.000       127
42.020        93
42.040       147
42.060       113
42.080        67
42.100       100
42.120        93
42.140        87
42.160        80
42.180        87
42.200        80
42.220       140
42.240        80
42.260        80
42.280       120
42.300       107
42.320        67
42.340        67
42.360        60
42.380        87
42.400        67
42.420        67
42.440       100
42.460       107
42.480       160
42.500       120
42.520       113
42.540       107
42.560        73
42.580       140
42.600        47
42.620        93
42.640        87
42.660        93
42.680       107
42.700        80
42.720        80
42.740       120
42.760        53
42.780        67
42.800       147
42.820       100
42.840       113
42.860        87
42.880       113
42.900       133
42.920        67
42.940       100
42.960        93
42.980       127
43.000        93
43.020        87
43.040       127
43.060       127
43.080        73
43.100       127
43.120       133
43.140        87
43.160       113
43.180       100
43.200       113
43.220        87
43.240        87
43.260       140
43.280       100
43.300        67
43.320       153
43.340       247
43.360       207
43.380       200
43.400       180
43.420       187
43.440       120
43.460       153
43.480       187
43.500       200
43.520       113
43.540        93
43.560       113
43.580       100
43.600        53
43.620       107
43.640        87
43.660        80
43.680        80
43.700        53
43.720        67
43.740       100
43.760       133
43.780        47
43.800        80
43.820        53
43.840        60
43.860        87
43.880       107
43.900       107
43.920        80
43.940        87
43.960       133
43.980        87
44.000        53
44.020        80
44.040        47
44.060        80
44.080        47
44.100        47
44.120        93
44.140        93
44.160        47
44.180        87
44.200        80
44.220        87
44.240        73
44.260       107
44.280       100
44.300       133
44.320        80
44.340        80
44.360       120
44.380        93
44.400       113
44.420        73
44.440        67
44.460        73
44.480        60
44.500        73
44.520       107
44.540       107
44.560       113
44.580       107
44.600       100
44.620        87
44.640        80
44.660        60
44.680        80
44.700        87
44.720        87
44.740        93
44.760       100
44.780        73
44.800       140
44.820       127
44.840        93
44.860       120
44.880        87
44.900        93
44.920        67
44.940        67
44.960        47
44.980       100
45.000        73
45.020       107
45.040        80
45.060        93
45.080        73
45.100       100
45.120        53
45.140        33
45.160       113
45.180       133
45.200        73
45.220        93
45.240        87
45.260        87
45.280       147
45.300        80
45.320       100
45.340        60
45.360        80
45.380        80
45.400        47
45.420        73
45.440        60
45.460        80
45.480        73
45.500        67
45.520        93
45.540       100
45.560        73
45.580        60
45.600        87
45.620        67
45.640        67
45.660        53
45.680        47
45.700        60
45.720        87
45.740       120
45.760        20
45.780        33
45.800        73
45.820        67
45.840        80
45.860        73
45.880        87
45.900        87
45.920       100
45.940        47
45.960        60
45.980        40
46.000        53
46.020        60
46.040       113
46.060        80
46.080        73
46.100        80
46.120        73
46.140        80
46.160        67
46.180        33
46.200        80
46.220        47
46.240        67
46.260        67
46.280        67
46.300        87
46.320        93
46.340        40
46.360        87
46.380        47
46.400        53
46.420        73
46.440        53
46.460        73
46.480        67
46.500       107
46.520        80
46.540        93
46.560        87
46.580        80
46.600        53
46.620        40
46.640        53
46.660        67
46.680        67
46.700        60
46.720        80
46.740        87
46.760       100
46.780        53
46.800        47
46.820        33
46.840        60
46.860        60
46.880       113
46.900        80
46.920        87
46.940        87
46.960       113
46.980        87
47.000       100
47.020        40
47.040        93
47.060        67
47.080        60
47.100        40
47.120        60
47.140        87
47.160        80
47.180        93
47.200        27
47.220        67
47.240        47
47.260        67
47.280        60
47.300       107
47.320        40
47.340        60
47.360       107
47.380       100
47.400        53
47.420        53
47.440        53
47.460        53
47.480        80
47.500        60
47.520       100
47.540        60
47.560        80
47.580       107
47.600        60
47.620        53
47.640        40
47.660        87
47.680        80
47.700        60
47.720        47
47.740        87
47.760        80
47.780        27
47.800        53
47.820        93
47.840        60
47.860        40
47.880        87
47.900        47
47.920        80
47.940        53
47.960        53
47.980        67
48.000        80
48.020        47
48.040       113
48.060        53
48.080        80
48.100        80
48.120        67
48.140        60
48.160        67
48.180        80
48.200        67
48.220        93
48.240        53
48.260        73
48.280       100
48.300       120
48.320        73
48.340        33
48.360        73
48.380       100
48.400        47
48.420        93
48.440       133
48.460        93
48.480        87
48.500        60
48.520        87
48.540        53
48.560        60
48.580        73
48.600        53
48.620        53
48.640        47
48.660        67
48.680        60
48.700        73
48.720        27
48.740        53
48.760        60
48.780        73
48.800        33
48.820        80
48.840        33
48.860        13
48.880        73
48.900        27
48.920        27
48.940        80
48.960        73
48.980        20
49.000        47
49.020        47
49.040        67
49.060        47
49.080        80
49.100        20
49.120        67
49.140        53
49.160        80
49.180        27
49.200        33
49.220        13
49.240        67
49.260        33
49.280        73
49.300        40
49.320        47
49.340        93
49.360        20
49.380        80
49.400        47
49.420        53
49.440        53
49.460        53
49.480        67
49.500        40
49.520        40
49.540        53
49.560        40
49.580        47
49.600        40
49.620        53
49.640        20
49.660        33
49.680        47
49.700        47
49.720        47
49.740        47
49.760        47
49.780        40
49.800        80
49.820        27
49.840        47
49.860        20
49.880        67
49.900        53
49.920        20
49.940        47
49.960        40
49.980        67
50.000        33
50.020        67
50.040        53
50.060        87
50.080        40
50.100        73
50.120        87
50.140        33
50.160        27
50.180        40
50.200        20
50.220        27
50.240        80
50.260        47
50.280        60
50.300        53
50.320        27
50.340        40
50.360        60
50.380        67
50.400        33
50.420        20
50.440        67
50.460        47
50.480        27
50.500        87
50.520        53
50.540        53
50.560        47
50.580        53
50.600        67
50.620        33
50.640        67
50.660        33
50.680        47
50.700        53
50.720        73
50.740        40
50.760        33
50.780        53
50.800        73
50.820        33
50.840        67
50.860        60
50.880        73
50.900        47
50.920        60
50.940        40
50.960        60
50.980        47
51.000        47
51.020        47
51.040        40
51.060        33
51.080        27
51.100        60
51.120        47
51.140        87
51.160        20
51.180        40
51.200        47
51.220        27
51.240        40
51.260        40
51.280        40
51.300        53
51.320        40
51.340        53
51.360        53
51.380        53
51.400        53
51.420        20
51.440        47
51.460        33
51.480        33
51.500        53
51.520        27
51.540        20
51.560        40
51.580        40
51.600        40
51.620        47
51.640        60
51.660        73
51.680        47
51.700        33
51.720        27
51.740        60
51.760        40
51.780        27
51.800        67
51.820        40
51.840        40
51.860        40
51.880        47
51.900        20
51.920        53
51.940        60
51.960        53
51.980        47
52.000        73
52.020        53
52.040        27
52.060        20
52.080        20
52.100        27
52.120        33
52.140        47
52.160        27
52.180        27
52.200        53
52.220        33
52.240        47
52.260        53
52.280        33
52.300        40
52.320        60
52.340        67
52.360        13
52.380        47
52.400        27
52.420        13
52.440        87
52.460        33
52.480        33
52.500        47
52.520        67
52.540        87
52.560        80
52.580        87
52.600        47
52.620        53
52.640        47
52.660        40
52.680        40
52.700        93
52.720        80
52.740        53
52.760        80
52.780        27
52.800        40
52.820        60
52.840        53
52.860        40
52.880        33
52.900        67
52.920        33
52.940        67
52.960        13
52.980        60
53.000        33
53.020        60
53.040         7
53.060        33
53.080        20
53.100        67
53.120        67
53.140        60
53.160        53
53.180        67
53.200        27
53.220        40
53.240        47
53.260        33
53.280        33
53.300        33
53.320        27
53.340        40
53.360        53
53.380        20
53.400        60
53.420        40
53.440        60
53.460        20
53.480        53
53.500        40
53.520        53
53.540        40
53.560        27
53.580        33
53.600        53
53.620        40
53.640        47
53.660        33
53.680        47
53.700        33
53.720        53
53.740        33
53.760        33
53.780        27
53.800        47
53.820        27
53.840        47
53.860        20
53.880        47
53.900        47
53.920        33
53.940        27
53.960        67
53.980        40
54.000        60
54.020        33
54.040        40
54.060        33
54.080        33
54.100        47
54.120        33
54.140        20
54.160        67
54.180        27
54.200        53
54.220        60
54.240        27
54.260        73
54.280        87
54.300        40
54.320        40
54.340        33
54.360        20
54.380        33
54.400        13
54.420        47
54.440        33
54.460        33
54.480        13
54.500        20
54.520        27
54.540        47
54.560        40
54.580        73
54.600        53
54.620        47
54.640        40
54.660        80
54.680        40
54.700        60
54.720        60
54.740        33
54.760        53
54.780        40
54.800        47
54.820        47
54.840        33
54.860        60
54.880        27
54.900        27
54.920        40
54.940        53
54.960        47
54.980        20
55.000        13
55.020        27
55.040        47
55.060        27
55.080        40
55.100        13
55.120        33
55.140        80
55.160        40
55.180        40
55.200        33
55.220        20
55.240        40
55.260        60
55.280        33
55.300        20
55.320        73
55.340        20
55.360        53
55.380        67
55.400        40
55.420        33
55.440        40
55.460        27
55.480        27
55.500        20
55.520        60
55.540        20
55.560        67
55.580        53
55.600        40
55.620        33
55.640        47
55.660        47
55.680        60
55.700        53
55.720        60
55.740        73
55.760        33
55.780        27
55.800        33
55.820        47
55.840         7
55.860        27
55.880        27
55.900        47
55.920        60
55.940        93
55.960        47
55.980        60
56.000        60
56.020        67
56.040        20
56.060        40
56.080        47
56.100        60
56.120        93
56.140        53
56.160        80
56.180        27
56.200        80
56.220        60
56.240        67
56.260        87
56.280        33
56.300        33
56.320        33
56.340        60
56.360        47
56.380        47
56.400        33
56.420        27
56.440        27
56.460        33
56.480        53
56.500        73
56.520        33
56.540        13
56.560        73
56.580        20
56.600        40
56.620        60
56.640        60
56.660        33
56.680        47
56.700        47
56.720        80
56.740        33
56.760        20
56.780        40
56.800        93
56.820        53
56.840        47
56.860        40
56.880        27
56.900        47
56.920        20
56.940        73
56.960        13
56.980        47
57.000         7
57.020        20
57.040        60
57.060        87
57.080        27
57.100        53
57.120        53
57.140        20
57.160        87
57.180        60
57.200        20
57.220        93
57.240        47
57.260        47
57.280        27
57.300        47
57.320        40
57.340        53
57.360        73
57.380        80
57.400        27
57.420        67
57.440       173
57.460       100
57.480       153
57.500       127
57.520       160
57.540        60
57.560        93
57.580       100
57.600        73
57.620        80
57.640        93
57.660        60
57.680        87
57.700        27
57.720        27
57.740        40
57.760        27
57.780        33
57.800        20
57.820        87
57.840        40
57.860        40
57.880        67
57.900        27
57.920        40
57.940        33
57.960        13
57.980        27
58.000        13
58.020        20
58.040        53
58.060        33
58.080        67
58.100        40
58.120        13
58.140        33
58.160        40
58.180        20
58.200        20
58.220        33
58.240        60
58.260        20
58.280        13
58.300        47
58.320        20
58.340        13
58.360        47
58.380        13
58.400        33
58.420        40
58.440        27
58.460        67
58.480        20
58.500         7
58.520        33
58.540        13
58.560        33
58.580        33
58.600        27
58.620        13
58.640        53
58.660        27
58.680        27
58.700        47
58.720        20
58.740        47
58.760        40
58.780        20
58.800        13
58.820        53
58.840        27
58.860        27
58.880        20
58.900        60
58.920        60
58.940        20
58.960        53
58.980        53
59.000        47
59.020        20
59.040        40
59.060        33
59.080        27
59.100        33
59.120        13
59.140        27
59.160        40
59.180        40
59.200        60
59.220        27
59.240        40
59.260        93
59.280        40
59.300        33
59.320        73
59.340        40
59.360        40
59.380        13
59.400        27
59.420        27
59.440        20
59.460        27
59.480        53
59.500        47
59.520        73
59.540        13
59.560        33
59.580        40
59.600        53
59.620        27
59.640        27
59.660        53
59.680        27
59.700        27
59.720        27
59.740        40
59.760        40
59.780        47
59.800        20
59.820        47
59.840        33
59.860        60
59.880        53
59.900        27
59.920        67
59.940        33
59.960         0
59.980         0
60.000         0
