20.000         0
20.020         0
20.040         0
20.060         0
20.080         0
20.100        40
20.120        40
20.140        53
20.160        67
20.180        53
20.200        60
20.220        47
20.240        33
20.260        47
20.280        40
20.300        60
20.320        20
20.340        40
20.360        33
20.380        20
20.400        53
20.420        53
20.440        60
20.460        47
20.480        27
20.500        47
20.520        20
20.540        40
20.560        27
20.580        40
20.600        47
20.620        53
20.640        53
20.660        80
20.680        40
20.700        27
20.720        47
20.740        53
20.760        60
20.780        47
20.800        67
20.820        87
20.840        47
20.860        47
20.880        33
20.900        33
20.920        53
20.940        40
20.960        60
20.980        40
21.000        33
21.020        67
21.040        40
21.060        13
21.080        47
21.100        60
21.120        53
21.140        60
21.160        80
21.180        40
21.200        27
21.220        33
21.240        60
21.260        80
21.280        40
21.300        47
21.320        47
21.340        47
21.360        87
21.380        53
21.400        53
21.420        40
21.440        27
21.460        40
21.480        20
21.500        60
21.520        40
21.540        60
21.560        47
21.580        33
21.600        13
21.620        27
21.640        33
21.660        20
21.680        73
21.700        33
21.720        53
21.740        40
21.760        53
21.780        60
21.800        73
21.820        60
21.840        40
21.860        53
21.880        47
21.900        67
21.920        60
21.940        33
21.960        73
21.980        60
22.000        67
22.020        73
22.040        67
22.060        13
22.080        47
22.100        47
22.120        73
22.140        40
22.160        60
22.180        20
22.200        40
22.220        40
22.240        27
22.260        53
22.280        33
22.300        53
22.320        33
22.340        20
22.360        53
22.380        47
22.400        53
22.420        53
22.440        40
22.460        47
22.480        73
22.500        40
22.520        53
22.540        53
22.560       100
22.580        27
22.600        40
22.620        73
22.640        80
22.660        60
22.680        73
22.700        40
22.720        40
22.740        67
22.760        67
22.780        53
22.800        53
22.820       100
22.840        33
22.860        33
22.880        27
22.900        47
22.920        33
22.940        47
22.960        67
22.980        40
23.000        33
23.020        67
23.040        40
23.060        53
23.080        67
23.100        13
23.120        60
23.140        73
23.160        40
23.180        40
23.200        40
23.220        27
23.240        80
23.260        33
23.280        33
23.300        40
23.320        73
23.340        53
23.360        27
23.380        20
23.400         7
23.420        60
23.440        67
23.460        93
23.480        40
23.500        33
23.520        60
23.540        53
23.560        60
23.580        33
23.600        27
23.620        67
23.640        33
23.660        40
23.680        13
23.700        60
23.720        60
23.740        33
23.760        40
23.780        47
23.800        53
23.820        20
23.840        27
23.860        40
23.880        13
23.900        47
23.920        40
23.940         7
23.960        47
23.980        53
24.000        47
24.020        53
24.040        20
24.060        53
24.080        53
24.100        40
24.120        33
24.140        27
24.160        27
24.180        47
24.200        33
24.220         7
24.240        20
24.260        33
24.280        33
24.300        53
24.320        13
24.340         7
24.360        20
24.380        40
24.400         7
24.420        27
24.440        40
24.460        20
24.480        53
24.500        20
24.520         7
24.540        27
24.560        67
24.580        20
24.600        73
24.620        33
24.640        33
24.660        47
24.680        40
24.700        80
24.720        47
24.740        47
24.760        67
24.780        73
24.800        67
24.820        67
24.840        87
24.860        73
24.880        60
24.900        47
24.920        60
24.940        40
24.960        80
24.980        33
25.000        73
25.020        47
25.040        53
25.060        27
25.080        53
25.100        20
25.120        27
25.140        20
25.160        53
25.180        67
25.200        20
25.220         7
25.240        27
25.260        53
25.280        27
25.300        27
25.320        53
25.340        33
25.360        27
25.380        53
25.400        47
25.420        40
25.440        27
25.460        40
25.480        27
25.500        47
25.520        40
25.540        33
25.560        40
25.580        40
25.600        20
25.620        47
25.640        20
25.660        40
25.680        53
25.700        27
25.720        20
25.740        60
25.760        20
25.780        33
25.800        73
25.820        33
25.840        27
25.860        60
25.880        47
25.900        33
25.920        27
25.940        47
25.960        13
25.980        13
26.000        33
26.020        13
26.040        20
26.060        47
26.080        20
26.100        47
26.120        40
26.140        60
26.160        80
26.180        40
26.200        53
26.220        40
26.240        33
26.260        67
26.280        40
26.300        13
26.320        27
26.340        47
26.360        47
26.380        40
26.400        73
26.420        40
26.440        73
26.460        27
26.480        40
26.500        53
26.520        47
26.540        73
26.560        67
26.580        40
26.600        60
26.620        53
26.640        20
26.660        33
26.680        53
26.700        47
26.720        20
26.740        40
26.760        47
26.780        60
26.800        47
26.820        47
26.840        27
26.860        40
26.880        20
26.900        20
26.920        13
26.940        27
26.960         7
26.980        20
27.000        27
27.020        13
27.040        20
27.060        33
27.080        20
27.100        27
27.120        13
27.140        20
27.160        33
27.180        20
27.200        20
27.220        27
27.240        20
27.260        13
27.280        27
27.300        33
27.320        40
27.340        47
27.360        47
27.380        20
27.400        13
27.420        13
27.440        27
27.460        40
27.480        20
27.500        13
27.520         7
27.540        33
27.560        40
27.580        60
27.600        40
27.620        47
27.640        47
27.660        33
27.680        20
27.700        27
27.720        47
27.740        33
27.760        27
27.780        27
27.800        27
27.820        20
27.840         0
27.860        33
27.880        13
27.900        40
27.920        33
27.940        20
27.960        27
27.980        47
28.000        33
28.020         7
28.040        20
28.060        33
28.080        20
28.100         7
28.120        47
28.140        53
28.160        20
28.180        47
28.200        67
28.220        27
28.240        67
28.260         7
28.280        33
28.300        33
28.320        27
28.340        47
28.360        27
28.380        20
28.400        40
28.420        20
28.440        33
28.460        13
28.480        40
28.500        40
28.520        33
28.540        40
28.560        53
28.580        60
28.600        60
28.620        40
28.640        53
28.660        53
28.680        60
28.700        40
28.720        53
28.740        40
28.760        47
28.780        40
28.800         7
28.820        40
28.840        33
28.860        53
28.880        20
28.900        13
28.920        27
28.940        67
28.960        33
28.980        67
29.000        40
29.020        53
29.040        67
29.060        13
29.080        53
29.100        87
29.120        60
29.140        47
29.160        53
29.180        53
29.200        60
29.220        80
29.240        87
29.260        93
29.280        87
29.300        93
29.320       127
29.340       113
29.360        87
29.380        93
29.400       127
29.420        73
29.440        60
29.460        80
29.480        27
29.500        40
29.520        67
29.540        47
29.560        33
29.580        60
29.600        13
29.620        40
29.640        20
29.660        20
29.680        33
29.700        53
29.720        20
29.740        27
29.760        13
29.780        27
29.800        40
29.820        40
29.840        40
29.860        20
29.880        20
29.900         0
29.920        27
29.940        27
29.960        33
29.980        40
30.000        40
30.020        53
30.040        20
30.060        47
30.080        20
30.100        33
30.120        40
30.140        47
30.160        33
30.180        47
30.200        20
30.220        47
30.240        40
30.260        53
30.280        53
30.300        40
30.320        13
30.340        27
30.360        27
30.380        53
30.400        47
30.420        27
30.440        47
30.460        40
30.480        20
30.500        13
30.520         7
30.540        20
30.560        73
30.580        40
30.600        33
30.620        47
30.640        40
30.660        47
30.680        27
30.700        33
30.720        13
30.740        33
30.760        13
30.780        13
30.800        53
30.820        13
30.840        27
30.860        40
30.880        13
30.900        60
30.920        20
30.940        20
30.960        27
30.980        27
31.000        20
31.020        53
31.040        20
31.060        20
31.080        53
31.100        27
31.120        40
31.140        53
31.160        20
31.180        33
31.200        20
31.220        33
31.240        20
31.260        13
31.280        53
31.300        27
31.320        47
31.340         7
31.360        73
31.380        60
31.400        33
31.420        73
31.440        27
31.460        47
31.480        60
31.500        47
31.520        87
31.540        60
31.560        87
31.580        60
31.600        67
31.620       107
31.640       113
31.660        80
31.680        47
31.700        47
31.720        80
31.740        87
31.760        67
31.780        33
31.800        80
31.820        67
31.840        87
31.860        93
31.880        87
31.900        60
31.920        53
31.940        53
31.960        47
31.980        60
32.000        53
32.020        47
32.040        27
32.060        53
32.080        40
32.100        47
32.120        80
32.140        60
32.160        40
32.180        20
32.200        53
32.220        27
32.240        47
32.260        27
32.280        33
32.300        40
32.320        20
32.340        20
32.360        13
32.380         7
32.400        20
32.420        47
32.440        40
32.460        60
32.480        47
32.500         7
32.520        27
32.540        27
32.560        20
32.580        80
32.600        33
32.620        73
32.640        13
32.660        33
32.680        20
32.700        27
32.720        20
32.740        40
32.760        20
32.780        47
32.800        47
32.820        27
32.840        20
32.860        13
32.880        40
32.900        33
32.920         7
32.940        40
32.960        33
32.980         7
33.000        47
33.020        40
33.040        33
33.060        20
33.080         7
33.100        27
33.120        40
33.140        33
33.160        27
33.180        33
33.200        13
33.220        27
33.240        27
33.260        47
33.280        33
33.300        27
33.320        33
33.340        53
33.360        40
33.380        20
33.400        40
33.420        33
33.440        40
33.460        20
33.480        60
33.500        33
33.520        27
33.540        27
33.560        27
33.580        20
33.600        33
33.620        13
33.640        13
33.660        20
33.680        27
33.700        67
33.720        27
33.740        27
33.760        13
33.780        20
33.800        27
33.820        20
33.840        47
33.860        27
33.880        33
33.900        33
33.920         0
33.940        33
33.960        13
33.980        13
34.000        13
34.020        20
34.040        27
34.060        47
34.080        27
34.100        20
34.120        13
34.140        20
34.160         0
34.180        40
34.200        13
34.220        27
34.240        27
34.260        47
34.280        13
34.300        47
34.320        20
34.340        40
34.360        67
34.380        13
34.400        40
34.420        47
34.440        80
34.460        67
34.480        33
34.500       100
34.520        93
34.540        53
34.560        60
34.580        87
34.600        87
34.620        87
34.640        87
34.660       113
34.680        80
34.700        33
34.720        80
34.740        40
34.760        60
34.780        67
34.800        93
34.820        60
34.840        87
34.860        87
34.880        80
34.900        60
34.920        60
34.940       120
34.960       113
34.980        73
35.000        73
35.020        53
35.040        73
35.060       107
35.080        87
35.100       107
35.120        60
35.140       127
35.160        87
35.180       160
35.200       107
35.220       113
35.240       140
35.260        87
35.280       133
35.300       167
35.320       173
35.340       213
35.360       253
35.380       273
35.400       307
35.420       433
35.440       473
35.460       546
35.480       786
35.500       786
35.520      1086
35.540      1753
35.560      2839
35.580      5931
35.600     10456
35.620     12182
35.640     10896
35.660     10089
35.680      9776
35.700     11422
35.720     12935
35.740     13868
35.760     11629
35.780      8943
35.800      6664
35.820      5145
35.840      5071
35.860      4152
35.880      2712
35.900      1066
35.920       613
35.940       453
35.960       380
35.980       247
36.000       293
36.020       193
36.040       153
36.060       113
36.080       167
36.100       207
36.120       173
36.140       120
36.160       167
36.180       133
36.200       127
36.220       120
36.240        87
36.260       100
36.280       147
36.300       120
36.320       113
36.340        73
36.360       107
36.380       120
36.400       120
36.420        47
36.440       127
36.460       133
36.480        67
36.500       100
36.520       127
36.540        53
36.560       120
36.580        40
36.600       100
36.620       133
36.640        93
36.660       100
36.680       133
36.700        87
36.720        93
36.740        87
36.760        73
36.780        60
36.800        60
36.820        93
36.840       100
36.860        53
36.880        67
36.900        60
36.920        53
36.940        60
36.960        60
36.980       113
37.000        73
37.020        53
37.040       120
37.060       107
37.080        67
37.100        60
37.120        93
37.140        53
37.160        60
37.180        67
37.200       107
37.220       107
37.240        87
37.260        47
37.280       113
37.300       100
37.320        67
37.340        67
37.360        67
37.380        47
37.400        93
37.420        80
37.440       100
37.460        60
37.480        67
37.500        73
37.520        93
37.540        53
37.560        67
37.580        53
37.600        80
37.620       113
37.640       120
37.660        47
37.680        87
37.700        80
37.720        87
37.740        60
37.760        47
37.780        87
37.800        93
37.820        87
37.840        40
37.860       113
37.880       120
37.900       120
37.920        87
37.940        73
37.960        47
37.980        73
38.000        40
38.020        47
38.040        67
38.060       113
38.080        67
38.100        87
38.120       120
38.140        73
38.160        87
38.180        93
38.200        87
38.220        87
38.240        87
38.260       107
38.280       100
38.300        73
38.320       120
38.340        80
38.360        73
38.380        53
38.400       113
38.420       120
38.440        80
38.460       147
38.480        47
38.500        80
38.520       113
38.540        87
38.560        73
38.580       113
38.600       113
38.620        67
38.640        53
38.660       120
38.680        53
38.700       100
38.720        73
38.740       120
38.760        80
38.780        80
38.800        60
38.820        80
38.840       113
38.860        93
38.880        80
38.900        73
38.920        87
38.940        60
38.960        47
38.980       120
39.000        53
39.020        93
39.040        67
39.060       100
39.080        33
39.100       100
39.120        73
39.140        53
39.160       127
39.180       100
39.200        93
39.220        67
39.240       153
39.260        93
39.280       113
39.300       133
39.320       147
39.340        93
39.360       100
39.380       107
39.400        87
39.420       113
39.440       140
39.460       133
39.480        87
39.500       113
39.520       113
39.540        60
39.560        80
39.580        60
39.600        87
39.620        87
39.640        47
39.660        93
39.680       160
39.700       113
39.720        80
39.740        73
39.760       127
39.780        87
39.800        40
39.820        80
39.840       107
39.860        93
39.880        73
39.900        60
39.920        93
39.940       107
39.960        60
39.980        73
40.000        33
40.020        87
40.040        80
40.060       107
40.080        73
40.100        80
40.120       120
40.140        87
40.160       107
40.180       127
40.200        53
40.220       107
40.240        73
40.260       100
40.280       113
40.300       147
40.320       127
40.340        73
40.360        73
40.380       140
40.400       113
40.420        40
40.440       127
40.460       120
40.480       120
40.500       140
40.520        93
40.540       113
40.560       113
40.580        67
40.600       133
40.620       140
40.640        73
40.660       113
40.680       107
40.700       120
40.720       107
40.740       100
40.760        93
40.780        93
40.800        87
40.820       167
40.840        87
40.860       133
40.880       100
40.900       127
40.920       107
40.940       107
40.960       127
40.980       100
41.000       120
41.020        73
41.040       120
41.060        93
41.080       153
41.100       133
41.120       133
41.140       107
41.160       100
41.180       127
41.200       127
41.220        87
41.240       113
41.260       153
41.280       160
41.300       113
41.320       147
41.340       140
41.360        93
41.380       100
41.400       147
41.420       113
41.440       193
41.460       153
41.480        93
41.500       153
41.520       113
41.540        80
41.560       127
41.580       120
41.600       153
41.620       140
41.640       147
41.660       107
41.680       120
41.700       133
41.720       120
41.740       133
41.760       187
41.780       133
41.800       167
41.820       207
41.840       133
41.860       167
41.880       173
41.900       133
41.920       140
41.940       120
41.960       140
41.980       153
42.000       100
42.020       133
42.040       147
42.060       133
42.080       160
42.100       113
42.120       120
42.140       140
42.160       127
42.180       180
42.200       153
42.220       120
42.240       133
42.260       173
42.280       100
42.300        87
42.320       160
42.340       167
42.360       133
42.380        87
42.400       167
42.420       127
42.440       113
42.460        93
42.480       153
42.500       113
42.520       180
42.540        93
42.560       147
42.580       140
42.600       120
42.620       120
42.640       133
42.660       100
42.680       147
42.700       193
42.720       160
42.740       153
42.760       113
42.780       100
42.800       153
42.820       187
42.840       193
42.860       133
42.880       153
42.900        73
42.920        87
42.940       127
42.960        93
42.980       153
43.000       180
43.020       140
43.040       147
43.060       120
43.080       173
43.100       160
43.120       153
43.140       207
43.160       153
43.180       107
43.200       167
43.220       200
43.240       147
43.260        80
43.280       207
43.300       147
43.320       147
43.340       200
43.360       140
43.380       180
43.400       113
43.420       127
43.440       147
43.460       107
43.480       140
43.500       200
43.520       127
43.540       147
43.560       167
43.580       140
43.600       127
43.620       160
43.640       147
43.660       147
43.680       133
43.700       107
43.720       127
43.740       133
43.760       140
43.780       133
43.800       147
43.820       147
43.840       167
43.860       173
43.880       180
43.900        87
43.920       193
43.940        93
43.960       187
43.980       173
44.000       133
44.020       107
44.040       140
44.060       100
44.080       180
44.100       153
44.120       140
44.140       173
44.160        93
44.180       127
44.200       100
44.220       133
44.240        93
44.260       107
44.280        93
44.300       153
44.320       120
44.340       127
44.360       160
44.380       140
44.400       120
44.420       147
44.440       107
44.460       160
44.480        80
44.500       147
44.520       167
44.540        87
44.560       133
44.580       133
44.600       133
44.620       160
44.640       147
44.660        93
44.680       133
44.700       127
44.720        67
44.740       120
44.760        93
44.780       147
44.800       173
44.820       147
44.840       120
44.860        87
44.880       193
44.900       153
44.920        93
44.940       127
44.960       113
44.980       133
45.000       160
45.020       127
45.040       133
45.060       153
45.080       140
45.100       140
45.120       160
45.140       147
45.160       133
45.180       120
45.200       133
45.220       207
45.240       173
45.260       267
45.280       160
45.300       147
45.320       180
45.340       167
45.360       180
45.380       167
45.400       213
45.420       160
45.440       153
45.460       147
45.480       140
45.500       140
45.520       147
45.540       140
45.560       120
45.580       140
45.600       187
45.620       173
45.640       113
45.660       153
45.680       207
45.700       147
45.720       160
45.740        53
45.760       153
45.780       113
45.800       113
45.820       167
45.840       160
45.860       127
45.880       193
45.900       167
45.920       160
45.940       147
45.960       100
45.980       127
46.000       100
46.020       167
46.040       167
46.060       127
46.080       173
46.100       147
46.120       133
46.140       120
46.160        67
46.180       100
46.200       107
46.220       153
46.240       127
46.260       147
46.280       140
46.300       120
46.320       120
46.340       147
46.360       107
46.380       140
46.400       107
46.420       187
46.440       160
46.460       120
46.480       113
46.500        80
46.520       147
46.540       193
46.560        93
46.580       100
46.600       187
46.620       173
46.640       107
46.660       173
46.680       127
46.700       147
46.720       180
46.740       147
46.760       120
46.780       160
46.800       140
46.820       107
46.840       153
46.860       167
46.880       127
46.900        80
46.920       140
46.940       127
46.960       127
46.980       127
47.000       147
47.020       147
47.040       167
47.060       240
47.080       160
47.100        87
47.120       113
47.140       160
47.160       120
47.180       167
47.200       220
47.220       180
47.240        87
47.260       140
47.280       180
47.300       187
47.320       207
47.340       167
47.360       173
47.380       173
47.400       193
47.420       213
47.440       233
47.460       173
47.480       153
47.500       193
47.520       167
47.540       187
47.560       147
47.580       133
47.600       173
47.620       107
47.640       167
47.660       180
47.680        93
47.700       160
47.720       220
47.740       147
47.760       133
47.780       153
47.800       120
47.820       153
47.840        87
47.860       160
47.880       133
47.900       213
47.920       187
47.940       113
47.960       140
47.980       133
48.000       127
48.020       153
48.040       173
48.060       120
48.080       120
48.100       127
48.120       187
48.140       220
48.160       187
48.180       193
48.200       107
48.220       153
48.240       160
48.260       173
48.280       120
48.300       127
48.320       153
48.340       147
48.360       153
48.380       107
48.400       107
48.420       140
48.440       173
48.460       153
48.480       113
48.500       133
48.520       140
48.540       127
48.560       153
48.580       173
48.600       153
48.620       133
48.640       113
48.660       167
48.680       200
48.700       147
48.720        93
48.740       167
48.760       253
48.780       127
48.800       100
48.820       147
48.840       127
48.860       127
48.880       140
48.900       147
48.920       113
48.940       133
48.960        73
48.980       120
49.000       180
49.020       147
49.040       127
49.060       167
49.080       147
49.100       167
49.120        73
49.140       173
49.160       127
49.180       227
49.200       133
49.220       147
49.240       133
49.260       120
49.280       120
49.300       113
49.320       107
49.340       133
49.360       180
49.380       160
49.400       107
49.420       180
49.440       133
49.460       107
49.480       127
49.500        87
49.520       173
49.540        87
49.560       147
49.580       187
49.600       120
49.620       140
49.640        93
49.660       153
49.680       173
49.700       113
49.720       133
49.740       147
49.760       100
49.780       100
49.800       193
49.820       147
49.840       100
49.860       213
49.880       107
49.900       153
49.920       133
49.940       160
49.960       127
49.980       140
50.000       140
50.020       113
50.040       147
50.060       100
50.080       100
50.100        87
50.120       140
50.140       160
50.160       160
50.180       160
50.200       107
50.220       147
50.240       160
50.260       127
50.280        73
50.300       120
50.320       127
50.340       147
50.360       113
50.380       113
50.400       100
50.420       153
50.440       160
50.460        80
50.480       140
50.500       167
50.520       173
50.540       160
50.560       147
50.580       167
50.600       127
50.620       113
50.640       187
50.660       140
50.680       173
50.700       147
50.720       120
50.740       140
50.760       173
50.780       107
50.800       120
50.820       100
50.840       107
50.860       133
50.880        80
50.900       100
50.920       160
50.940       153
50.960       140
50.980       140
51.000       107
51.020       147
51.040       113
51.060       133
51.080       127
51.100        87
51.120       153
51.140       140
51.160       147
51.180       160
51.200       173
51.220       153
51.240       133
51.260        93
51.280        93
51.300       113
51.320       113
51.340       160
51.360       147
51.380       120
51.400       107
51.420       113
51.440       113
51.460       113
51.480       153
51.500       167
51.520        87
51.540       127
51.560       140
51.580       153
51.600        73
51.620       133
51.640       107
51.660       127
51.680       113
51.700        93
51.720       113
51.740       133
51.760       120
51.780       140
51.800       127
51.820        87
51.840       100
51.860        87
51.880       100
51.900       153
51.920       107
51.940       173
51.960       127
51.980       173
52.000       100
52.020       100
52.040       180
52.060       160
52.080        93
52.100       133
52.120       120
52.140       127
52.160        73
52.180       133
52.200       120
52.220        93
52.240       187
52.260       127
52.280        93
52.300        93
52.320       173
52.340       127
52.360        93
52.380       173
52.400       120
52.420       113
52.440       100
52.460       100
52.480       147
52.500       167
52.520       120
52.540       100
52.560        87
52.580        73
52.600        80
52.620       153
52.640       120
52.660       127
52.680        60
52.700        80
52.720       153
52.740       127
52.760       200
52.780       147
52.800       153
52.820       127
52.840       133
52.860        93
52.880       133
52.900       140
52.920        93
52.940        93
52.960        87
52.980        87
53.000       120
53.020       167
53.040        80
53.060        67
53.080       167
53.100       113
53.120       100
53.140        93
53.160        87
53.180       100
53.200        60
53.220       107
53.240       113
53.260        93
53.280       120
53.300       120
53.320        87
53.340       147
53.360        47
53.380       133
53.400       147
53.420       100
53.440       100
53.460       100
53.480       133
53.500        80
53.520       140
53.540       127
53.560       153
53.580       140
53.600       133
53.620       107
53.640       113
53.660        93
53.680       153
53.700       107
53.720        87
53.740       153
53.760       120
53.780       133
53.800       140
53.820       133
53.840        73
53.860       120
53.880       133
53.900       107
53.920        93
53.940       153
53.960       133
53.980        87
54.000       127
54.020       180
54.040        87
54.060       113
54.080       113
54.100       127
54.120        93
54.140       107
54.160       100
54.180        87
54.200       140
54.220       100
54.240       127
54.260       140
54.280        73
54.300       107
54.320       167
54.340       127
54.360       167
54.380        73
54.400        47
54.420       107
54.440       153
54.460       133
54.480       100
54.500        87
54.520       133
54.540        93
54.560       127
54.580       207
54.600       247
54.620       280
54.640       347
54.660       233
54.680       160
54.700       160
54.720       160
54.740       167
54.760       147
54.780       200
54.800       107
54.820       100
54.840       127
54.860       113
54.880       127
54.900       100
54.920       140
54.940       113
54.960        80
54.980       133
55.000       200
55.020        87
55.040       107
55.060        93
55.080        73
55.100       120
55.120        53
55.140       133
55.160        93
55.180       113
55.200       147
55.220        60
55.240       140
55.260       113
55.280       133
55.300        87
55.320       147
55.340        87
55.360       127
55.380       107
55.400       107
55.420        73
55.440       113
55.460       133
55.480        80
55.500       107
55.520       113
55.540       153
55.560        87
55.580        73
55.600       147
55.620        80
55.640       140
55.660       107
55.680        87
55.700       100
55.720       127
55.740       113
55.760        67
55.780       107
55.800        60
55.820        87
55.840       113
55.860       100
55.880        73
55.900       113
55.920       120
55.940        80
55.960       107
55.980       133
56.000       120
56.020       107
56.040        87
56.060        87
56.080       140
56.100       133
56.120       147
56.140        93
56.160       100
56.180        67
56.200       113
56.220        67
56.240        80
56.260       113
56.280       133
56.300       107
56.320        87
56.340       113
56.360        93
56.380       147
56.400       127
56.420       107
56.440        67
56.460       107
56.480       107
56.500        87
56.520       113
56.540       113
56.560       133
56.580       153
56.600        73
56.620        73
56.640       113
56.660        73
56.680        87
56.700       113
56.720        93
56.740       107
56.760       113
56.780       127
56.800       140
56.820       113
56.840        60
56.860       100
56.880       120
56.900       153
56.920        80
56.940        87
56.960        87
56.980       120
57.000       173
57.020       107
57.040       120
57.060       113
57.080       153
57.100       127
57.120        80
57.140       127
57.160       147
57.180        87
57.200       140
57.220       147
57.240       127
57.260        87
57.280       100
57.300       127
57.320       100
57.340        87
57.360       120
57.380       100
57.400       140
57.420       107
57.440       113
57.460        93
57.480        93
57.500       120
57.520       133
57.540       107
57.560       113
57.580        73
57.600        87
57.620       113
57.640       107
57.660        93
57.680       113
57.700        73
57.720        67
57.740        93
57.760        73
57.780        93
57.800       107
57.820        93
57.840        80
57.860       120
57.880       147
57.900       120
57.920       147
57.940       100
57.960       107
57.980        80
58.000        80
58.020       113
58.040       100
58.060       100
58.080        60
58.100        53
58.120        87
58.140       100
58.160       113
58.180        47
58.200       127
58.220       107
58.240       100
58.260        67
58.280        80
58.300       113
58.320       100
58.340       140
58.360        60
58.380       113
58.400       120
58.420       113
58.440       127
58.460        80
58.480       113
58.500       120
58.520       113
58.540       120
58.560        93
58.580        87
58.600       113
58.620        87
58.640       100
58.660        47
58.680       147
58.700       100
58.720        87
58.740       100
58.760       120
58.780        73
58.800       120
58.820        33
58.840       120
58.860        87
58.880        93
58.900       100
58.920       120
58.940       100
58.960        53
58.980       127
59.000        87
59.020        60
59.040        53
59.060        93
59.080        80
59.100       147
59.120        53
59.140        73
59.160        93
59.180        93
59.200        27
59.220       127
59.240       100
59.260        93
59.280        93
59.300        93
59.320        73
59.340       127
59.360       107
59.380       133
59.400       100
59.420       100
59.440       113
59.460       127
59.480        53
59.500       107
59.520        80
59.540       113
59.560        73
59.580        87
59.600       127
59.620        80
59.640       107
59.660        93
59.680       113
59.700       120
59.720       100
59.740        40
59.760       120
59.780       113
59.800        93
59.820       147
59.840        67
59.860        60
59.880       120
59.900        53
59.920       120
59.940        73
59.960        93
59.980       127
60.000        47
