20.000       746
20.020       686
20.040       780
20.060       733
20.080       673
20.100       626
20.120       660
20.140       580
20.160       780
20.180       800
20.200       833
20.220       680
20.240       793
20.260       780
20.280       686
20.300       626
20.320       540
20.340       440
20.360       706
20.380       620
20.400       606
20.420       720
20.440       660
20.460       566
20.480       686
20.500       626
20.520       733
20.540       720
20.560       780
20.580       700
20.600       813
20.620       740
20.640       753
20.660       633
20.680       626
20.700       693
20.720       666
20.740       726
20.760       653
20.780       720
20.800       633
20.820       686
20.840       840
20.860       846
20.880       720
20.900       686
20.920       793
20.940       820
20.960       853
20.980       840
21.000       866
21.020       900
21.040       833
21.060       740
21.080       866
21.100       840
21.120       780
21.140       833
21.160       826
21.180       913
21.200       833
21.220       860
21.240       833
21.260       713
21.280       740
21.300       720
21.320       686
21.340       766
21.360       773
21.380       726
21.400       686
21.420       580
21.440       620
21.460       666
21.480       673
21.500       680
21.520       600
21.540       673
21.560       626
21.580       760
21.600       726
21.620       560
21.640       673
21.660       673
21.680       640
21.700       506
21.720       613
21.740       560
21.760       613
21.780       540
21.800       580
21.820       646
21.840       600
21.860       580
21.880       546
21.900       640
21.920       500
21.940       573
21.960       533
21.980       666
22.000       606
22.020       600
22.040       526
22.060       606
22.080       520
22.100       580
22.120       440
22.140       513
22.160       666
22.180       453
22.200       560
22.220       606
22.240       586
22.260       600
22.280       573
22.300       540
22.320       606
22.340       513
22.360       493
22.380       626
22.400       486
22.420       526
22.440       660
22.460       526
22.480       440
22.500       540
22.520       486
22.540       506
22.560       526
22.580       473
22.600       620
22.620       573
22.640       473
22.660       466
22.680       540
22.700       460
22.720       566
22.740       560
22.760       466
22.780       720
22.800       573
22.820       573
22.840       546
22.860       546
22.880       533
22.900       513
22.920       466
22.940       540
22.960       486
22.980       680
23.000       473
23.020       620
23.040       400
23.060       546
23.080       493
23.100       420
23.120       500
23.140       426
23.160       546
23.180       546
23.200       453
23.220       506
23.240       473
23.260       513
23.280       493
23.300       546
23.320       580
23.340       566
23.360       486
23.380       526
23.400       480
23.420       486
23.440       420
23.460       440
23.480       400
23.500       600
23.520       500
23.540       413
23.560       546
23.580       480
23.600       640
23.620       480
23.640       533
23.660       486
23.680       533
23.700       480
23.720       480
23.740       506
23.760       526
23.780       460
23.800       453
23.820       673
23.840       460
23.860       653
23.880       486
23.900       426
23.920       320
23.940       446
23.960       433
23.980       533
24.000       526
24.020       513
24.040       560
24.060       513
24.080       373
24.100       506
24.120       453
24.140       440
24.160       480
24.180       460
24.200       367
24.220       433
24.240       533
24.260       486
24.280       540
24.300       553
24.320       486
24.340       460
24.360       420
24.380       493
24.400       500
24.420       540
24.440       640
24.460       473
24.480       506
24.500       500
24.520       513
24.540       460
24.560       700
24.580       533
24.600       746
24.620       580
24.640       553
24.660       533
24.680       513
24.700       546
24.720       620
24.740       780
24.760       513
24.780       533
24.800       506
24.820       486
24.840       553
24.860       513
24.880       566
24.900       606
24.920       540
24.940       513
24.960       500
24.980       546
25.000       446
25.020       500
25.040       566
25.060       493
25.080       453
25.100       387
25.120       440
25.140       486
25.160       400
25.180       413
25.200       413
25.220       533
25.240       493
25.260       433
25.280       446
25.300       486
25.320       486
25.340       407
25.360       466
25.380       420
25.400       287
25.420       393
25.440       433
25.460       393
25.480       473
25.500       460
25.520       440
25.540       440
25.560       453
25.580       506
25.600       426
25.620       520
25.640       426
25.660       393
25.680       520
25.700       393
25.720       380
25.740       380
25.760       460
25.780       453
25.800       373
25.820       433
25.840       360
25.860       413
25.880       313
25.900       460
25.920       407
25.940       387
25.960       473
25.980       420
26.000       400
26.020       453
26.040       480
26.060       526
26.080       433
26.100       466
26.120       426
26.140       353
26.160       407
26.180       426
26.200       500
26.220       493
26.240       460
26.260       433
26.280       466
26.300       466
26.320       347
26.340       440
26.360       506
26.380       560
26.400       340
26.420       387
26.440       360
26.460       373
26.480       407
26.500       347
26.520       493
26.540       433
26.560       493
26.580       347
26.600       426
26.620       500
26.640       387
26.660       420
26.680       466
26.700       433
26.720       553
26.740       413
26.760       486
26.780       446
26.800       426
26.820       380
26.840       367
26.860       493
26.880       400
26.900       446
26.920       393
26.940       480
26.960       380
26.980       420
27.000       460
27.020       460
27.040       393
27.060       460
27.080       413
27.100       420
27.120       360
27.140       340
27.160       426
27.180       260
27.200       373
27.220       393
27.240       373
27.260       353
27.280       320
27.300       347
27.320       460
27.340       400
27.360       413
27.380       460
27.400       373
27.420       453
27.440       293
27.460       506
27.480       433
27.500       433
27.520       400
27.540       466
27.560       380
27.580       367
27.600       393
27.620       400
27.640       340
27.660       460
27.680       360
27.700       413
27.720       440
27.740       387
27.760       353
27.780       413
27.800       353
27.820       400
27.840       393
27.860       407
27.880       327
27.900       460
27.920       453
27.940       407
27.960       340
27.980       440
28.000       400
28.020       460
28.040       347
28.060       393
28.080       460
28.100       347
28.120       373
28.140       367
28.160       367
28.180       387
28.200       413
28.220       360
28.240       360
28.260       353
28.280       333
28.300       380
28.320       307
28.340       433
28.360       347
28.380       407
28.400       320
28.420       367
28.440       380
28.460       300
28.480       333
28.500       360
28.520       380
28.540       486
28.560       426
28.580       460
28.600       327
28.620       473
28.640       413
28.660       440
28.680       407
28.700       347
28.720       333
28.740       380
28.760       480
28.780       446
28.800       446
28.820       380
28.840       400
28.860       327
28.880       586
28.900       466
28.920       473
28.940       433
28.960       486
28.980       513
29.000       606
29.020       473
29.040       593
29.060       706
29.080       566
29.100       453
29.120       680
29.140       700
29.160       786
29.180       860
29.200       913
29.220       800
29.240       813
29.260       820
29.280       726
29.300       640
29.320       613
29.340       633
29.360       506
29.380       526
29.400       480
29.420       453
29.440       433
29.460       413
29.480       353
29.500       480
29.520       460
29.540       400
29.560       480
29.580       373
29.600       433
29.620       560
29.640       506
29.660       493
29.680       420
29.700       593
29.720       580
29.740       380
29.760       420
29.780       473
29.800       653
29.820       520
29.840       606
29.860       500
29.880       613
29.900       660
29.920       613
29.940       640
29.960       713
29.980       593
30.000       620
30.020       653
30.040       780
30.060       553
30.080       586
30.100       540
30.120       720
30.140       680
30.160       680
30.180       666
30.200       666
30.220       540
30.240       553
30.260       486
30.280       553
30.300       560
30.320       553
30.340       573
30.360       546
30.380       506
30.400       533
30.420       486
30.440       546
30.460       506
30.480       493
30.500       480
30.520       533
30.540       506
30.560       486
30.580       420
30.600       473
30.620       347
30.640       546
30.660       480
30.680       473
30.700       426
30.720       453
30.740       426
30.760       486
30.780       407
30.800       446
30.820       440
30.840       373
30.860       420
30.880       393
30.900       460
30.920       373
30.940       453
30.960       393
30.980       426
31.000       367
31.020       367
31.040       460
31.060       440
31.080       333
31.100       506
31.120       393
31.140       387
31.160       327
31.180       353
31.200       347
31.220       413
31.240       300
31.260       387
31.280       260
31.300       393
31.320       413
31.340       420
31.360       446
31.380       400
31.400       387
31.420       420
31.440       400
31.460       407
31.480       413
31.500       466
31.520       333
31.540       413
31.560       373
31.580       426
31.600       353
31.620       466
31.640       333
31.660       393
31.680       373
31.700       327
31.720       380
31.740       367
31.760       400
31.780       347
31.800       367
31.820       360
31.840       293
31.860       380
31.880       347
31.900       367
31.920       426
31.940       407
31.960       367
31.980       387
32.000       440
32.020       480
32.040       480
32.060       393
32.080       287
32.100       506
32.120       407
32.140       367
32.160       400
32.180       393
32.200       493
32.220       387
32.240       407
32.260       367
32.280       446
32.300       340
32.320       300
32.340       287
32.360       373
32.380       327
32.400       446
32.420       466
32.440       400
32.460       480
32.480       420
32.500       347
32.520       393
32.540       327
32.560       353
32.580       413
32.600       340
32.620       327
32.640       300
32.660       373
32.680       347
32.700       287
32.720       320
32.740       300
32.760       393
32.780       367
32.800       333
32.820       300
32.840       393
32.860       340
32.880       413
32.900       333
32.920       333
32.940       333
32.960       327
32.980       380
33.000       320
33.020       333
33.040       300
33.060       380
33.080       446
33.100       373
33.120       446
33.140       340
33.160       440
33.180       333
33.200       287
33.220       433
33.240       367
33.260       367
33.280       340
33.300       400
33.320       347
33.340       407
33.360       413
33.380       426
33.400       407
33.420       340
33.440       360
33.460       407
33.480       367
33.500       353
33.520       327
33.540       473
33.560       340
33.580       400
33.600       400
33.620       380
33.640       320
33.660       373
33.680       373
33.700       433
33.720       407
33.740       380
33.760       400
33.780       300
33.800       466
33.820       446
33.840       347
33.860       360
33.880       413
33.900       393
33.920       540
33.940       413
33.960       367
33.980       347
34.000       367
34.020       433
34.040       373
34.060       400
34.080       340
34.100       433
34.120       420
34.140       466
34.160       327
34.180       433
34.200       400
34.220       466
34.240       387
34.260       426
34.280       446
34.300       387
34.320       373
34.340       407
34.360       353
34.380       320
34.400       413
34.420       413
34.440       293
34.460       440
34.480       393
34.500       353
34.520       373
34.540       453
34.560       440
34.580       493
34.600       440
34.620       373
34.640       426
34.660       546
34.680       506
34.700       400
34.720       380
34.740       466
34.760       400
34.780       473
34.800       313
34.820       540
34.840       446
34.860       426
34.880       453
34.900       320
34.920       486
34.940       473
34.960       446
34.980       426
35.000       580
35.020       460
35.040       513
35.060       460
35.080       506
35.100       526
35.120       586
35.140       493
35.160       460
35.180       573
35.200       440
35.220       600
35.240       546
35.260       566
35.280       600
35.300       593
35.320       680
35.340       813
35.360       800
35.380       840
35.400       886
35.420      1080
35.440      1066
35.460      1066
35.480      1333
35.500      1406
35.520      1833
35.540      2006
35.560      1979
35.580      2426
35.600      2186
35.620      2459
35.640      2346
35.660      2306
35.680      2379
35.700      1999
35.720      1646
35.740      1573
35.760      1419
35.780      1279
35.800      1100
35.820      1073
35.840      1033
35.860       840
35.880       926
35.900       746
35.920       733
35.940       640
35.960       660
35.980       733
36.000       620
36.020       453
36.040       580
36.060       500
36.080       426
36.100       413
36.120       593
36.140       480
36.160       506
36.180       513
36.200       533
36.220       393
36.240       426
36.260       546
36.280       433
36.300       387
36.320       500
36.340       433
36.360       426
36.380       500
36.400       573
36.420       446
36.440       393
36.460       426
36.480       453
36.500       560
36.520       460
36.540       420
36.560       360
36.580       373
36.600       466
36.620       360
36.640       340
36.660       393
36.680       393
36.700       367
36.720       387
36.740       387
36.760       373
36.780       566
36.800       426
36.820       466
36.840       466
36.860       433
36.880       493
36.900       520
36.920       540
36.940       433
36.960       513
36.980       420
37.000       486
37.020       546
37.040       493
37.060       453
37.080       440
37.100       433
37.120       466
37.140       433
37.160       600
37.180       460
37.200       433
37.220       513
37.240       407
37.260       526
37.280       520
37.300       520
37.320       526
37.340       640
37.360       513
37.380       573
37.400       560
37.420       513
37.440       473
37.460       540
37.480       526
37.500       440
37.520       393
37.540       453
37.560       440
37.580       446
37.600       426
37.620       493
37.640       373
37.660       446
37.680       426
37.700       373
37.720       353
37.740       373
37.760       426
37.780       426
37.800       440
37.820       433
37.840       360
37.860       393
37.880       367
37.900       440
37.920       526
37.940       413
37.960       333
37.980       307
38.000       393
38.020       413
38.040       480
38.060       387
38.080       373
38.100       413
38.120       413
38.140       493
38.160       400
38.180       453
38.200       347
38.220       426
38.240       353
38.260       453
38.280       393
38.300       407
38.320       320
38.340       460
38.360       400
38.380       466
38.400       433
38.420       407
38.440       367
38.460       353
38.480       413
38.500       387
38.520       460
38.540       393
38.560       367
38.580       426
38.600       433
38.620       353
38.640       393
38.660       340
38.680       333
38.700       373
38.720       407
38.740       460
38.760       426
38.780       460
38.800       380
38.820       400
38.840       453
38.860       486
38.880       400
38.900       420
38.920       440
38.940       453
38.960       420
38.980       486
39.000       500
39.020       360
39.040       440
39.060       407
39.080       540
39.100       526
39.120       506
39.140       500
39.160       420
39.180       486
39.200       493
39.220       540
39.240       593
39.260       520
39.280       506
39.300       493
39.320       466
39.340       440
39.360       466
39.380       480
39.400       486
39.420       433
39.440       486
39.460       453
39.480       353
39.500       420
39.520       393
39.540       353
39.560       393
39.580       373
39.600       353
39.620       367
39.640       413
39.660       393
39.680       426
39.700       433
39.720       287
39.740       373
39.760       347
39.780       347
39.800       373
39.820       486
39.840       480
39.860       473
39.880       393
39.900       526
39.920       373
39.940       313
39.960       426
39.980       347
40.000       433
40.020       380
40.040       433
40.060       433
40.080       460
40.100       460
40.120       407
40.140       347
40.160       313
40.180       426
40.200       500
40.220       353
40.240       320
40.260       466
40.280       273
40.300       313
40.320       526
40.340       446
40.360       413
40.380       433
40.400       393
40.420       347
40.440       307
40.460       293
40.480       466
40.500       420
40.520       347
40.540       400
40.560       340
40.580       280
40.600       433
40.620       373
40.640       407
40.660       387
40.680       253
40.700       413
40.720       367
40.740       373
40.760       413
40.780       360
40.800       420
40.820       320
40.840       300
40.860       393
40.880       353
40.900       473
40.920       360
40.940       333
40.960       420
40.980       367
41.000       480
41.020       400
41.040       400
41.060       480
41.080       353
41.100       413
41.120       407
41.140       407
41.160       407
41.180       267
41.200       347
41.220       533
41.240       400
41.260       320
41.280       353
41.300       367
41.320       380
41.340       393
41.360       287
41.380       473
41.400       407
41.420       426
41.440       413
41.460       426
41.480       373
41.500       340
41.520       466
41.540       440
41.560       327
41.580       313
41.600       480
41.620       446
41.640       446
41.660       500
41.680       446
41.700       460
41.720       433
41.740       453
41.760       420
41.780       320
41.800       400
41.820       560
41.840       566
41.860       373
41.880       480
41.900       493
41.920       393
41.940       407
41.960       420
41.980       480
42.000       533
42.020       486
42.040       466
42.060       486
42.080       466
42.100       433
42.120       540
42.140       453
42.160       433
42.180       460
42.200       533
42.220       553
42.240       520
42.260       553
42.280       526
42.300       560
42.320       640
42.340       620
42.360       686
42.380       593
42.400       613
42.420       593
42.440       700
42.460       573
42.480       726
42.500       700
42.520       893
42.540       820
42.560       793
42.580       840
42.600       900
42.620       993
42.640       880
42.660      1100
42.680       993
42.700      1060
42.720      1080
42.740      1253
42.760      1060
42.780      1426
42.800      1366
42.820      1473
42.840      1546
42.860      1279
42.880      1413
42.900      1513
42.920      1313
42.940      1559
42.960      1499
42.980      1779
43.000      1606
43.020      1546
43.040      1633
43.060      1653
43.080      1686
43.100      1726
43.120      1659
43.140      1533
43.160      1413
43.180      1433
43.200      1339
43.220      1353
43.240      1373
43.260      1519
43.280      1033
43.300      1100
43.320      1240
43.340      1060
43.360      1146
43.380      1120
43.400       840
43.420       766
43.440       880
43.460       820
43.480       833
43.500       746
43.520       866
43.540       853
43.560       886
43.580       786
43.600       673
43.620       740
43.640       660
43.660       726
43.680       706
43.700       746
43.720       593
43.740       526
43.760       553
43.780       580
43.800       633
43.820       626
43.840       600
43.860       500
43.880       433
43.900       473
43.920       440
43.940       460
43.960       526
43.980       426
44.000       420
44.020       420
44.040       606
44.060       513
44.080       520
44.100       440
44.120       486
44.140       553
44.160       453
44.180       480
44.200       446
44.220       540
44.240       353
44.260       320
44.280       493
44.300       460
44.320       446
44.340       407
44.360       426
44.380       393
44.400       493
44.420       347
44.440       313
44.460       407
44.480       367
44.500       413
44.520       380
44.540       400
44.560       413
44.580       433
44.600       367
44.620       520
44.640       393
44.660       380
44.680       380
44.700       420
44.720       473
44.740       413
44.760       387
44.780       433
44.800       347
44.820       327
44.840       453
44.860       320
44.880       360
44.900       313
44.920       473
44.940       440
44.960       433
44.980       407
45.000       426
45.020       367
45.040       393
45.060       347
45.080       420
45.100       380
45.120       420
45.140       440
45.160       387
45.180       480
45.200       407
45.220       353
45.240       413
45.260       387
45.280       373
45.300       400
45.320       360
45.340       307
45.360       387
45.380       347
45.400       420
45.420       373
45.440       387
45.460       426
45.480       393
45.500       400
45.520       367
45.540       493
45.560       353
45.580       500
45.600       353
45.620       320
45.640       393
45.660       473
45.680       373
45.700       347
45.720       413
45.740       240
45.760       400
45.780       446
45.800       333
45.820       393
45.840       347
45.860       380
45.880       373
45.900       260
45.920       293
45.940       387
45.960       360
45.980       340
46.000       307
46.020       387
46.040       380
46.060       440
46.080       280
46.100       480
46.120       426
46.140       273
46.160       426
46.180       307
46.200       300
46.220       440
46.240       280
46.260       380
46.280       373
46.300       333
46.320       400
46.340       340
46.360       307
46.380       353
46.400       327
46.420       380
46.440       387
46.460       340
46.480       387
46.500       360
46.520       340
46.540       353
46.560       300
46.580       300
46.600       426
46.620       353
46.640       373
46.660       380
46.680       313
46.700       340
46.720       360
46.740       387
46.760       407
46.780       413
46.800       493
46.820       460
46.840       513
46.860       433
46.880       320
46.900       413
46.920       413
46.940       420
46.960       360
46.980       420
47.000       473
47.020       420
47.040       540
47.060       400
47.080       380
47.100       327
47.120       446
47.140       400
47.160       440
47.180       440
47.200       480
47.220       433
47.240       466
47.260       393
47.280       453
47.300       486
47.320       513
47.340       486
47.360       473
47.380       486
47.400       420
47.420       520
47.440       446
47.460       420
47.480       520
47.500       440
47.520       387
47.540       347
47.560       426
47.580       360
47.600       393
47.620       293
47.640       387
47.660       300
47.680       387
47.700       440
47.720       440
47.740       327
47.760       367
47.780       347
47.800       307
47.820       300
47.840       307
47.860       387
47.880       367
47.900       300
47.920       426
47.940       347
47.960       267
47.980       333
48.000       446
48.020       333
48.040       400
48.060       367
48.080       320
48.100       360
48.120       413
48.140       393
48.160       287
48.180       400
48.200       400
48.220       426
48.240       433
48.260       420
48.280       420
48.300       460
48.320       466
48.340       513
48.360       446
48.380       440
48.400       393
48.420       426
48.440       500
48.460       446
48.480       426
48.500       367
48.520       400
48.540       360
48.560       400
48.580       347
48.600       413
48.620       407
48.640       300
48.660       293
48.680       300
48.700       367
48.720       393
48.740       347
48.760       393
48.780       347
48.800       353
48.820       353
48.840       340
48.860       407
48.880       207
48.900       400
48.920       413
48.940       327
48.960       353
48.980       293
49.000       280
49.020       420
49.040       347
49.060       387
49.080       380
49.100       287
49.120       340
49.140       313
49.160       273
49.180       373
49.200       360
49.220       253
49.240       353
49.260       273
49.280       340
49.300       307
49.320       347
49.340       307
49.360       327
49.380       340
49.400       373
49.420       280
49.440       247
49.460       353
49.480       280
49.500       380
49.520       320
49.540       360
49.560       340
49.580       327
49.600       267
49.620       327
49.640       313
49.660       327
49.680       307
49.700       253
49.720       353
49.740       213
49.760       320
49.780       307
49.800       307
49.820       307
49.840       320
49.860       260
49.880       353
49.900       260
49.920       320
49.940       307
49.960       353
49.980       347
50.000       313
50.020       227
50.040       360
50.060       313
50.080       367
50.100       320
50.120       220
50.140       300
50.160       327
50.180       333
50.200       373
50.220       227
50.240       320
50.260       320
50.280       373
50.300       247
50.320       293
50.340       300
50.360       293
50.380       333
50.400       380
50.420       353
50.440       373
50.460       353
50.480       327
50.500       407
50.520       333
50.540       307
50.560       333
50.580       327
50.600       387
50.620       367
50.640       267
50.660       400
50.680       307
50.700       360
50.720       300
50.740       353
50.760       300
50.780       300
50.800       360
50.820       293
50.840       293
50.860       387
50.880       420
50.900       333
50.920       287
50.940       367
50.960       440
50.980       320
51.000       353
51.020       367
51.040       426
51.060       446
51.080       280
51.100       280
51.120       287
51.140       320
51.160       420
51.180       333
51.200       280
51.220       333
51.240       333
51.260       273
51.280       367
51.300       280
51.320       360
51.340       360
51.360       300
51.380       353
51.400       373
51.420       407
51.440       340
51.460       240
51.480       293
51.500       307
51.520       327
51.540       287
51.560       307
51.580       273
51.600       307
51.620       347
51.640       307
51.660       300
51.680       280
51.700       360
51.720       307
51.740       327
51.760       347
51.780       313
51.800       333
51.820       367
51.840       353
51.860       347
51.880       327
51.900       413
51.920       293
51.940       260
51.960       327
51.980       387
52.000       293
52.020       247
52.040       333
52.060       240
52.080       280
52.100       413
52.120       307
52.140       280
52.160       287
52.180       347
52.200       267
52.220       307
52.240       280
52.260       313
52.280       340
52.300       307
52.320       273
52.340       380
52.360       273
52.380       307
52.400       273
52.420       313
52.440       360
52.460       333
52.480       327
52.500       373
52.520       233
52.540       360
52.560       333
52.580       367
52.600       347
52.620       373
52.640       353
52.660       293
52.680       360
52.700       400
52.720       380
52.740       327
52.760       320
52.780       293
52.800       420
52.820       327
52.840       227
52.860       340
52.880       380
52.900       280
52.920       367
52.940       300
52.960       280
52.980       367
53.000       307
53.020       367
53.040       433
53.060       320
53.080       320
53.100       300
53.120       387
53.140       327
53.160       433
53.180       353
53.200       360
53.220       466
53.240       360
53.260       460
53.280       426
53.300       433
53.320       493
53.340       360
53.360       513
53.380       407
53.400       353
53.420       393
53.440       460
53.460       533
53.480       420
53.500       506
53.520       520
53.540       446
53.560       520
53.580       506
53.600       440
53.620       466
53.640       553
53.660       460
53.680       520
53.700       433
53.720       460
53.740       513
53.760       540
53.780       473
53.800       493
53.820       420
53.840       426
53.860       413
53.880       413
53.900       393
53.920       546
53.940       327
53.960       473
53.980       373
54.000       373
54.020       353
54.040       513
54.060       340
54.080       313
54.100       387
54.120       400
54.140       340
54.160       367
54.180       407
54.200       313
54.220       347
54.240       347
54.260       367
54.280       446
54.300       333
54.320       353
54.340       300
54.360       300
54.380       367
54.400       320
54.420       400
54.440       293
54.460       313
54.480       287
54.500       320
54.520       247
54.540       380
54.560       333
54.580       400
54.600       300
54.620       340
54.640       367
54.660       320
54.680       227
54.700       307
54.720       353
54.740       380
54.760       287
54.780       247
54.800       313
54.820       380
54.840       260
54.860       353
54.880       340
54.900       347
54.920       440
54.940       300
54.960       307
54.980       267
55.000       313
55.020       280
55.040       373
55.060       220
55.080       307
55.100       360
55.120       313
55.140       320
55.160       280
55.180       260
55.200       327
55.220       313
55.240       307
55.260       353
55.280       267
55.300       327
55.320       240
55.340       280
55.360       260
55.380       307
55.400       293
55.420       353
55.440       340
55.460       307
55.480       353
55.500       353
55.520       273
55.540       307
55.560       247
55.580       267
55.600       313
55.620       340
55.640       340
55.660       320
55.680       327
55.700       273
55.720       287
55.740       280
55.760       320
55.780       333
55.800       353
55.820       267
55.840       287
55.860       233
55.880       253
55.900       380
55.920       367
55.940       320
55.960       273
55.980       220
56.000       233
56.020       327
56.040       293
56.060       213
56.080       260
56.100       320
56.120       307
56.140       287
56.160       313
56.180       347
56.200       413
56.220       347
56.240       273
56.260       253
56.280       307
56.300       367
56.320       333
56.340       320
56.360       353
56.380       333
56.400       300
56.420       353
56.440       287
56.460       347
56.480       267
56.500       367
56.520       360
56.540       313
56.560       280
56.580       333
56.600       360
56.620       340
56.640       267
56.660       320
56.680       360
56.700       247
56.720       433
56.740       313
56.760       360
56.780       420
56.800       240
56.820       327
56.840       340
56.860       367
56.880       280
56.900       320
56.920       400
56.940       320
56.960       333
56.980       367
57.000       340
57.020       353
57.040       340
57.060       387
57.080       253
57.100       233
57.120       320
57.140       360
57.160       340
57.180       426
57.200       313
57.220       380
57.240       293
57.260       273
57.280       347
57.300       460
57.320       267
57.340       333
57.360       393
57.380       313
57.400       240
57.420       293
57.440       313
57.460       273
57.480       347
57.500       193
57.520       367
57.540       420
57.560       367
57.580       220
57.600       240
57.620       240
57.640       307
57.660       273
57.680       360
57.700       340
57.720       260
57.740       373
57.760       267
57.780       273
57.800       300
57.820       340
57.840       260
57.860       313
57.880       307
57.900       260
57.920       347
57.940       307
57.960       220
57.980       333
58.000       307
58.020       267
58.040       293
58.060       287
58.080       293
58.100       280
58.120       247
58.140       327
58.160       347
58.180       360
58.200       287
58.220       233
58.240       300
58.260       287
58.280       293
58.300       320
58.320       227
58.340       260
58.360       240
58.380       267
58.400       227
58.420       260
58.440       287
58.460       280
58.480       293
58.500       280
58.520       307
58.540       300
58.560       280
58.580       247
58.600       260
58.620       307
58.640       280
58.660       347
58.680       353
58.700       353
58.720       293
58.740       267
58.760       293
58.780       187
58.800       307
58.820       273
58.840       293
58.860       267
58.880       267
58.900       253
58.920       247
58.940       333
58.960       247
58.980       307
59.000       240
59.020       313
59.040       273
59.060       327
59.080       227
59.100       280
59.120       280
59.140       300
59.160       240
59.180       293
59.200       280
59.220       220
59.240       340
59.260       253
59.280       333
59.300       333
59.320       320
59.340       240
59.360       260
59.380       247
59.400       260
59.420       307
59.440       260
59.460       253
59.480       287
59.500       280
59.520       220
59.540       380
59.560       293
59.580       313
59.600       307
59.620       320
59.640       307
59.660       227
59.680       287
59.700       280
59.720       340
59.740       287
59.760       240
59.780       253
59.800       233
59.820       333
59.840       287
59.860       260
59.880       293
59.900         0
59.920         0
59.940         0
59.960         0
59.980         0
60.000         0
