20.000         0
20.020         0
20.040         0
20.060         0
20.080         0
20.100         0
20.120         0
20.140         0
20.160         0
20.180         0
20.200         0
20.220         0
20.240         0
20.260         0
20.280         0
20.300         0
20.320         0
20.340         0
20.360         0
20.380         0
20.400         0
20.420         0
20.440         0
20.460         0
20.480        60
20.500        47
20.520        53
20.540        53
20.560        67
20.580        40
20.600        33
20.620        33
20.640         7
20.660        40
20.680        47
20.700        60
20.720        47
20.740        40
20.760        47
20.780        60
20.800        33
20.820        13
20.840        60
20.860        27
20.880        20
20.900        47
20.920        53
20.940        20
20.960        53
20.980        47
21.000        53
21.020        27
21.040        27
21.060        60
21.080        40
21.100        60
21.120        47
21.140        73
21.160        33
21.180        60
21.200        73
21.220        73
21.240        60
21.260        53
21.280        40
21.300        40
21.320        33
21.340        73
21.360        40
21.380        67
21.400        73
21.420        40
21.440        40
21.460        40
21.480        33
21.500        67
21.520        80
21.540        93
21.560        40
21.580        80
21.600        13
21.620        87
21.640        60
21.660        27
21.680        40
21.700        53
21.720        33
21.740        40
21.760        27
21.780        53
21.800        40
21.820        33
21.840        20
21.860        33
21.880        33
21.900        27
21.920        20
21.940        33
21.960        40
21.980        27
22.000        20
22.020        67
22.040        40
22.060        93
22.080        47
22.100        13
22.120        33
22.140        40
22.160        33
22.180        33
22.200        20
22.220        40
22.240        53
22.260        40
22.280        33
22.300        40
22.320        47
22.340        27
22.360        60
22.380        53
22.400        27
22.420        40
22.440        40
22.460        40
22.480        20
22.500        47
22.520        67
22.540        27
22.560        40
22.580        20
22.600        33
22.620        27
22.640        60
22.660        40
22.680        20
22.700        33
22.720        93
22.740        13
22.760        27
22.780        53
22.800        53
22.820        40
22.840        67
22.860        47
22.880        27
22.900        33
22.920        53
22.940        20
22.960        60
22.980        27
23.000        60
23.020        20
23.040        20
23.060        33
23.080        60
23.100        60
23.120        13
23.140        53
23.160        40
23.180        40
23.200        47
23.220        60
23.240        33
23.260        33
23.280        67
23.300        27
23.320        47
23.340        20
23.360        33
23.380        40
23.400        40
23.420        47
23.440        67
23.460        47
23.480        47
23.500         7
23.520        33
23.540        20
23.560        13
23.580        47
23.600        53
23.620        40
23.640        53
23.660        47
23.680        40
23.700        13
23.720        47
23.740        20
23.760        27
23.780        60
23.800        33
23.820        13
23.840        87
23.860        27
23.880        20
23.900        53
23.920        40
23.940        40
23.960        40
23.980        27
24.000        20
24.020        53
24.040        20
24.060        40
24.080        13
24.100        60
24.120        53
24.140        33
24.160        13
24.180        20
24.200        33
24.220        53
24.240        20
24.260        53
24.280        27
24.300        20
24.320        27
24.340        20
24.360        33
24.380        33
24.400        13
24.420        27
24.440        13
24.460        47
24.480        40
24.500        73
24.520        53
24.540        33
24.560        53
24.580        27
24.600        47
24.620        20
24.640        47
24.660        47
24.680        47
24.700        60
24.720        53
24.740        33
24.760        47
24.780        40
24.800        60
24.820        93
24.840        53
24.860        40
24.880       100
24.900        67
24.920        33
24.940        33
24.960        33
24.980        47
25.000        47
25.020        33
25.040        47
25.060        40
25.080        60
25.100        27
25.120        53
25.140        40
25.160         7
25.180        33
25.200        47
25.220        40
25.240        53
25.260        33
25.280        27
25.300        40
25.320        47
25.340        40
25.360        40
25.380        40
25.400        60
25.420        60
25.440        47
25.460        53
25.480        73
25.500        67
25.520        53
25.540        47
25.560       167
25.580       313
25.600       380
25.620       380
25.640       480
25.660       207
25.680       207
25.700       127
25.720        80
25.740        73
25.760        33
25.780        33
25.800        40
25.820        27
25.840        60
25.860        33
25.880        33
25.900        13
25.920         7
25.940        47
25.960        87
25.980        27
26.000        27
26.020        33
26.040        40
26.060        40
26.080        47
26.100        47
26.120        33
26.140        13
26.160        20
26.180        60
26.200        33
26.220        47
26.240        47
26.260        20
26.280        53
26.300        33
26.320        47
26.340        33
26.360        13
26.380        40
26.400        27
26.420        27
26.440        13
26.460        53
26.480        40
26.500        20
26.520        33
26.540        47
26.560        53
26.580        33
26.600        40
26.620        13
26.640        20
26.660        20
26.680        40
26.700        33
26.720        13
26.740        27
26.760        33
26.780         7
26.800        40
26.820        33
26.840        40
26.860        20
26.880         7
26.900         7
26.920        33
26.940        27
26.960        47
26.980        80
27.000        13
27.020        40
27.040         7
27.060        13
27.080        47
27.100        27
27.120         7
27.140        27
27.160        33
27.180        20
27.200        20
27.220        33
27.240        40
27.260        33
27.280        27
27.300        47
27.320        13
27.340        27
27.360        13
27.380        20
27.400        13
27.420        33
27.440        13
27.460         0
27.480        40
27.500        27
27.520        13
27.540        13
27.560        33
27.580        73
27.600        47
27.620        40
27.640        33
27.660        47
27.680        20
27.700        40
27.720        27
27.740        20
27.760        40
27.780        27
27.800        27
27.820        20
27.840        20
27.860        33
27.880        40
27.900        27
27.920        13
27.940        20
27.960        60
27.980        40
28.000        27
28.020        13
28.040        53
28.060        40
28.080         7
28.100        13
28.120        40
28.140        27
28.160        33
28.180        27
28.200        27
28.220        40
28.240        40
28.260        27
28.280        40
28.300        47
28.320        40
28.340        53
28.360         7
28.380        47
28.400        27
28.420        13
28.440        47
28.460        20
28.480        67
28.500        20
28.520        20
28.540        33
28.560         0
28.580        47
28.600        20
28.620        33
28.640        47
28.660        27
28.680        40
28.700        20
28.720        27
28.740        13
28.760        20
28.780        20
28.800        20
28.820        33
28.840        13
28.860        33
28.880        27
28.900         7
28.920        27
28.940        53
28.960        40
28.980        33
29.000        27
29.020        80
29.040        40
29.060        60
29.080        40
29.100        33
29.120        53
29.140        27
29.160        33
29.180        40
29.200        67
29.220        87
29.240        53
29.260        73
29.280        40
29.300        93
29.320        73
29.340       133
29.360       133
29.380       167
29.400       127
29.420       107
29.440        93
29.460       107
29.480        87
29.500        73
29.520        27
29.540        27
29.560        33
29.580        33
29.600        27
29.620        27
29.640        20
29.660        27
29.680        20
29.700        40
29.720        40
29.740        13
29.760         0
29.780        40
29.800        27
29.820        27
29.840        27
29.860        13
29.880        13
29.900        27
29.920        20
29.940        13
29.960        67
29.980        40
30.000        27
30.020         7
30.040         7
30.060        27
30.080        13
30.100        20
30.120        33
30.140        13
30.160         0
30.180        20
30.200        20
30.220        27
30.240        27
30.260        27
30.280        33
30.300         7
30.320        33
30.340        27
30.360        20
30.380         7
30.400        27
30.420        20
30.440        27
30.460        27
30.480        13
30.500        20
30.520        20
30.540        13
30.560        33
30.580        27
30.600        20
30.620        47
30.640        27
30.660        27
30.680        33
30.700        13
30.720        20
30.740        13
30.760        53
30.780        40
30.800         7
30.820        20
30.840         7
30.860         7
30.880        33
30.900        47
30.920        20
30.940        13
30.960        33
30.980        27
31.000         0
31.020        33
31.040        27
31.060        20
31.080        20
31.100        27
31.120        33
31.140        27
31.160        20
31.180        33
31.200         7
31.220        47
31.240        53
31.260        20
31.280        20
31.300        27
31.320        40
31.340        53
31.360        47
31.380        40
31.400        20
31.420        20
31.440        20
31.460        27
31.480        20
31.500         7
31.520        33
31.540        13
31.560        33
31.580        20
31.600        20
31.620         7
31.640        13
31.660        40
31.680        27
31.700        20
31.720        13
31.740        13
31.760        20
31.780        20
31.800         7
31.820         7
31.840        33
31.860        33
31.880         0
31.900        20
31.920        20
31.940         7
31.960        27
31.980        20
32.000         7
32.020        40
32.040        27
32.060        20
32.080        67
32.100        27
32.120        40
32.140        13
32.160        13
32.180        20
32.200        33
32.220         0
32.240        73
32.260         7
32.280        20
32.300        13
32.320        20
32.340        53
32.360        20
32.380         0
32.400        27
32.420        27
32.440        13
32.460        13
32.480        27
32.500         7
32.520        13
32.540        27
32.560        20
32.580         7
32.600        13
32.620        13
32.640        13
32.660        20
32.680        27
32.700         7
32.720        27
32.740         7
32.760         0
32.780        33
32.800         7
32.820        33
32.840        20
32.860        60
32.880        13
32.900        13
32.920        40
32.940        20
32.960         7
32.980        27
33.000        20
33.020        20
33.040        33
33.060         7
33.080        27
33.100        13
33.120        13
33.140        13
33.160        20
33.180        13
33.200        20
33.220        13
33.240        20
33.260        20
33.280        20
33.300        27
33.320        40
33.340        13
33.360        13
33.380        13
33.400        27
33.420        33
33.440        40
33.460        20
33.480        40
33.500        20
33.520        20
33.540        13
33.560        27
33.580        20
33.600        13
33.620        40
33.640         0
33.660        40
33.680        20
33.700        20
33.720        27
33.740        13
33.760        67
33.780         7
33.800        33
33.820        33
33.840        33
33.860        20
33.880        27
33.900        20
33.920        13
33.940        47
33.960        40
33.980        20
34.000        20
34.020         7
34.040        20
34.060        47
34.080        27
34.100        27
34.120        40
34.140        40
34.160        13
34.180        13
34.200        47
34.220        40
34.240        33
34.260        33
34.280        20
34.300        20
34.320        20
34.340        60
34.360        33
34.380        33
34.400        40
34.420        27
34.440        60
34.460        67
34.480        53
34.500       107
34.520       120
34.540       133
34.560       180
34.580       180
34.600       100
34.620       113
34.640       140
34.660       113
34.680       153
34.700        60
34.720        47
34.740        53
34.760        67
34.780        40
34.800        33
34.820        33
34.840        40
34.860        27
34.880        60
34.900        47
34.920        13
34.940        13
34.960        20
34.980         7
35.000        33
35.020        13
35.040        20
35.060         0
35.080        13
35.100        27
35.120        20
35.140         0
35.160        40
35.180         7
35.200        60
35.220        33
35.240        67
35.260        60
35.280        20
35.300        87
35.320        80
35.340       120
35.360        20
35.380        40
35.400        40
35.420        47
35.440        47
35.460        40
35.480         7
35.500        27
35.520        27
35.540         7
35.560        47
35.580        20
35.600        40
35.620        27
35.640        40
35.660        27
35.680        27
35.700        13
35.720         7
35.740        33
35.760        27
35.780        47
35.800        40
35.820        20
35.840        33
35.860        53
35.880        47
35.900        27
35.920        33
35.940        27
35.960        13
35.980        27
36.000        53
36.020        67
36.040        13
36.060        47
36.080        33
36.100        27
36.120        53
36.140        27
36.160        13
36.180        13
36.200        13
36.220        27
36.240        20
36.260        27
36.280         7
36.300        40
36.320        20
36.340        20
36.360        53
36.380        27
36.400        13
36.420        20
36.440        20
36.460        33
36.480        27
36.500        20
36.520        13
36.540        13
36.560         7
36.580        40
36.600        13
36.620        27
36.640        13
36.660        13
36.680         0
36.700        13
36.720        13
36.740        33
36.760        20
36.780        27
36.800        20
36.820         7
36.840        13
36.860        40
36.880        40
36.900        20
36.920        13
36.940        27
36.960        20
36.980        27
37.000        20
37.020        20
37.040        13
37.060        27
37.080        40
37.100        27
37.120        27
37.140        33
37.160        27
37.180        40
37.200        27
37.220        60
37.240        27
37.260        53
37.280        67
37.300        60
37.320        73
37.340        73
37.360        73
37.380       160
37.400       153
37.420       127
37.440       213
37.460       253
37.480       140
37.500       233
37.520       227
37.540       220
37.560       153
37.580        67
37.600       133
37.620        80
37.640        93
37.660        67
37.680        93
37.700        60
37.720        67
37.740        53
37.760        47
37.780        47
37.800        33
37.820        40
37.840        20
37.860         7
37.880         7
37.900        33
37.920        40
37.940        33
37.960        33
37.980        33
38.000        27
38.020         0
38.040         7
38.060        40
38.080         7
38.100        33
38.120        40
38.140        13
38.160        20
38.180        40
38.200        33
38.220        13
38.240        20
38.260        47
38.280        33
38.300        47
38.320        40
38.340        20
38.360         7
38.380        27
38.400        20
38.420        60
38.440         0
38.460        27
38.480        27
38.500        20
38.520        13
38.540         7
38.560        33
38.580        53
38.600        27
38.620        47
38.640         0
38.660        20
38.680        20
38.700        20
38.720        27
38.740        33
38.760        20
38.780        13
38.800        27
38.820        40
38.840        20
38.860        13
38.880        20
38.900        20
38.920        53
38.940         7
38.960        47
38.980        13
39.000        20
39.020        67
39.040        40
39.060         0
39.080        20
39.100        20
39.120        33
39.140        40
39.160        27
39.180        20
39.200        47
39.220        40
39.240        47
39.260        27
39.280        53
39.300        80
39.320        47
39.340        27
39.360        47
39.380        33
39.400        67
39.420        53
39.440        80
39.460        20
39.480        47
39.500         0
39.520        20
39.540         7
39.560        27
39.580        20
39.600        27
39.620        13
39.640        20
39.660        40
39.680         7
39.700         7
39.720         7
39.740        33
39.760        20
39.780        27
39.800        60
39.820        47
39.840        33
39.860        67
39.880        53
39.900        47
39.920        47
39.940        33
39.960        33
39.980        20
40.000        20
40.020        27
40.040        33
40.060        20
40.080         0
40.100        33
40.120         0
40.140        47
40.160        27
40.180        13
40.200        53
40.220        27
40.240        13
40.260         7
40.280        13
40.300        20
40.320        27
40.340        27
40.360        13
40.380        13
40.400        40
40.420        20
40.440         0
40.460        33
40.480        27
40.500         0
40.520         7
40.540        33
40.560        40
40.580        20
40.600        13
40.620        13
40.640        13
40.660         7
40.680        20
40.700        27
40.720         7
40.740         0
40.760        40
40.780        27
40.800        20
40.820        20
40.840        33
40.860        20
40.880        13
40.900        33
40.920         7
40.940        13
40.960        27
40.980        33
41.000         7
41.020        20
41.040        20
41.060        33
41.080         7
41.100        20
41.120        20
41.140        27
41.160        13
41.180        13
41.200        20
41.220        20
41.240        20
41.260        27
41.280         0
41.300        13
41.320        20
41.340        27
41.360        27
41.380        40
41.400        40
41.420        13
41.440        40
41.460        20
41.480         7
41.500        20
41.520        13
41.540        20
41.560        13
41.580        20
41.600        27
41.620        40
41.640         7
41.660        13
41.680        20
41.700         0
41.720        27
41.740        40
41.760         7
41.780        20
41.800        13
41.820        20
41.840        40
41.860         7
41.880        20
41.900        20
41.920        40
41.940        33
41.960        13
41.980        33
42.000        20
42.020        33
42.040        27
42.060        27
42.080        13
42.100        33
42.120        13
42.140        13
42.160         7
42.180        53
42.200        33
42.220         7
42.240        33
42.260        40
42.280        20
42.300        27
42.320        40
42.340        13
42.360        13
42.380        33
42.400        20
42.420        40
42.440        13
42.460        13
42.480        13
42.500        13
42.520        40
42.540        33
42.560        20
42.580        20
42.600        40
42.620        33
42.640         7
42.660        33
42.680        20
42.700        27
42.720        27
42.740        20
42.760        13
42.780        33
42.800        27
42.820        33
42.840        27
42.860        27
42.880        20
42.900         0
42.920         7
42.940        53
42.960        33
42.980        13
43.000        27
43.020        27
43.040        33
43.060        53
43.080        33
43.100        67
43.120        33
43.140        53
43.160        33
43.180        47
43.200        33
43.220        73
43.240        80
43.260        93
43.280        80
43.300        67
43.320        80
43.340       100
43.360       100
43.380       147
43.400        73
43.420        87
43.440       120
43.460       167
43.480       200
43.500       100
43.520       133
43.540       113
43.560        93
43.580        73
43.600        87
43.620        40
43.640        60
43.660        40
43.680        47
43.700        47
43.720        67
43.740        53
43.760        33
43.780        20
43.800        47
43.820         7
43.840        27
43.860        13
43.880        20
43.900        40
43.920        27
43.940        47
43.960        20
43.980        47
44.000         7
44.020        47
44.040        33
44.060        20
44.080         0
44.100         7
44.120        40
44.140        40
44.160        20
44.180        33
44.200        27
44.220        27
44.240        20
44.260        27
44.280        33
44.300        20
44.320         0
44.340        13
44.360        47
44.380        33
44.400        20
44.420        13
44.440        13
44.460        33
44.480        13
44.500         0
44.520        27
44.540        13
44.560        13
44.580        27
44.600        13
44.620        13
44.640        33
44.660        20
44.680        13
44.700        20
44.720        33
44.740        13
44.760        60
44.780        20
44.800        33
44.820        13
44.840        13
44.860        13
44.880         7
44.900        40
44.920        20
44.940        40
44.960        20
44.980        20
45.000         7
45.020         7
45.040        33
45.060        33
45.080        20
45.100        20
45.120        13
45.140        13
45.160        40
45.180        33
45.200        33
45.220        40
45.240        33
45.260        27
45.280        20
45.300         7
45.320         7
45.340        33
45.360        20
45.380        20
45.400        13
45.420        20
45.440         7
45.460        20
45.480        40
45.500        40
45.520        47
45.540        33
45.560        27
45.580        33
45.600        33
45.620        27
45.640        20
45.660         7
45.680        27
45.700        53
45.720        13
45.740         0
45.760        20
45.780        20
45.800        20
45.820        20
45.840        20
45.860        20
45.880        27
45.900        27
45.920        27
45.940        20
45.960        13
45.980         7
46.000        13
46.020        40
46.040        20
46.060        27
46.080        40
46.100         7
46.120         7
46.140        13
46.160         7
46.180        27
46.200        13
46.220        27
46.240        20
46.260        20
46.280        27
46.300        13
46.320        40
46.340        20
46.360        27
46.380        27
46.400        27
46.420        33
46.440        13
46.460        20
46.480        40
46.500        33
46.520        33
46.540        13
46.560        27
46.580        20
46.600        27
46.620         7
46.640        20
46.660        20
46.680        20
46.700        20
46.720        13
46.740        27
46.760        20
46.780        20
46.800         7
46.820        40
46.840        33
46.860        40
46.880        40
46.900        20
46.920        20
46.940        20
46.960        13
46.980        33
47.000         7
47.020        53
47.040        40
47.060        20
47.080        40
47.100        20
47.120        27
47.140        33
47.160        47
47.180        13
47.200        27
47.220         7
47.240        13
47.260        40
47.280        27
47.300        47
47.320        40
47.340        60
47.360        27
47.380        47
47.400        67
47.420        47
47.440        60
47.460        47
47.480        47
47.500        27
47.520        67
47.540        40
47.560        27
47.580        73
47.600        33
47.620        33
47.640        13
47.660        53
47.680        40
47.700        13
47.720        40
47.740        40
47.760        27
47.780        20
47.800        13
47.820         7
47.840        20
47.860        33
47.880        13
47.900        20
47.920        40
47.940        13
47.960        33
47.980        13
48.000        27
48.020         7
48.040         7
48.060        13
48.080        27
48.100        20
48.120        20
48.140        13
48.160        13
48.180        33
48.200        27
48.220         7
48.240        53
48.260        27
48.280        40
48.300        27
48.320        33
48.340        33
48.360        13
48.380        27
48.400        20
48.420        47
48.440        40
48.460        60
48.480        20
48.500        53
48.520        60
48.540        33
48.560        33
48.580        40
48.600        53
48.620        33
48.640        27
48.660        13
48.680        40
48.700         7
48.720        20
48.740        20
48.760        40
48.780        20
48.800        33
48.820        13
48.840        27
48.860        53
48.880        33
48.900        27
48.920        20
48.940         7
48.960         7
48.980        20
49.000        20
49.020        13
49.040         7
49.060        27
49.080         7
49.100         7
49.120        27
49.140        13
49.160         7
49.180        27
49.200        20
49.220         7
49.240        20
49.260        40
49.280        27
49.300        33
49.320        13
49.340        13
49.360         7
49.380        13
49.400        33
49.420        40
49.440        13
49.460        27
49.480        20
49.500        20
49.520        33
49.540        13
49.560        40
49.580        27
49.600        47
49.620         7
49.640         7
49.660        13
49.680        33
49.700        13
49.720        20
49.740        13
49.760        20
49.780        27
49.800         0
49.820         7
49.840        40
49.860        13
49.880         0
49.900         0
49.920         0
49.940        33
49.960         7
49.980        20
50.000        27
50.020        20
50.040        13
50.060        13
50.080        20
50.100        13
50.120        13
50.140        13
50.160        13
50.180        33
50.200        13
50.220        13
50.240        33
50.260        13
50.280        20
50.300        13
50.320        13
50.340        13
50.360        13
50.380        33
50.400        13
50.420        27
50.440        13
50.460        27
50.480        13
50.500        20
50.520         7
50.540        27
50.560        13
50.580         7
50.600        20
50.620        27
50.640        27
50.660        27
50.680        20
50.700        27
50.720        27
50.740         7
50.760        13
50.780        53
50.800        13
50.820        27
50.840        27
50.860        20
50.880         7
50.900        53
50.920        47
50.940         0
50.960        20
50.980        27
51.000        33
51.020        13
51.040        27
51.060         7
51.080         7
51.100        40
51.120        33
51.140        33
51.160         7
51.180        20
51.200         0
51.220        20
51.240        40
51.260        13
51.280        27
51.300        13
51.320        20
51.340         7
51.360        27
51.380         7
51.400        27
51.420        33
51.440        20
51.460         0
51.480        20
51.500        20
51.520         7
51.540         0
51.560        13
51.580        27
51.600        27
51.620        20
51.640        13
51.660        20
51.680        20
51.700        27
51.720        27
51.740        33
51.760        13
51.780        20
51.800        40
51.820        13
51.840        47
51.860        27
51.880        47
51.900        33
51.920        20
51.940        20
51.960        33
51.980        13
52.000        27
52.020        40
52.040        40
52.060        13
52.080        20
52.100        20
52.120        13
52.140         7
52.160        20
52.180        40
52.200         7
52.220        20
52.240        13
52.260        40
52.280        20
52.300        27
52.320        27
52.340        60
52.360        13
52.380        40
52.400        40
52.420        73
52.440        40
52.460        47
52.480        87
52.500        33
52.520        73
52.540        53
52.560       107
52.580       133
52.600       173
52.620        87
52.640        67
52.660        47
52.680        67
52.700        53
52.720       100
52.740        47
52.760        60
52.780        87
52.800        60
52.820        47
52.840        27
52.860        47
52.880        13
52.900        27
52.920        33
52.940        53
52.960        27
52.980        20
53.000        27
53.020        20
53.040        40
53.060        20
53.080         7
53.100        13
53.120        13
53.140        53
53.160        27
53.180        13
53.200        40
53.220        27
53.240        13
53.260         7
53.280        27
53.300        33
53.320        13
53.340        13
53.360        27
53.380         7
53.400        47
53.420        13
53.440        53
53.460        33
53.480        20
53.500        13
53.520         7
53.540        13
53.560        60
53.580        27
53.600        27
53.620        20
53.640        27
53.660        33
53.680         7
53.700        13
53.720        33
53.740        27
53.760        20
53.780        20
53.800        20
53.820        20
53.840        33
53.860        40
53.880        13
53.900        33
53.920        27
53.940        27
53.960        13
53.980        27
54.000        33
54.020        13
54.040        13
54.060        27
54.080        27
54.100         0
54.120        20
54.140        27
54.160        27
54.180        40
54.200         7
54.220         0
54.240        27
54.260        27
54.280        13
54.300        13
54.320        20
54.340        40
54.360        20
54.380        13
54.400        53
54.420        40
54.440        13
54.460        33
54.480        20
54.500        20
54.520        27
54.540        27
54.560         7
54.580        20
54.600        33
54.620         7
54.640        33
54.660        27
54.680         7
54.700        27
54.720         7
54.740        13
54.760        27
54.780        47
54.800        40
54.820        27
54.840        13
54.860        20
54.880        33
54.900         0
54.920        27
54.940        27
54.960        20
54.980        33
55.000        40
55.020        33
55.040        13
55.060        33
55.080        13
55.100        20
55.120        20
55.140        33
55.160        20
55.180        33
55.200        40
55.220         7
55.240         0
55.260        13
55.280        27
55.300         7
55.320        20
55.340        13
55.360        13
55.380        27
55.400        20
55.420        20
55.440        40
55.460        20
55.480        27
55.500        13
55.520        40
55.540        33
55.560         7
55.580        40
55.600        13
55.620        13
55.640        27
55.660        13
55.680        27
55.700        27
55.720         7
55.740        27
55.760        13
55.780         7
55.800        33
55.820         7
55.840        13
55.860         7
55.880         0
55.900        27
55.920        20
55.940        27
55.960        13
55.980        13
56.000         7
56.020        27
56.040        40
56.060         7
56.080        20
56.100         7
56.120        13
56.140         7
56.160        53
56.180        13
56.200        20
56.220        33
56.240        27
56.260         7
56.280        20
56.300        13
56.320        20
56.340        33
56.360         7
56.380        20
56.400        33
56.420        13
56.440         7
56.460        33
56.480        33
56.500         0
56.520        20
56.540        27
56.560        27
56.580        33
56.600        27
56.620        13
56.640         7
56.660        47
56.680        13
56.700        20
56.720        20
56.740         0
56.760        33
56.780        13
56.800        53
56.820         0
56.840        33
56.860         7
56.880        27
56.900        33
56.920        13
56.940        27
56.960        20
56.980        40
57.000         7
57.020        33
57.040        20
57.060         7
57.080        20
57.100         7
57.120        13
57.140        33
57.160        20
57.180         7
57.200         7
57.220        20
57.240        13
57.260        33
57.280        33
57.300        47
57.320        13
57.340        20
57.360        27
57.380        20
57.400         7
57.420        20
57.440        20
57.460        20
57.480         7
57.500        20
57.520        13
57.540         7
57.560        33
57.580        13
57.600         7
57.620         7
57.640        60
57.660        13
57.680        33
57.700        20
57.720        13
57.740         7
57.760        33
57.780        27
57.800        27
57.820        13
57.840        20
57.860         0
57.880        20
57.900        27
57.920        40
57.940         7
57.960        13
57.980        13
58.000        33
58.020        20
58.040        40
58.060         7
58.080        13
58.100         0
58.120         0
58.140         7
58.160        27
58.180        20
58.200        13
58.220        13
58.240        13
58.260        33
58.280         7
58.300        33
58.320        20
58.340         7
58.360        20
58.380         0
58.400        27
58.420        13
58.440         7
58.460        20
58.480        13
58.500         7
58.520        33
58.540        13
58.560        13
58.580        27
58.600        27
58.620        20
58.640        20
58.660        20
58.680        20
58.700         7
58.720        13
58.740        13
58.760        27
58.780         7
58.800        27
58.820         7
58.840        20
58.860         0
58.880        27
58.900        13
58.920        27
58.940        40
58.960        13
58.980         0
59.000         7
59.020        13
59.040        13
59.060         7
59.080         7
59.100        27
59.120        27
59.140         7
59.160        20
59.180        20
59.200         0
59.220        13
59.240        33
59.260        27
59.280        13
59.300        20
59.320        13
59.340         0
59.360        20
59.380        20
59.400         0
59.420         7
59.440         7
59.460         7
59.480        13
59.500         7
59.520        20
59.540        53
59.560        27
59.580        27
59.600        27
59.620        13
59.640        40
59.660        13
59.680         7
59.700        27
59.720        20
59.740        13
59.760        27
59.780        13
59.800        20
59.820        13
59.840         7
59.860         7
59.880        27
59.900        13
59.920         7
59.940        13
59.960         7
59.980        20
60.000         7
