20.000       785
20.020       785
20.040       885
20.060       700
20.080       728
20.100       428
20.120       828
20.140       700
20.160       614
20.180       743
20.200       757
20.220       543
20.240       585
20.260       571
20.280       614
20.300       628
20.320       657
20.340       671
20.360       685
20.380       628
20.400       600
20.420       528
20.440       628
20.460       743
20.480       685
20.500       685
20.520       685
20.540       885
20.560       828
20.580       585
20.600       871
20.620       814
20.640       743
20.660       471
20.680       643
20.700       843
20.720       771
20.740       800
20.760       657
20.780       714
20.800       728
20.820       757
20.840       800
20.860       714
20.880       571
20.900       700
20.920       800
20.940       685
20.960       628
20.980       957
21.000       700
21.020       685
21.040       685
21.060       743
21.080       700
21.100       800
21.120       714
21.140       728
21.160       900
21.180       700
21.200       757
21.220       657
21.240       585
21.260       785
21.280       685
21.300       657
21.320       814
21.340       800
21.360       728
21.380       714
21.400       671
21.420       514
21.440       600
21.460       600
21.480       543
21.500       657
21.520       671
21.540       571
21.560       685
21.580       486
21.600       928
21.620       628
21.640       657
21.660       571
21.680       600
21.700       528
21.720       700
21.740       500
21.760       471
21.780       957
21.800       500
21.820       414
21.840       628
21.860       600
21.880       443
21.900       571
21.920       528
21.940       600
21.960       486
21.980       457
22.000       471
22.020       443
22.040       543
22.060       514
22.080       528
22.100       614
22.120       700
22.140       471
22.160       628
22.180       557
22.200       500
22.220       386
22.240       443
22.260       471
22.280       371
22.300       443
22.320       471
22.340       471
22.360       543
22.380       514
22.400       600
22.420       571
22.440       443
22.460       614
22.480       500
22.500       628
22.520       500
22.540       471
22.560       671
22.580       557
22.600       557
22.620       571
22.640       571
22.660       528
22.680       557
22.700       657
22.720       557
22.740       557
22.760       600
22.780       443
22.800       628
22.820       657
22.840       643
22.860       528
22.880       585
22.900       443
22.920       528
22.940       514
22.960       643
22.980       628
23.000       714
23.020       443
23.040       457
23.060       571
23.080       414
23.100       543
23.120       514
23.140       386
23.160       457
23.180       514
23.200       557
23.220       471
23.240       486
23.260       528
23.280       343
23.300       528
23.320       528
23.340       514
23.360       500
23.380       500
23.400       428
23.420       428
23.440       471
23.460       471
23.480       500
23.500       457
23.520       528
23.540       685
23.560       643
23.580       543
23.600       557
23.620       471
23.640       371
23.660       400
23.680       557
23.700       528
23.720       571
23.740       414
23.760       486
23.780       528
23.800       528
23.820       343
23.840       643
23.860       386
23.880       500
23.900       557
23.920       428
23.940       471
23.960       514
23.980       528
24.000       486
24.020       428
24.040       400
24.060       657
24.080       457
24.100       457
24.120       428
24.140       543
24.160       628
24.180       486
24.200       443
24.220       371
24.240       443
24.260       414
24.280       386
24.300       600
24.320       343
24.340       514
24.360       571
24.380       486
24.400       428
24.420       471
24.440       400
24.460       386
24.480       443
24.500       500
24.520       557
24.540       371
24.560       486
24.580       414
24.600       428
24.620       543
24.640       557
24.660       514
24.680       500
24.700       528
24.720       543
24.740       757
24.760       471
24.780       628
24.800       457
24.820       643
24.840       514
24.860       528
24.880       471
24.900       471
24.920       500
24.940       471
24.960       486
24.980       486
25.000       471
25.020       428
25.040       400
25.060       614
25.080       371
25.100       585
25.120       386
25.140       400
25.160       543
25.180       443
25.200       400
25.220       557
25.240       328
25.260       257
25.280       471
25.300       328
25.320       386
25.340       357
25.360       486
25.380       428
25.400       571
25.420       457
25.440       443
25.460       543
25.480       500
25.500       414
25.520       543
25.540       328
25.560       400
25.580       428
25.600       585
25.620       814
25.640       500
25.660       428
25.680       286
25.700       386
25.720       543
25.740       457
25.760       500
25.780       471
25.800       557
25.820       328
25.840       328
25.860       314
25.880       471
25.900       500
25.920       471
25.940       328
25.960       486
25.980       557
26.000       443
26.020       500
26.040       514
26.060       543
26.080       557
26.100       457
26.120       585
26.140       428
26.160       328
26.180       514
26.200       500
26.220       328
26.240       486
26.260       343
26.280       300
26.300       500
26.320       428
26.340       571
26.360       386
26.380       486
26.400       457
26.420       543
26.440       500
26.460       386
26.480       343
26.500       457
26.520       300
26.540       471
26.560       371
26.580       400
26.600       457
26.620       371
26.640       343
26.660       271
26.680       400
26.700       286
26.720       343
26.740       357
26.760       414
26.780       386
26.800       328
26.820       414
26.840       457
26.860       528
26.880       286
26.900       328
26.920       328
26.940       271
26.960       400
26.980       514
27.000       757
27.020       443
27.040       528
27.060       386
27.080       400
27.100       457
27.120       443
27.140       514
27.160       486
27.180       314
27.200       386
27.220       271
27.240       443
27.260       328
27.280       514
27.300       357
27.320       443
27.340       257
27.360       428
27.380       400
27.400       528
27.420       386
27.440       286
27.460       357
27.480       528
27.500       514
27.520       343
27.540       286
27.560       471
27.580       314
27.600       414
27.620       414
27.640       443
27.660       457
27.680       471
27.700       471
27.720       343
27.740       428
27.760       414
27.780       343
27.800       357
27.820       371
27.840       457
27.860       371
27.880       357
27.900       428
27.920       357
27.940       500
27.960       400
27.980       414
28.000       486
28.020       471
28.040       486
28.060       428
28.080       328
28.100       443
28.120       414
28.140       414
28.160       414
28.180       357
28.200       357
28.220       400
28.240       314
28.260       414
28.280       343
28.300       357
28.320       357
28.340       486
28.360       428
28.380       343
28.400       414
28.420       443
28.440       428
28.460       386
28.480       443
28.500       528
28.520       314
28.540       371
28.560       471
28.580       371
28.600       457
28.620       343
28.640       371
28.660       457
28.680       443
28.700       471
28.720       300
28.740       371
28.760       428
28.780       600
28.800       357
28.820       400
28.840       571
28.860       414
28.880       414
28.900       428
28.920       357
28.940       600
28.960       400
28.980       357
29.000       428
29.020       400
29.040       500
29.060       443
29.080       471
29.100       600
29.120       514
29.140       585
29.160       743
29.180       728
29.200       657
29.220       628
29.240       843
29.260       685
29.280       871
29.300       800
29.320       571
29.340       771
29.360       671
29.380       614
29.400       557
29.420       528
29.440       528
29.460       543
29.480       371
29.500       528
29.520       386
29.540       471
29.560       543
29.580       500
29.600       457
29.620       514
29.640       571
29.660       443
29.680       443
29.700       614
29.720       528
29.740       500
29.760       443
29.780       628
29.800       585
29.820       600
29.840       600
29.860       543
29.880       571
29.900       543
29.920       557
29.940       343
29.960       700
29.980       628
30.000       386
30.020       500
30.040       486
30.060       528
30.080       514
30.100       671
30.120       400
30.140       600
30.160       414
30.180       443
30.200       500
30.220       386
30.240       557
30.260       528
30.280       486
30.300       571
30.320       571
30.340       514
30.360       357
30.380       557
30.400       386
30.420       414
30.440       500
30.460       543
30.480       386
30.500       528
30.520       500
30.540       585
30.560       386
30.580       328
30.600       414
30.620       428
30.640       514
30.660       371
30.680       357
30.700       428
30.720       357
30.740       414
30.760       500
30.780       328
30.800       357
30.820       328
30.840       414
30.860       328
30.880       400
30.900       343
30.920       386
30.940       300
30.960       457
30.980       371
31.000       414
31.020       328
31.040       400
31.060       343
31.080       343
31.100       300
31.120       357
31.140       343
31.160       486
31.180       300
31.200       357
31.220       243
31.240       486
31.260       357
31.280       314
31.300       457
31.320       357
31.340       414
31.360       257
31.380       357
31.400       314
31.420       343
31.440       200
31.460       443
31.480       386
31.500       514
31.520       300
31.540       271
31.560       200
31.580       371
31.600       400
31.620       357
31.640       400
31.660       400
31.680       257
31.700       314
31.720       386
31.740       457
31.760       300
31.780       371
31.800       386
31.820       386
31.840       457
31.860       328
31.880       371
31.900       500
31.920       357
31.940       443
31.960       243
31.980       286
32.000       328
32.020       343
32.040       400
32.060       400
32.080       428
32.100       386
32.120       386
32.140       386
32.160       386
32.180       386
32.200       371
32.220       443
32.240       257
32.260       343
32.280       343
32.300       371
32.320       657
32.340       328
32.360       371
32.380       400
32.400       243
32.420       371
32.440       271
32.460       271
32.480       400
32.500       386
32.520       343
32.540       428
32.560       343
32.580       457
32.600       328
32.620       386
32.640       428
32.660       314
32.680       414
32.700       314
32.720       300
32.740       343
32.760       300
32.780       343
32.800       343
32.820       357
32.840       428
32.860       243
32.880       328
32.900       414
32.920       371
32.940       400
32.960       343
32.980       428
33.000       300
33.020       343
33.040       386
33.060       428
33.080       428
33.100       414
33.120       271
33.140       343
33.160       343
33.180       286
33.200       257
33.220       328
33.240       428
33.260       271
33.280       443
33.300       414
33.320       443
33.340       343
33.360       328
33.380       300
33.400       286
33.420       300
33.440       300
33.460       314
33.480       257
33.500       271
33.520       257
33.540       328
33.560       314
33.580       371
33.600       343
33.620       243
33.640       371
33.660       343
33.680       271
33.700       443
33.720       300
33.740       343
33.760       300
33.780       328
33.800       257
33.820       300
33.840       328
33.860       286
33.880       300
33.900       328
33.920       428
33.940       500
33.960       371
33.980       386
34.000       371
34.020       400
34.040       328
34.060       414
34.080       557
34.100       428
34.120       343
34.140       343
34.160       371
34.180       286
34.200       271
34.220       357
34.240       214
34.260       286
34.280       428
34.300       343
34.320       400
34.340       343
34.360       357
34.380       343
34.400       500
34.420       414
34.440       457
34.460       414
34.480       357
34.500       300
34.520       328
34.540       400
34.560       400
34.580       300
34.600       386
34.620       371
34.640       443
34.660       200
34.680       386
34.700       343
34.720       300
34.740       443
34.760       286
34.780       186
34.800       271
34.820       386
34.840       286
34.860       286
34.880       357
34.900       400
34.920       314
34.940       228
34.960       357
34.980       300
35.000       514
35.020       371
35.040       386
35.060       257
35.080       386
35.100       257
35.120       214
35.140       286
35.160       328
35.180       428
35.200       286
35.220       314
35.240       314
35.260       428
35.280       357
35.300       314
35.320       428
35.340       357
35.360       343
35.380       386
35.400       371
35.420       343
35.440       314
35.460       414
35.480       300
35.500       186
35.520       428
35.540       328
35.560       328
35.580       343
35.600       428
35.620       214
35.640       500
35.660       357
35.680       457
35.700       371
35.720       543
35.740       471
35.760       443
35.780       386
35.800       400
35.820       486
35.840       386
35.860       314
35.880       486
35.900       543
35.920       257
35.940       386
35.960       286
35.980       414
36.000       457
36.020       486
36.040       400
36.060       343
36.080       428
36.100       414
36.120       343
36.140       300
36.160       457
36.180       386
36.200       386
36.220       371
36.240       371
36.260       386
36.280       400
36.300       557
36.320       343
36.340       500
36.360       343
36.380       314
36.400       514
36.420       314
36.440       371
36.460       386
36.480       400
36.500       443
36.520       457
36.540       443
36.560       386
36.580       443
36.600       400
36.620       428
36.640       428
36.660       371
36.680       314
36.700       443
36.720       457
36.740       471
36.760       457
36.780       243
36.800       314
36.820       528
36.840       514
36.860       428
36.880       500
36.900       486
36.920       628
36.940       685
36.960       528
36.980       614
37.000       628
37.020       571
37.040       543
37.060       657
37.080       585
37.100       571
37.120       486
37.140       785
37.160       443
37.180       671
37.200       428
37.220       528
37.240       500
37.260       600
37.280       514
37.300       671
37.320       486
37.340       443
37.360       371
37.380       414
37.400       357
37.420       400
37.440       457
37.460       343
37.480       443
37.500       528
37.520       400
37.540       428
37.560       457
37.580       400
37.600       286
37.620       500
37.640       314
37.660       557
37.680       414
37.700       371
37.720       300
37.740       300
37.760       314
37.780       371
37.800       328
37.820       328
37.840       514
37.860       357
37.880       343
37.900       386
37.920       400
37.940       443
37.960       543
37.980       300
38.000       328
38.020       500
38.040       400
38.060       357
38.080       371
38.100       243
38.120       428
38.140       357
38.160       314
38.180       528
38.200       343
38.220       443
38.240       414
38.260       414
38.280       357
38.300       400
38.320       557
38.340       457
38.360       428
38.380       257
38.400       428
38.420       357
38.440       443
38.460       357
38.480       357
38.500       300
38.520       357
38.540       343
38.560       471
38.580       314
38.600       414
38.620       371
38.640       314
38.660       400
38.680       371
38.700       486
38.720       343
38.740       314
38.760       328
38.780       400
38.800       386
38.820       428
38.840       371
38.860       414
38.880       486
38.900       357
38.920       400
38.940       343
38.960       428
38.980       314
39.000       386
39.020       428
39.040       671
39.060       386
39.080       328
39.100       428
39.120       414
39.140       471
39.160       471
39.180       400
39.200       386
39.220       528
39.240       471
39.260       500
39.280       643
39.300       428
39.320       343
39.340       471
39.360       657
39.380       314
39.400       471
39.420       400
39.440       500
39.460       371
39.480       414
39.500       271
39.520       343
39.540       386
39.560       357
39.580       457
39.600       428
39.620       371
39.640       257
39.660       371
39.680       343
39.700       414
39.720       357
39.740       414
39.760       328
39.780       400
39.800       371
39.820       343
39.840       300
39.860       414
39.880       357
39.900       557
39.920       300
39.940       314
39.960       428
39.980       400
40.000       357
40.020       257
40.040       386
40.060       343
40.080       457
40.100       300
40.120       243
40.140       457
40.160       371
40.180       371
40.200       428
40.220       343
40.240       343
40.260       386
40.280       343
40.300       386
40.320       443
40.340       400
40.360       300
40.380       286
40.400       386
40.420       357
40.440       243
40.460       457
40.480       400
40.500       243
40.520       328
40.540       514
40.560       357
40.580       314
40.600       228
40.620       443
40.640       328
40.660       371
40.680       328
40.700       428
40.720       314
40.740       328
40.760       300
40.780       428
40.800       328
40.820       400
40.840       328
40.860       443
40.880       371
40.900       328
40.920       400
40.940       386
40.960       343
40.980       371
41.000       428
41.020       414
41.040       328
41.060       314
41.080       286
41.100       428
41.120       471
41.140       343
41.160       300
41.180       357
41.200       314
41.220       271
41.240       400
41.260       543
41.280       486
41.300       386
41.320       357
41.340       471
41.360       414
41.380       471
41.400       314
41.420       400
41.440       428
41.460       400
41.480       471
41.500       271
41.520       400
41.540       371
41.560       528
41.580       357
41.600       486
41.620       400
41.640       328
41.660       414
41.680       286
41.700       343
41.720       400
41.740       585
41.760       443
41.780       471
41.800       500
41.820       500
41.840       514
41.860       271
41.880       543
41.900       314
41.920       543
41.940       500
41.960       500
41.980       543
42.000       514
42.020       428
42.040       514
42.060       800
42.080       614
42.100       628
42.120       600
42.140       771
42.160       657
42.180       728
42.200       771
42.220       771
42.240       743
42.260       671
42.280       757
42.300       614
42.320       885
42.340       828
42.360       757
42.380      1057
42.400       914
42.420       871
42.440      1128
42.460       814
42.480      1071
42.500      1271
42.520      1128
42.540      1071
42.560      1142
42.580      1242
42.600      1242
42.620      1242
42.640      1242
42.660      1042
42.680      1314
42.700      1185
42.720      1171
42.740       957
42.760      1100
42.780      1185
42.800      1485
42.820      1557
42.840      1614
42.860      1571
42.880      1514
42.900      1228
42.920      1271
42.940      1485
42.960      1185
42.980      1171
43.000      1157
43.020       957
43.040      1100
43.060      1057
43.080      1185
43.100      1114
43.120      1114
43.140       985
43.160      1042
43.180       900
43.200      1028
43.220       942
43.240       814
43.260       857
43.280       600
43.300       643
43.320       657
43.340       571
43.360       643
43.380       757
43.400       685
43.420       728
43.440       585
43.460       757
43.480       628
43.500       600
43.520       700
43.540       557
43.560       700
43.580       757
43.600       671
43.620       614
43.640       600
43.660       514
43.680       300
43.700       486
43.720       443
43.740       657
43.760       357
43.780       457
43.800       471
43.820       400
43.840       443
43.860       457
43.880       600
43.900       471
43.920       371
43.940       543
43.960       628
43.980       400
44.000       428
44.020       357
44.040       543
44.060       457
44.080       585
44.100       514
44.120       343
44.140       428
44.160       386
44.180       614
44.200       228
44.220       271
44.240       471
44.260       471
44.280       371
44.300       443
44.320       471
44.340       343
44.360       371
44.380       528
44.400       428
44.420       314
44.440       457
44.460       471
44.480       471
44.500       486
44.520       357
44.540       300
44.560       343
44.580       343
44.600       371
44.620       357
44.640       314
44.660       200
44.680       414
44.700       357
44.720       486
44.740       428
44.760       286
44.780       386
44.800       371
44.820       343
44.840       386
44.860       371
44.880       400
44.900       428
44.920       371
44.940       443
44.960       371
44.980       400
45.000       343
45.020       386
45.040       343
45.060       357
45.080       457
45.100       257
45.120       457
45.140       514
45.160       314
45.180       400
45.200       314
45.220       428
45.240       328
45.260       343
45.280       443
45.300       271
45.320       314
45.340       286
45.360       471
45.380       371
45.400       286
45.420       471
45.440       386
45.460       486
45.480       386
45.500       400
45.520       343
45.540       271
45.560       300
45.580       357
45.600       400
45.620       357
45.640       357
45.660       428
45.680       386
45.700       328
45.720       386
45.740       428
45.760       171
45.780       257
45.800       357
45.820       314
45.840       443
45.860       357
45.880       243
45.900       314
45.920       414
45.940       371
45.960       357
45.980       357
46.000       300
46.020       471
46.040       343
46.060       400
46.080       528
46.100       400
46.120       314
46.140       286
46.160       314
46.180       343
46.200       257
46.220       314
46.240       486
46.260       457
46.280       186
46.300       328
46.320       357
46.340       228
46.360       300
46.380       457
46.400       343
46.420       300
46.440       300
46.460       414
46.480       328
46.500       357
46.520       171
46.540       300
46.560       300
46.580       528
46.600       328
46.620       386
46.640       414
46.660       328
46.680       386
46.700       343
46.720       271
46.740       386
46.760       300
46.780       300
46.800       371
46.820       314
46.840       386
46.860       557
46.880       443
46.900       243
46.920       328
46.940       414
46.960       328
46.980       500
47.000       357
47.020       357
47.040       386
47.060       414
47.080       428
47.100       371
47.120       457
47.140       500
47.160       443
47.180       414
47.200       471
47.220       257
47.240       471
47.260       557
47.280       357
47.300       500
47.320       614
47.340       386
47.360       400
47.380       500
47.400       443
47.420       585
47.440       543
47.460       328
47.480       343
47.500       300
47.520       314
47.540       443
47.560       428
47.580       443
47.600       357
47.620       271
47.640       314
47.660       300
47.680       286
47.700       457
47.720       400
47.740       371
47.760       243
47.780       343
47.800       300
47.820       328
47.840       386
47.860       400
47.880       300
47.900       414
47.920       500
47.940       271
47.960       371
47.980       386
48.000       328
48.020       328
48.040       357
48.060       314
48.080       300
48.100       514
48.120       343
48.140       400
48.160       443
48.180       514
48.200       457
48.220       443
48.240       471
48.260       471
48.280       414
48.300       328
48.320       471
48.340       486
48.360       486
48.380       457
48.400       271
48.420       428
48.440       371
48.460       471
48.480       286
48.500       214
48.520       414
48.540       314
48.560       486
48.580       286
48.600       314
48.620       314
48.640       357
48.660       371
48.680       357
48.700       486
48.720       314
48.740       271
48.760       400
48.780       171
48.800       243
48.820       357
48.840       328
48.860       386
48.880       328
48.900       443
48.920       500
48.940       328
48.960       371
48.980       286
49.000       357
49.020       300
49.040       343
49.060       300
49.080       186
49.100       386
49.120       471
49.140       371
49.160       271
49.180       257
49.200       286
49.220       314
49.240       271
49.260       314
49.280       328
49.300       300
49.320       286
49.340       300
49.360       371
49.380       371
49.400       386
49.420       371
49.440       357
49.460       300
49.480       243
49.500       371
49.520       328
49.540       243
49.560       228
49.580       428
49.600       357
49.620       228
49.640       428
49.660       314
49.680       371
49.700       286
49.720       257
49.740       314
49.760       428
49.780       286
49.800       300
49.820       328
49.840       357
49.860       328
49.880       371
49.900       271
49.920       257
49.940       300
49.960       214
49.980       328
50.000       214
50.020       228
50.040       357
50.060       386
50.080       314
50.100       400
50.120       328
50.140       314
50.160       343
50.180       314
50.200       314
50.220       314
50.240       271
50.260       343
50.280       271
50.300       386
50.320       286
50.340       371
50.360       343
50.380       371
50.400       400
50.420       386
50.440       314
50.460       371
50.480       286
50.500       443
50.520       357
50.540       271
50.560       500
50.580       343
50.600       357
50.620       371
50.640       443
50.660       300
50.680       371
50.700       271
50.720       314
50.740       300
50.760       214
50.780       343
50.800       286
50.820       357
50.840       286
50.860       371
50.880       200
50.900       328
50.920       386
50.940       300
50.960       400
50.980       386
51.000       328
51.020       357
51.040       414
51.060       343
51.080       428
51.100       214
51.120       343
51.140       414
51.160       443
51.180       286
51.200       257
51.220       357
51.240       300
51.260       300
51.280       428
51.300       243
51.320       443
51.340       328
51.360       357
51.380       400
51.400       300
51.420       371
51.440       257
51.460       314
51.480       314
51.500       343
51.520       328
51.540       257
51.560       328
51.580       371
51.600       386
51.620       286
51.640       257
51.660       457
51.680       300
51.700       386
51.720       328
51.740       243
51.760       443
51.780       371
51.800       471
51.820       386
51.840       328
51.860       443
51.880       328
51.900       286
51.920       286
51.940       371
51.960       457
51.980       357
52.000       457
52.020       386
52.040       300
52.060       486
52.080       371
52.100       300
52.120       328
52.140       400
52.160       286
52.180       300
52.200       443
52.220       414
52.240       343
52.260       328
52.280       428
52.300       343
52.320       443
52.340       257
52.360       443
52.380       400
52.400       371
52.420       414
52.440       443
52.460       328
52.480       314
52.500       386
52.520       471
52.540       228
52.560       585
52.580       471
52.600       386
52.620       543
52.640       343
52.660       428
52.680       443
52.700       414
52.720       343
52.740       371
52.760       357
52.780       357
52.800       414
52.820       443
52.840       400
52.860       557
52.880       514
52.900       414
52.920       386
52.940       414
52.960       343
52.980       543
53.000       457
53.020       328
53.040       471
53.060       343
53.080       500
53.100       557
53.120       343
53.140       314
53.160       486
53.180       585
53.200       414
53.220       600
53.240       528
53.260       500
53.280       585
53.300       443
53.320       428
53.340       585
53.360       471
53.380       514
53.400       486
53.420       743
53.440       428
53.460       600
53.480       471
53.500       585
53.520       514
53.540       528
53.560       514
53.580       528
53.600       343
53.620       428
53.640       343
53.660       457
53.680       543
53.700       357
53.720       371
53.740       514
53.760       428
53.780       371
53.800       471
53.820       471
53.840       657
53.860       343
53.880       386
53.900       386
53.920       400
53.940       457
53.960       400
53.980       328
54.000       371
54.020       314
54.040       443
54.060       428
54.080       386
54.100       314
54.120       357
54.140       343
54.160       443
54.180       428
54.200       557
54.220       257
54.240       357
54.260       357
54.280       371
54.300       400
54.320       314
54.340       614
54.360       471
54.380       457
54.400       243
54.420       400
54.440       414
54.460       286
54.480       328
54.500       314
54.520       357
54.540       286
54.560       286
54.580       443
54.600       300
54.620       543
54.640       314
54.660       371
54.680       328
54.700       214
54.720       428
54.740       271
54.760       428
54.780       414
54.800       386
54.820       200
54.840       343
54.860       357
54.880       343
54.900       286
54.920       371
54.940       414
54.960       357
54.980       257
55.000       271
55.020       343
55.040       371
55.060       343
55.080       428
55.100       486
55.120       457
55.140       386
55.160       400
55.180       214
55.200       214
55.220       286
55.240       300
55.260       428
55.280       271
55.300       328
55.320       243
55.340       286
55.360       357
55.380       243
55.400       343
55.420       414
55.440       214
55.460       343
55.480       343
55.500       343
55.520       300
55.540       428
55.560       471
55.580       371
55.600       157
55.620       314
55.640       328
55.660       371
55.680       171
55.700       257
55.720       414
55.740       257
55.760       386
55.780       271
55.800       271
55.820       171
55.840       357
55.860       243
55.880       228
55.900       271
55.920       257
55.940       271
55.960       371
55.980       343
56.000       286
56.020       257
56.040       286
56.060       171
56.080       400
56.100       357
56.120       257
56.140       271
56.160       414
56.180       300
56.200       286
56.220       343
56.240       257
56.260       400
56.280       343
56.300       286
56.320       314
56.340       200
56.360       328
56.380       386
56.400       271
56.420       286
56.440       314
56.460       328
56.480       371
56.500       371
56.520       400
56.540       400
56.560       386
56.580       328
56.600       357
56.620       271
56.640       300
56.660       343
56.680       300
56.700       314
56.720       328
56.740       200
56.760       186
56.780       257
56.800       386
56.820       300
56.840       200
56.860       386
56.880       343
56.900       328
56.920       314
56.940       314
56.960       200
56.980       386
57.000       300
57.020       328
57.040       357
57.060       314
57.080       414
57.100       328
57.120       371
57.140       357
57.160       300
57.180       357
57.200       371
57.220       371
57.240       286
57.260       228
57.280       386
57.300       357
57.320       428
57.340       428
57.360       386
57.380       400
57.400       228
57.420       414
57.440       357
57.460       343
57.480       257
57.500       328
57.520       286
57.540       300
57.560       300
57.580       357
57.600       228
57.620       314
57.640       300
57.660       300
57.680       371
57.700       300
57.720       386
57.740       200
57.760       300
57.780       243
57.800       286
57.820       400
57.840       214
57.860       214
57.880       300
57.900       371
57.920       228
57.940       328
57.960       300
57.980       386
58.000       300
58.020       243
58.040       328
58.060       314
58.080       357
58.100       286
58.120       314
58.140       271
58.160       243
58.180       228
58.200       386
58.220       243
58.240       328
58.260       214
58.280       271
58.300       243
58.320       328
58.340       257
58.360       228
58.380       286
58.400       243
58.420       214
58.440       300
58.460       243
58.480       271
58.500       171
58.520       271
58.540       243
58.560       186
58.580       286
58.600       314
58.620       328
58.640       328
58.660       257
58.680       343
58.700       228
58.720       357
58.740       200
58.760       286
58.780       228
58.800       328
58.820       257
58.840       200
58.860       314
58.880       271
58.900       286
58.920       257
58.940       286
58.960       386
58.980       300
59.000       243
59.020       228
59.040       228
59.060       286
59.080       300
59.100       214
59.120       328
59.140       343
59.160       371
59.180       157
59.200       228
59.220       386
59.240       228
59.260       243
59.280       271
59.300       257
59.320       300
59.340       228
59.360       300
59.380       243
59.400       200
59.420       343
59.440       243
59.460       400
59.480       200
59.500       271
59.520       214
59.540       414
59.560       257
59.580       414
59.600       328
59.620       214
59.640       228
59.660       328
59.680       257
59.700       271
59.720       214
59.740       328
59.760       343
59.780       271
59.800       243
59.820       300
59.840       228
59.860       243
59.880       386
59.900       386
59.920       357
59.940       157
59.960       286
59.980       286
60.000       343
