20.000       766
20.020       603
20.040       690
20.060       723
20.080       660
20.100       626
20.120       646
20.140       686
20.160       743
20.180       653
20.200       696
20.220       670
20.240       623
20.260       670
20.280       680
20.300       713
20.320       660
20.340       653
20.360       623
20.380       723
20.400       696
20.420       650
20.440       783
20.460       690
20.480       773
20.500       583
20.520       703
20.540       700
20.560       700
20.580       676
20.600       623
20.620       550
20.640       700
20.660       740
20.680       673
20.700       643
20.720       703
20.740       606
20.760       720
20.780       746
20.800       816
20.820       626
20.840       773
20.860       633
20.880       770
20.900       710
20.920       816
20.940       736
20.960       793
20.980       783
21.000       763
21.020       733
21.040       736
21.060       763
21.080       666
21.100       870
21.120       800
21.140       830
21.160       673
21.180       760
21.200       593
21.220       680
21.240       713
21.260       650
21.280       676
21.300       653
21.320       640
21.340       710
21.360       663
21.380       630
21.400       620
21.420       623
21.440       573
21.460       616
21.480       643
21.500       626
21.520       620
21.540       586
21.560       620
21.580       650
21.600       520
21.620       593
21.640       576
21.660       556
21.680       580
21.700       643
21.720       623
21.740       556
21.760       570
21.780       596
21.800       596
21.820       590
21.840       586
21.860       556
21.880       560
21.900       610
21.920       553
21.940       526
21.960       550
21.980       566
22.000       633
22.020       636
22.040       550
22.060       543
22.080       583
22.100       496
22.120       653
22.140       583
22.160       570
22.180       493
22.200       523
22.220       563
22.240       610
22.260       566
22.280       516
22.300       543
22.320       553
22.340       566
22.360       620
22.380       556
22.400       586
22.420       500
22.440       633
22.460       600
22.480       490
22.500       553
22.520       593
22.540       613
22.560       516
22.580       466
22.600       526
22.620       580
22.640       606
22.660       570
22.680       490
22.700       520
22.720       573
22.740       583
22.760       550
22.780       600
22.800       526
22.820       526
22.840       553
22.860       630
22.880       523
22.900       540
22.920       626
22.940       453
22.960       583
22.980       533
23.000       570
23.020       536
23.040       483
23.060       456
23.080       533
23.100       526
23.120       580
23.140       610
23.160       556
23.180       430
23.200       553
23.220       506
23.240       566
23.260       407
23.280       460
23.300       553
23.320       503
23.340       550
23.360       540
23.380       510
23.400       476
23.420       540
23.440       513
23.460       486
23.480       563
23.500       490
23.520       453
23.540       536
23.560       496
23.580       476
23.600       473
23.620       460
23.640       510
23.660       576
23.680       463
23.700       523
23.720       453
23.740       503
23.760       510
23.780       526
23.800       560
23.820       450
23.840       533
23.860       490
23.880       503
23.900       523
23.920       486
23.940       480
23.960       483
23.980       503
24.000       433
24.020       463
24.040       480
24.060       510
24.080       426
24.100       400
24.120       513
24.140       466
24.160       560
24.180       500
24.200       470
24.220       463
24.240       486
24.260       496
24.280       503
24.300       503
24.320       610
24.340       493
24.360       513
24.380       470
24.400       426
24.420       453
24.440       573
24.460       493
24.480       506
24.500       513
24.520       483
24.540       543
24.560       476
24.580       496
24.600       503
24.620       516
24.640       530
24.660       540
24.680       506
24.700       543
24.720       490
24.740       556
24.760       456
24.780       546
24.800       460
24.820       550
24.840       546
24.860       480
24.880       540
24.900       580
24.920       473
24.940       490
24.960       463
24.980       576
25.000       443
25.020       480
25.040       510
25.060       550
25.080       463
25.100       483
25.120       500
25.140       423
25.160       546
25.180       483
25.200       430
25.220       367
25.240       417
25.260       480
25.280       450
25.300       413
25.320       466
25.340       407
25.360       456
25.380       496
25.400       496
25.420       473
25.440       420
25.460       410
25.480       493
25.500       546
25.520       510
25.540       496
25.560       526
25.580       496
25.600       496
25.620       473
25.640       563
25.660       493
25.680       436
25.700       440
25.720       500
25.740       323
25.760       510
25.780       463
25.800       413
25.820       426
25.840       400
25.860       476
25.880       430
25.900       407
25.920       443
25.940       516
25.960       480
25.980       496
26.000       533
26.020       430
26.040       463
26.060       393
26.080       413
26.100       410
26.120       403
26.140       420
26.160       413
26.180       463
26.200       420
26.220       470
26.240       436
26.260       340
26.280       433
26.300       456
26.320       417
26.340       433
26.360       400
26.380       450
26.400       410
26.420       493
26.440       453
26.460       473
26.480       373
26.500       390
26.520       387
26.540       453
26.560       436
26.580       360
26.600       390
26.620       397
26.640       450
26.660       490
26.680       430
26.700       400
26.720       413
26.740       387
26.760       473
26.780       400
26.800       430
26.820       413
26.840       363
26.860       490
26.880       340
26.900       470
26.920       390
26.940       347
26.960       407
26.980       423
27.000       390
27.020       367
27.040       383
27.060       343
27.080       357
27.100       453
27.120       483
27.140       473
27.160       476
27.180       390
27.200       330
27.220       367
27.240       453
27.260       373
27.280       410
27.300       387
27.320       470
27.340       400
27.360       377
27.380       387
27.400       407
27.420       393
27.440       430
27.460       387
27.480       470
27.500       390
27.520       440
27.540       420
27.560       383
27.580       443
27.600       400
27.620       483
27.640       470
27.660       347
27.680       387
27.700       393
27.720       370
27.740       403
27.760       373
27.780       446
27.800       360
27.820       363
27.840       353
27.860       430
27.880       337
27.900       373
27.920       446
27.940       380
27.960       413
27.980       390
28.000       417
28.020       456
28.040       413
28.060       410
28.080       413
28.100       443
28.120       413
28.140       420
28.160       397
28.180       397
28.200       407
28.220       403
28.240       450
28.260       420
28.280       347
28.300       323
28.320       450
28.340       410
28.360       383
28.380       397
28.400       363
28.420       400
28.440       486
28.460       423
28.480       456
28.500       470
28.520       383
28.540       440
28.560       357
28.580       380
28.600       446
28.620       400
28.640       353
28.660       350
28.680       403
28.700       420
28.720       350
28.740       440
28.760       446
28.780       450
28.800       476
28.820       407
28.840       453
28.860       446
28.880       393
28.900       426
28.920       440
28.940       453
28.960       450
28.980       426
29.000       523
29.020       620
29.040       543
29.060       556
29.080       530
29.100       636
29.120       686
29.140       656
29.160       640
29.180       773
29.200       773
29.220       703
29.240       670
29.260       673
29.280       640
29.300       660
29.320       590
29.340       590
29.360       590
29.380       566
29.400       573
29.420       523
29.440       466
29.460       463
29.480       513
29.500       530
29.520       456
29.540       433
29.560       410
29.580       530
29.600       483
29.620       506
29.640       456
29.660       533
29.680       480
29.700       476
29.720       576
29.740       496
29.760       490
29.780       566
29.800       513
29.820       483
29.840       640
29.860       563
29.880       533
29.900       523
29.920       556
29.940       613
29.960       516
29.980       580
30.000       556
30.020       513
30.040       553
30.060       583
30.080       580
30.100       523
30.120       566
30.140       536
30.160       483
30.180       470
30.200       603
30.220       456
30.240       470
30.260       483
30.280       420
30.300       436
30.320       520
30.340       433
30.360       440
30.380       423
30.400       456
30.420       423
30.440       473
30.460       390
30.480       400
30.500       426
30.520       390
30.540       453
30.560       350
30.580       440
30.600       367
30.620       357
30.640       417
30.660       420
30.680       390
30.700       433
30.720       440
30.740       473
30.760       453
30.780       320
30.800       337
30.820       353
30.840       377
30.860       380
30.880       383
30.900       410
30.920       397
30.940       466
30.960       390
30.980       323
31.000       407
31.020       397
31.040       363
31.060       307
31.080       380
31.100       423
31.120       400
31.140       393
31.160       387
31.180       340
31.200       380
31.220       370
31.240       446
31.260       377
31.280       387
31.300       363
31.320       327
31.340       377
31.360       417
31.380       313
31.400       397
31.420       397
31.440       327
31.460       360
31.480       417
31.500       400
31.520       413
31.540       407
31.560       360
31.580       387
31.600       367
31.620       330
31.640       433
31.660       353
31.680       370
31.700       363
31.720       373
31.740       400
31.760       300
31.780       337
31.800       370
31.820       403
31.840       360
31.860       367
31.880       453
31.900       383
31.920       333
31.940       400
31.960       357
31.980       327
32.000       347
32.020       383
32.040       380
32.060       340
32.080       390
32.100       433
32.120       400
32.140       323
32.160       347
32.180       370
32.200       340
32.220       297
32.240       407
32.260       387
32.280       370
32.300       420
32.320       506
32.340       387
32.360       363
32.380       320
32.400       417
32.420       377
32.440       363
32.460       423
32.480       280
32.500       380
32.520       390
32.540       373
32.560       310
32.580       463
32.600       377
32.620       330
32.640       317
32.660       333
32.680       343
32.700       353
32.720       357
32.740       367
32.760       340
32.780       423
32.800       350
32.820       387
32.840       327
32.860       330
32.880       380
32.900       410
32.920       383
32.940       360
32.960       337
32.980       370
33.000       367
33.020       327
33.040       443
33.060       337
33.080       383
33.100       407
33.120       350
33.140       410
33.160       300
33.180       363
33.200       277
33.220       483
33.240       343
33.260       330
33.280       357
33.300       303
33.320       383
33.340       320
33.360       393
33.380       293
33.400       410
33.420       387
33.440       370
33.460       320
33.480       307
33.500       373
33.520       360
33.540       367
33.560       337
33.580       353
33.600       420
33.620       313
33.640       333
33.660       357
33.680       320
33.700       323
33.720       370
33.740       333
33.760       343
33.780       287
33.800       360
33.820       360
33.840       420
33.860       293
33.880       330
33.900       343
33.920       327
33.940       340
33.960       410
33.980       297
34.000       383
34.020       297
34.040       420
34.060       320
34.080       393
34.100       357
34.120       407
34.140       373
34.160       323
34.180       370
34.200       410
34.220       353
34.240       373
34.260       330
34.280       323
34.300       337
34.320       363
34.340       337
34.360       327
34.380       370
34.400       357
34.420       360
34.440       340
34.460       357
34.480       327
34.500       383
34.520       383
34.540       367
34.560       377
34.580       390
34.600       393
34.620       380
34.640       330
34.660       353
34.680       313
34.700       370
34.720       347
34.740       357
34.760       333
34.780       340
34.800       387
34.820       357
34.840       357
34.860       343
34.880       380
34.900       340
34.920       466
34.940       333
34.960       440
34.980       340
35.000       443
35.020       357
35.040       330
35.060       377
35.080       313
35.100       383
35.120       327
35.140       387
35.160       313
35.180       397
35.200       360
35.220       383
35.240       383
35.260       337
35.280       323
35.300       357
35.320       340
35.340       333
35.360       303
35.380       390
35.400       370
35.420       387
35.440       350
35.460       373
35.480       383
35.500       400
35.520       413
35.540       360
35.560       373
35.580       393
35.600       390
35.620       383
35.640       400
35.660       393
35.680       407
35.700       460
35.720       433
35.740       420
35.760       420
35.780       490
35.800       383
35.820       460
35.840       403
35.860       440
35.880       383
35.900       383
35.920       347
35.940       370
35.960       350
35.980       373
36.000       367
36.020       397
36.040       393
36.060       383
36.080       330
36.100       380
36.120       380
36.140       373
36.160       373
36.180       383
36.200       303
36.220       327
36.240       347
36.260       403
36.280       310
36.300       400
36.320       390
36.340       353
36.360       337
36.380       367
36.400       373
36.420       400
36.440       340
36.460       327
36.480       453
36.500       417
36.520       367
36.540       430
36.560       436
36.580       476
36.600       456
36.620       426
36.640       463
36.660       446
36.680       470
36.700       483
36.720       443
36.740       493
36.760       453
36.780       510
36.800       470
36.820       546
36.840       556
36.860       466
36.880       503
36.900       520
36.920       490
36.940       563
36.960       646
36.980       616
37.000       543
37.020       610
37.040       590
37.060       546
37.080       586
37.100       553
37.120       513
37.140       596
37.160       670
37.180       523
37.200       566
37.220       560
37.240       520
37.260       463
37.280       476
37.300       460
37.320       407
37.340       430
37.360       446
37.380       456
37.400       470
37.420       397
37.440       400
37.460       473
37.480       393
37.500       473
37.520       436
37.540       367
37.560       476
37.580       340
37.600       420
37.620       433
37.640       417
37.660       370
37.680       353
37.700       347
37.720       420
37.740       367
37.760       353
37.780       353
37.800       290
37.820       403
37.840       340
37.860       367
37.880       423
37.900       383
37.920       446
37.940       460
37.960       397
37.980       430
38.000       377
38.020       380
38.040       433
38.060       423
38.080       443
38.100       393
38.120       407
38.140       403
38.160       417
38.180       373
38.200       410
38.220       360
38.240       373
38.260       413
38.280       347
38.300       403
38.320       420
38.340       420
38.360       377
38.380       397
38.400       400
38.420       413
38.440       417
38.460       370
38.480       403
38.500       337
38.520       377
38.540       420
38.560       426
38.580       387
38.600       380
38.620       323
38.640       290
38.660       330
38.680       426
38.700       410
38.720       370
38.740       387
38.760       413
38.780       357
38.800       373
38.820       430
38.840       413
38.860       370
38.880       353
38.900       423
38.920       343
38.940       377
38.960       436
38.980       420
39.000       410
39.020       407
39.040       380
39.060       353
39.080       423
39.100       446
39.120       460
39.140       483
39.160       390
39.180       453
39.200       430
39.220       500
39.240       473
39.260       496
39.280       433
39.300       440
39.320       423
39.340       426
39.360       436
39.380       343
39.400       443
39.420       423
39.440       343
39.460       320
39.480       350
39.500       360
39.520       383
39.540       407
39.560       393
39.580       373
39.600       353
39.620       370
39.640       417
39.660       413
39.680       410
39.700       443
39.720       383
39.740       383
39.760       320
39.780       436
39.800       360
39.820       370
39.840       380
39.860       377
39.880       443
39.900       390
39.920       320
39.940       380
39.960       377
39.980       377
40.000       357
40.020       353
40.040       357
40.060       320
40.080       367
40.100       350
40.120       360
40.140       343
40.160       363
40.180       347
40.200       350
40.220       370
40.240       426
40.260       373
40.280       383
40.300       420
40.320       340
40.340       333
40.360       397
40.380       363
40.400       403
40.420       363
40.440       400
40.460       370
40.480       400
40.500       360
40.520       367
40.540       337
40.560       370
40.580       340
40.600       380
40.620       343
40.640       363
40.660       377
40.680       383
40.700       343
40.720       370
40.740       393
40.760       310
40.780       313
40.800       397
40.820       343
40.840       333
40.860       370
40.880       363
40.900       403
40.920       367
40.940       397
40.960       320
40.980       370
41.000       446
41.020       430
41.040       377
41.060       373
41.080       310
41.100       393
41.120       380
41.140       357
41.160       367
41.180       417
41.200       350
41.220       400
41.240       413
41.260       393
41.280       343
41.300       436
41.320       470
41.340       390
41.360       456
41.380       390
41.400       420
41.420       347
41.440       417
41.460       417
41.480       496
41.500       503
41.520       423
41.540       390
41.560       463
41.580       463
41.600       393
41.620       536
41.640       423
41.660       397
41.680       510
41.700       420
41.720       473
41.740       463
41.760       436
41.780       480
41.800       483
41.820       397
41.840       503
41.860       496
41.880       466
41.900       456
41.920       450
41.940       510
41.960       540
41.980       520
42.000       686
42.020       626
42.040       603
42.060       646
42.080       640
42.100       683
42.120       683
42.140       596
42.160       770
42.180       740
42.200       673
42.220       833
42.240       716
42.260       780
42.280       666
42.300       906
42.320       816
42.340       893
42.360       936
42.380       883
42.400       926
42.420       996
42.440       966
42.460      1030
42.480      1013
42.500      1170
42.520      1166
42.540      1173
42.560      1176
42.580      1166
42.600      1220
42.620      1163
42.640      1309
42.660      1140
42.680      1319
42.700      1243
42.720      1363
42.740      1366
42.760      1250
42.780      1309
42.800      1389
42.820      1303
42.840      1240
42.860      1419
42.880      1283
42.900      1429
42.920      1286
42.940      1276
42.960      1309
42.980      1269
43.000      1163
43.020      1210
43.040      1150
43.060      1210
43.080      1143
43.100      1010
43.120      1160
43.140      1066
43.160       950
43.180       836
43.200       940
43.220       820
43.240       880
43.260       833
43.280       840
43.300       813
43.320       656
43.340       740
43.360       690
43.380       683
43.400       796
43.420       690
43.440       693
43.460       633
43.480       583
43.500       660
43.520       600
43.540       623
43.560       636
43.580       566
43.600       553
43.620       620
43.640       496
43.660       526
43.680       513
43.700       553
43.720       560
43.740       480
43.760       410
43.780       516
43.800       503
43.820       456
43.840       500
43.860       410
43.880       480
43.900       496
43.920       493
43.940       383
43.960       480
43.980       430
44.000       473
44.020       440
44.040       420
44.060       433
44.080       367
44.100       407
44.120       436
44.140       377
44.160       420
44.180       393
44.200       453
44.220       460
44.240       377
44.260       463
44.280       400
44.300       446
44.320       390
44.340       410
44.360       433
44.380       417
44.400       333
44.420       410
44.440       370
44.460       407
44.480       377
44.500       363
44.520       436
44.540       397
44.560       420
44.580       367
44.600       367
44.620       430
44.640       443
44.660       363
44.680       340
44.700       277
44.720       367
44.740       350
44.760       373
44.780       417
44.800       353
44.820       313
44.840       373
44.860       300
44.880       363
44.900       310
44.920       370
44.940       343
44.960       370
44.980       393
45.000       423
45.020       400
45.040       420
45.060       323
45.080       340
45.100       383
45.120       363
45.140       347
45.160       380
45.180       436
45.200       353
45.220       360
45.240       377
45.260       410
45.280       407
45.300       360
45.320       390
45.340       373
45.360       380
45.380       363
45.400       367
45.420       380
45.440       387
45.460       426
45.480       347
45.500       347
45.520       307
45.540       377
45.560       343
45.580       280
45.600       360
45.620       400
45.640       370
45.660       340
45.680       367
45.700       357
45.720       363
45.740       357
45.760       383
45.780       343
45.800       317
45.820       343
45.840       390
45.860       390
45.880       343
45.900       400
45.920       450
45.940       347
45.960       400
45.980       293
46.000       350
46.020       360
46.040       350
46.060       290
46.080       383
46.100       287
46.120       353
46.140       370
46.160       403
46.180       313
46.200       310
46.220       290
46.240       310
46.260       393
46.280       343
46.300       377
46.320       363
46.340       413
46.360       403
46.380       370
46.400       353
46.420       377
46.440       390
46.460       293
46.480       397
46.500       337
46.520       377
46.540       290
46.560       410
46.580       363
46.600       347
46.620       350
46.640       360
46.660       330
46.680       350
46.700       307
46.720       293
46.740       370
46.760       360
46.780       397
46.800       367
46.820       403
46.840       433
46.860       453
46.880       380
46.900       480
46.920       367
46.940       436
46.960       413
46.980       443
47.000       436
47.020       313
47.040       423
47.060       380
47.080       330
47.100       440
47.120       413
47.140       473
47.160       390
47.180       413
47.200       410
47.220       456
47.240       510
47.260       490
47.280       440
47.300       516
47.320       476
47.340       456
47.360       573
47.380       503
47.400       413
47.420       453
47.440       456
47.460       407
47.480       417
47.500       430
47.520       360
47.540       390
47.560       400
47.580       380
47.600       323
47.620       353
47.640       367
47.660       343
47.680       367
47.700       436
47.720       337
47.740       307
47.760       353
47.780       403
47.800       330
47.820       357
47.840       367
47.860       383
47.880       363
47.900       403
47.920       380
47.940       377
47.960       380
47.980       320
48.000       407
48.020       300
48.040       377
48.060       393
48.080       397
48.100       313
48.120       443
48.140       323
48.160       430
48.180       377
48.200       433
48.220       430
48.240       410
48.260       513
48.280       463
48.300       530
48.320       463
48.340       413
48.360       533
48.380       433
48.400       436
48.420       423
48.440       486
48.460       456
48.480       426
48.500       330
48.520       380
48.540       486
48.560       367
48.580       367
48.600       380
48.620       383
48.640       327
48.660       347
48.680       317
48.700       340
48.720       347
48.740       317
48.760       343
48.780       287
48.800       300
48.820       287
48.840       313
48.860       357
48.880       397
48.900       307
48.920       333
48.940       307
48.960       310
48.980       307
49.000       323
49.020       317
49.040       360
49.060       350
49.080       343
49.100       393
49.120       377
49.140       300
49.160       327
49.180       360
49.200       337
49.220       337
49.240       343
49.260       330
49.280       337
49.300       373
49.320       313
49.340       313
49.360       310
49.380       373
49.400       373
49.420       313
49.440       380
49.460       367
49.480       370
49.500       407
49.520       333
49.540       383
49.560       360
49.580       297
49.600       367
49.620       347
49.640       290
49.660       303
49.680       363
49.700       347
49.720       377
49.740       330
49.760       327
49.780       330
49.800       373
49.820       370
49.840       313
49.860       353
49.880       303
49.900       347
49.920       377
49.940       383
49.960       403
49.980       363
50.000       367
50.020       323
50.040       367
50.060       387
50.080       387
50.100       320
50.120       347
50.140       303
50.160       337
50.180       323
50.200       357
50.220       327
50.240       320
50.260       367
50.280       357
50.300       323
50.320       317
50.340       377
50.360       287
50.380       320
50.400       403
50.420       387
50.440       357
50.460       367
50.480       330
50.500       287
50.520       287
50.540       313
50.560       340
50.580       287
50.600       273
50.620       393
50.640       353
50.660       313
50.680       367
50.700       350
50.720       337
50.740       347
50.760       377
50.780       423
50.800       353
50.820       337
50.840       327
50.860       333
50.880       320
50.900       380
50.920       337
50.940       340
50.960       327
50.980       333
51.000       287
51.020       337
51.040       357
51.060       347
51.080       383
51.100       350
51.120       343
51.140       327
51.160       313
51.180       310
51.200       343
51.220       363
51.240       390
51.260       363
51.280       410
51.300       330
51.320       323
51.340       340
51.360       323
51.380       323
51.400       277
51.420       363
51.440       393
51.460       333
51.480       347
51.500       303
51.520       340
51.540       357
51.560       383
51.580       280
51.600       310
51.620       350
51.640       340
51.660       393
51.680       363
51.700       317
51.720       383
51.740       327
51.760       407
51.780       313
51.800       290
51.820       383
51.840       333
51.860       387
51.880       300
51.900       327
51.920       337
51.940       403
51.960       343
51.980       377
52.000       287
52.020       380
52.040       420
52.060       403
52.080       353
52.100       390
52.120       383
52.140       340
52.160       400
52.180       347
52.200       343
52.220       340
52.240       390
52.260       390
52.280       350
52.300       410
52.320       370
52.340       377
52.360       413
52.380       370
52.400       357
52.420       470
52.440       420
52.460       377
52.480       450
52.500       433
52.520       423
52.540       407
52.560       403
52.580       393
52.600       373
52.620       393
52.640       367
52.660       363
52.680       413
52.700       470
52.720       403
52.740       370
52.760       493
52.780       480
52.800       443
52.820       360
52.840       486
52.860       397
52.880       377
52.900       423
52.920       370
52.940       426
52.960       516
52.980       450
53.000       483
53.020       453
53.040       433
53.060       440
53.080       510
53.100       443
53.120       496
53.140       426
53.160       510
53.180       473
53.200       523
53.220       510
53.240       540
53.260       526
53.280       586
53.300       417
53.320       500
53.340       500
53.360       530
53.380       526
53.400       536
53.420       513
53.440       520
53.460       460
53.480       570
53.500       460
53.520       483
53.540       430
53.560       480
53.580       490
53.600       450
53.620       453
53.640       490
53.660       440
53.680       496
53.700       436
53.720       387
53.740       443
53.760       413
53.780       426
53.800       426
53.820       403
53.840       430
53.860       413
53.880       466
53.900       407
53.920       357
53.940       370
53.960       450
53.980       420
54.000       413
54.020       357
54.040       333
54.060       327
54.080       353
54.100       293
54.120       393
54.140       407
54.160       357
54.180       350
54.200       287
54.220       417
54.240       360
54.260       360
54.280       347
54.300       357
54.320       377
54.340       363
54.360       443
54.380       317
54.400       313
54.420       373
54.440       343
54.460       290
54.480       323
54.500       330
54.520       323
54.540       373
54.560       330
54.580       313
54.600       383
54.620       327
54.640       420
54.660       407
54.680       373
54.700       377
54.720       313
54.740       303
54.760       337
54.780       343
54.800       337
54.820       353
54.840       383
54.860       323
54.880       357
54.900       287
54.920       377
54.940       283
54.960       397
54.980       343
55.000       343
55.020       350
55.040       330
55.060       373
55.080       343
55.100       403
55.120       300
55.140       323
55.160       303
55.180       313
55.200       400
55.220       307
55.240       347
55.260       307
55.280       333
55.300       323
55.320       390
55.340       307
55.360       293
55.380       310
55.400       290
55.420       307
55.440       317
55.460       373
55.480       313
55.500       273
55.520       320
55.540       293
55.560       310
55.580       330
55.600       363
55.620       293
55.640       320
55.660       377
55.680       317
55.700       273
55.720       350
55.740       410
55.760       303
55.780       327
55.800       347
55.820       253
55.840       340
55.860       287
55.880       303
55.900       317
55.920       363
55.940       363
55.960       277
55.980       267
56.000       297
56.020       303
56.040       303
56.060       320
56.080       280
56.100       313
56.120       333
56.140       280
56.160       333
56.180       310
56.200       317
56.220       367
56.240       280
56.260       357
56.280       350
56.300       347
56.320       333
56.340       397
56.360       390
56.380       363
56.400       290
56.420       390
56.440       367
56.460       390
56.480       393
56.500       350
56.520       367
56.540       260
56.560       320
56.580       327
56.600       297
56.620       380
56.640       337
56.660       340
56.680       327
56.700       327
56.720       300
56.740       320
56.760       270
56.780       267
56.800       343
56.820       370
56.840       323
56.860       283
56.880       347
56.900       323
56.920       300
56.940       330
56.960       363
56.980       307
57.000       273
57.020       307
57.040       327
57.060       373
57.080       370
57.100       317
57.120       410
57.140       307
57.160       390
57.180       333
57.200       313
57.220       383
57.240       327
57.260       383
57.280       330
57.300       340
57.320       357
57.340       387
57.360       273
57.380       337
57.400       403
57.420       327
57.440       293
57.460       297
57.480       300
57.500       310
57.520       313
57.540       350
57.560       267
57.580       300
57.600       293
57.620       287
57.640       257
57.660       293
57.680       310
57.700       277
57.720       340
57.740       280
57.760       270
57.780       280
57.800       237
57.820       330
57.840       267
57.860       317
57.880       283
57.900       267
57.920       320
57.940       280
57.960       273
57.980       280
58.000       323
58.020       363
58.040       270
58.060       257
58.080       290
58.100       323
58.120       280
58.140       297
58.160       220
58.180       280
58.200       343
58.220       263
58.240       307
58.260       263
58.280       290
58.300       260
58.320       293
58.340       303
58.360       307
58.380       303
58.400       293
58.420       283
58.440       287
58.460       227
58.480       293
58.500       257
58.520       303
58.540       300
58.560       320
58.580       343
58.600       260
58.620       280
58.640       313
58.660       333
58.680       267
58.700       293
58.720       300
58.740       260
58.760       277
58.780       233
58.800       217
58.820       283
58.840       307
58.860       257
58.880       213
58.900       217
58.920       307
58.940       253
58.960       300
58.980       293
59.000       303
59.020       327
59.040       317
59.060       267
59.080       233
59.100       260
59.120       237
59.140       320
59.160       250
59.180       293
59.200       300
59.220       317
59.240       247
59.260       347
59.280       303
59.300       263
59.320       330
59.340       220
59.360       283
59.380       267
59.400       283
59.420       303
59.440       290
59.460       293
59.480       287
59.500       263
59.520       280
59.540       267
59.560       277
59.580       320
59.600       290
59.620       350
59.640       273
59.660       290
59.680       273
59.700       263
59.720       227
59.740         0
59.760         0
59.780         0
59.800         0
59.820         0
59.840         0
59.860         0
59.880         0
59.900         0
59.920         3
59.940         0
59.960         0
59.980         0
60.000         0
