20.000       716
20.020       606
20.040       676
20.060       646
20.080       646
20.100       643
20.120       603
20.140       660
20.160       673
20.180       636
20.200       683
20.220       596
20.240       683
20.260       586
20.280       660
20.300       700
20.320       643
20.340       733
20.360       586
20.380       723
20.400       646
20.420       626
20.440       610
20.460       716
20.480       643
20.500       573
20.520       630
20.540       610
20.560       606
20.580       643
20.600       656
20.620       620
20.640       636
20.660       650
20.680       673
20.700       593
20.720       676
20.740       630
20.760       663
20.780       590
20.800       710
20.820       683
20.840       770
20.860       693
20.880       743
20.900       740
20.920       740
20.940       753
20.960       723
20.980       806
21.000       703
21.020       733
21.040       773
21.060       810
21.080       796
21.100       870
21.120       756
21.140       800
21.160       873
21.180       816
21.200       800
21.220       760
21.240       693
21.260       846
21.280       713
21.300       740
21.320       686
21.340       670
21.360       613
21.380       596
21.400       606
21.420       640
21.440       653
21.460       523
21.480       650
21.500       620
21.520       620
21.540       566
21.560       603
21.580       583
21.600       586
21.620       583
21.640       560
21.660       583
21.680       560
21.700       636
21.720       553
21.740       553
21.760       503
21.780       553
21.800       573
21.820       470
21.840       546
21.860       570
21.880       493
21.900       613
21.920       466
21.940       596
21.960       523
21.980       596
22.000       573
22.020       486
22.040       546
22.060       570
22.080       536
22.100       573
22.120       583
22.140       570
22.160       610
22.180       580
22.200       476
22.220       596
22.240       530
22.260       570
22.280       566
22.300       576
22.320       596
22.340       486
22.360       580
22.380       560
22.400       593
22.420       450
22.440       516
22.460       593
22.480       586
22.500       520
22.520       630
22.540       526
22.560       546
22.580       576
22.600       550
22.620       573
22.640       490
22.660       563
22.680       540
22.700       516
22.720       503
22.740       550
22.760       530
22.780       546
22.800       496
22.820       566
22.840       540
22.860       590
22.880       500
22.900       606
22.920       496
22.940       513
22.960       496
22.980       543
23.000       480
23.020       503
23.040       573
23.060       523
23.080       580
23.100       470
23.120       513
23.140       526
23.160       553
23.180       503
23.200       450
23.220       540
23.240       483
23.260       486
23.280       443
23.300       480
23.320       526
23.340       460
23.360       546
23.380       540
23.400       456
23.420       513
23.440       446
23.460       476
23.480       460
23.500       563
23.520       456
23.540       446
23.560       496
23.580       626
23.600       490
23.620       463
23.640       460
23.660       483
23.680       453
23.700       543
23.720       466
23.740       493
23.760       466
23.780       443
23.800       470
23.820       593
23.840       533
23.860       473
23.880       496
23.900       533
23.920       503
23.940       423
23.960       433
23.980       503
24.000       440
24.020       463
24.040       456
24.060       456
24.080       486
24.100       520
24.120       440
24.140       446
24.160       526
24.180       440
24.200       440
24.220       363
24.240       443
24.260       397
24.280       480
24.300       410
24.320       460
24.340       496
24.360       397
24.380       450
24.400       540
24.420       503
24.440       500
24.460       530
24.480       546
24.500       540
24.520       493
24.540       526
24.560       443
24.580       490
24.600       560
24.620       516
24.640       536
24.660       493
24.680       576
24.700       520
24.720       503
24.740       506
24.760       496
24.780       453
24.800       550
24.820       393
24.840       417
24.860       483
24.880       490
24.900       423
24.920       446
24.940       446
24.960       470
24.980       500
25.000       500
25.020       417
25.040       443
25.060       423
25.080       486
25.100       407
25.120       393
25.140       483
25.160       470
25.180       423
25.200       380
25.220       293
25.240       417
25.260       456
25.280       430
25.300       476
25.320       446
25.340       403
25.360       413
25.380       413
25.400       466
25.420       443
25.440       417
25.460       440
25.480       373
25.500       470
25.520       380
25.540       430
25.560       426
25.580       400
25.600       443
25.620       426
25.640       483
25.660       446
25.680       413
25.700       410
25.720       403
25.740       426
25.760       453
25.780       413
25.800       476
25.820       440
25.840       353
25.860       433
25.880       377
25.900       410
25.920       410
25.940       377
25.960       450
25.980       446
26.000       393
26.020       433
26.040       377
26.060       490
26.080       413
26.100       460
26.120       387
26.140       393
26.160       400
26.180       433
26.200       383
26.220       493
26.240       473
26.260       463
26.280       490
26.300       426
26.320       400
26.340       410
26.360       476
26.380       436
26.400       360
26.420       453
26.440       407
26.460       390
26.480       423
26.500       473
26.520       443
26.540       456
26.560       426
26.580       446
26.600       446
26.620       393
26.640       417
26.660       417
26.680       473
26.700       450
26.720       360
26.740       417
26.760       446
26.780       446
26.800       550
26.820       393
26.840       357
26.860       456
26.880       350
26.900       383
26.920       436
26.940       460
26.960       373
26.980       436
27.000       413
27.020       440
27.040       473
27.060       397
27.080       393
27.100       446
27.120       443
27.140       483
27.160       440
27.180       417
27.200       463
27.220       397
27.240       353
27.260       400
27.280       430
27.300       370
27.320       373
27.340       417
27.360       393
27.380       390
27.400       453
27.420       413
27.440       390
27.460       473
27.480       367
27.500       446
27.520       413
27.540       466
27.560       407
27.580       383
27.600       367
27.620       387
27.640       373
27.660       400
27.680       417
27.700       453
27.720       433
27.740       390
27.760       407
27.780       397
27.800       337
27.820       433
27.840       373
27.860       440
27.880       470
27.900       440
27.920       450
27.940       460
27.960       493
27.980       470
28.000       490
28.020       486
28.040       383
28.060       380
28.080       410
28.100       490
28.120       443
28.140       410
28.160       387
28.180       493
28.200       350
28.220       343
28.240       423
28.260       380
28.280       367
28.300       377
28.320       297
28.340       413
28.360       397
28.380       400
28.400       383
28.420       430
28.440       297
28.460       357
28.480       350
28.500       327
28.520       337
28.540       397
28.560       400
28.580       466
28.600       426
28.620       397
28.640       400
28.660       327
28.680       377
28.700       466
28.720       397
28.740       377
28.760       410
28.780       443
28.800       423
28.820       393
28.840       470
28.860       417
28.880       413
28.900       523
28.920       533
28.940       546
28.960       486
28.980       496
29.000       420
29.020       426
29.040       520
29.060       550
29.080       643
29.100       656
29.120       713
29.140       656
29.160       733
29.180       733
29.200       766
29.220       663
29.240       586
29.260       653
29.280       536
29.300       540
29.320       546
29.340       440
29.360       370
29.380       476
29.400       417
29.420       450
29.440       413
29.460       417
29.480       423
29.500       423
29.520       417
29.540       413
29.560       496
29.580       446
29.600       367
29.620       466
29.640       493
29.660       460
29.680       450
29.700       470
29.720       503
29.740       530
29.760       476
29.780       493
29.800       563
29.820       573
29.840       583
29.860       636
29.880       546
29.900       586
29.920       656
29.940       710
29.960       696
29.980       656
30.000       646
30.020       683
30.040       703
30.060       733
30.080       783
30.100       776
30.120       843
30.140       760
30.160       813
30.180       890
30.200       933
30.220       803
30.240       703
30.260       743
30.280       746
30.300       633
30.320       783
30.340       686
30.360       616
30.380       686
30.400       580
30.420       640
30.440       583
30.460       540
30.480       510
30.500       523
30.520       490
30.540       523
30.560       423
30.580       503
30.600       523
30.620       470
30.640       523
30.660       450
30.680       390
30.700       390
30.720       423
30.740       423
30.760       456
30.780       436
30.800       393
30.820       430
30.840       410
30.860       456
30.880       440
30.900       480
30.920       383
30.940       317
30.960       473
30.980       410
31.000       410
31.020       347
31.040       426
31.060       340
31.080       327
31.100       380
31.120       417
31.140       370
31.160       337
31.180       337
31.200       357
31.220       377
31.240       377
31.260       453
31.280       403
31.300       407
31.320       403
31.340       423
31.360       393
31.380       377
31.400       373
31.420       337
31.440       400
31.460       403
31.480       410
31.500       397
31.520       423
31.540       436
31.560       343
31.580       350
31.600       417
31.620       423
31.640       413
31.660       353
31.680       426
31.700       340
31.720       373
31.740       353
31.760       417
31.780       393
31.800       357
31.820       353
31.840       327
31.860       387
31.880       340
31.900       393
31.920       393
31.940       393
31.960       383
31.980       370
32.000       377
32.020       357
32.040       380
32.060       417
32.080       313
32.100       393
32.120       330
32.140       367
32.160       390
32.180       397
32.200       333
32.220       370
32.240       407
32.260       337
32.280       350
32.300       357
32.320       357
32.340       380
32.360       343
32.380       353
32.400       357
32.420       403
32.440       330
32.460       373
32.480       350
32.500       397
32.520       420
32.540       350
32.560       350
32.580       373
32.600       330
32.620       400
32.640       400
32.660       380
32.680       370
32.700       317
32.720       283
32.740       417
32.760       397
32.780       370
32.800       353
32.820       340
32.840       367
32.860       397
32.880       367
32.900       426
32.920       340
32.940       323
32.960       407
32.980       343
33.000       397
33.020       430
33.040       337
33.060       393
33.080       363
33.100       343
33.120       337
33.140       367
33.160       367
33.180       303
33.200       480
33.220       350
33.240       423
33.260       363
33.280       397
33.300       300
33.320       390
33.340       323
33.360       333
33.380       380
33.400       273
33.420       330
33.440       360
33.460       360
33.480       377
33.500       446
33.520       387
33.540       353
33.560       360
33.580       420
33.600       403
33.620       320
33.640       360
33.660       410
33.680       380
33.700       377
33.720       380
33.740       353
33.760       327
33.780       287
33.800       393
33.820       403
33.840       300
33.860       397
33.880       387
33.900       426
33.920       367
33.940       426
33.960       373
33.980       340
34.000       430
34.020       350
34.040       413
34.060       333
34.080       350
34.100       383
34.120       423
34.140       350
34.160       327
34.180       360
34.200       360
34.220       357
34.240       383
34.260       350
34.280       373
34.300       423
34.320       470
34.340       430
34.360       436
34.380       410
34.400       436
34.420       413
34.440       360
34.460       436
34.480       380
34.500       433
34.520       423
34.540       473
34.560       390
34.580       357
34.600       423
34.620       426
34.640       466
34.660       466
34.680       426
34.700       486
34.720       450
34.740       470
34.760       403
34.780       470
34.800       380
34.820       417
34.840       453
34.860       417
34.880       436
34.900       430
34.920       476
34.940       463
34.960       453
34.980       410
35.000       493
35.020       513
35.040       450
35.060       503
35.080       496
35.100       483
35.120       480
35.140       526
35.160       536
35.180       510
35.200       523
35.220       566
35.240       590
35.260       550
35.280       673
35.300       726
35.320       683
35.340       876
35.360       900
35.380       840
35.400      1036
35.420      1120
35.440      1269
35.460      1449
35.480      1636
35.500      1706
35.520      2206
35.540      2299
35.560      2472
35.580      2666
35.600      2702
35.620      2576
35.640      2469
35.660      2289
35.680      2176
35.700      1959
35.720      1586
35.740      1423
35.760      1403
35.780      1160
35.800      1126
35.820       930
35.840       876
35.860       840
35.880       693
35.900       756
35.920       666
35.940       663
35.960       603
35.980       566
36.000       633
36.020       560
36.040       523
36.060       476
36.080       503
36.100       466
36.120       483
36.140       546
36.160       523
36.180       530
36.200       516
36.220       473
36.240       500
36.260       520
36.280       410
36.300       473
36.320       410
36.340       530
36.360       476
36.380       363
36.400       433
36.420       510
36.440       426
36.460       443
36.480       490
36.500       463
36.520       403
36.540       393
36.560       430
36.580       446
36.600       463
36.620       367
36.640       423
36.660       413
36.680       397
36.700       417
36.720       470
36.740       436
36.760       410
36.780       380
36.800       353
36.820       380
36.840       400
36.860       410
36.880       450
36.900       480
36.920       373
36.940       456
36.960       470
36.980       473
37.000       526
37.020       506
37.040       440
37.060       450
37.080       480
37.100       513
37.120       503
37.140       503
37.160       456
37.180       506
37.200       500
37.220       520
37.240       536
37.260       513
37.280       496
37.300       570
37.320       536
37.340       600
37.360       496
37.380       633
37.400       520
37.420       513
37.440       513
37.460       530
37.480       453
37.500       536
37.520       493
37.540       430
37.560       397
37.580       476
37.600       426
37.620       327
37.640       443
37.660       436
37.680       423
37.700       403
37.720       300
37.740       393
37.760       387
37.780       393
37.800       440
37.820       410
37.840       387
37.860       413
37.880       360
37.900       360
37.920       423
37.940       367
37.960       383
37.980       426
38.000       443
38.020       407
38.040       436
38.060       453
38.080       470
38.100       403
38.120       450
38.140       433
38.160       463
38.180       413
38.200       357
38.220       357
38.240       373
38.260       450
38.280       403
38.300       350
38.320       380
38.340       456
38.360       503
38.380       440
38.400       436
38.420       357
38.440       353
38.460       436
38.480       410
38.500       426
38.520       400
38.540       360
38.560       400
38.580       403
38.600       450
38.620       283
38.640       343
38.660       357
38.680       446
38.700       420
38.720       390
38.740       453
38.760       417
38.780       410
38.800       463
38.820       380
38.840       417
38.860       403
38.880       466
38.900       446
38.920       460
38.940       543
38.960       423
38.980       450
39.000       480
39.020       423
39.040       440
39.060       556
39.080       446
39.100       466
39.120       480
39.140       513
39.160       443
39.180       496
39.200       570
39.220       436
39.240       470
39.260       433
39.280       440
39.300       413
39.320       410
39.340       407
39.360       400
39.380       377
39.400       387
39.420       420
39.440       390
39.460       390
39.480       340
39.500       363
39.520       330
39.540       423
39.560       373
39.580       430
39.600       333
39.620       367
39.640       397
39.660       350
39.680       380
39.700       440
39.720       407
39.740       400
39.760       320
39.780       337
39.800       390
39.820       417
39.840       400
39.860       360
39.880       397
39.900       387
39.920       433
39.940       353
39.960       413
39.980       373
40.000       383
40.020       377
40.040       367
40.060       387
40.080       367
40.100       426
40.120       357
40.140       363
40.160       350
40.180       323
40.200       363
40.220       363
40.240       367
40.260       300
40.280       350
40.300       393
40.320       383
40.340       393
40.360       377
40.380       343
40.400       383
40.420       360
40.440       393
40.460       363
40.480       390
40.500       273
40.520       383
40.540       373
40.560       377
40.580       370
40.600       400
40.620       436
40.640       380
40.660       307
40.680       400
40.700       363
40.720       397
40.740       340
40.760       350
40.780       370
40.800       410
40.820       373
40.840       360
40.860       423
40.880       407
40.900       440
40.920       347
40.940       347
40.960       383
40.980       350
41.000       393
41.020       353
41.040       417
41.060       343
41.080       393
41.100       363
41.120       357
41.140       433
41.160       387
41.180       387
41.200       466
41.220       337
41.240       423
41.260       426
41.280       456
41.300       417
41.320       357
41.340       407
41.360       360
41.380       410
41.400       340
41.420       340
41.440       417
41.460       373
41.480       433
41.500       407
41.520       407
41.540       380
41.560       417
41.580       403
41.600       403
41.620       403
41.640       403
41.660       463
41.680       407
41.700       350
41.720       370
41.740       367
41.760       343
41.780       377
41.800       503
41.820       430
41.840       397
41.860       433
41.880       383
41.900       383
41.920       463
41.940       413
41.960       426
41.980       456
42.000       410
42.020       430
42.040       473
42.060       446
42.080       350
42.100       380
42.120       426
42.140       413
42.160       430
42.180       526
42.200       400
42.220       377
42.240       390
42.260       440
42.280       456
42.300       436
42.320       493
42.340       513
42.360       460
42.380       476
42.400       496
42.420       536
42.440       473
42.460       570
42.480       603
42.500       596
42.520       596
42.540       583
42.560       570
42.580       586
42.600       673
42.620       736
42.640       710
42.660       820
42.680       766
42.700       773
42.720       896
42.740       853
42.760      1023
42.780       916
42.800      1216
42.820      1196
42.840      1273
42.860      1273
42.880      1319
42.900      1376
42.920      1523
42.940      1503
42.960      1766
42.980      1589
43.000      1713
43.020      1726
43.040      1996
43.060      1873
43.080      1966
43.100      1789
43.120      1966
43.140      1956
43.160      2049
43.180      1826
43.200      1876
43.220      1836
43.240      1796
43.260      1666
43.280      1626
43.300      1643
43.320      1679
43.340      1549
43.360      1366
43.380      1336
43.400      1313
43.420      1163
43.440      1106
43.460      1003
43.480       880
43.500       803
43.520       750
43.540       826
43.560       763
43.580       773
43.600       753
43.620       640
43.640       720
43.660       580
43.680       560
43.700       600
43.720       563
43.740       563
43.760       570
43.780       546
43.800       533
43.820       533
43.840       480
43.860       460
43.880       490
43.900       443
43.920       407
43.940       483
43.960       530
43.980       400
44.000       423
44.020       556
44.040       456
44.060       473
44.080       390
44.100       436
44.120       460
44.140       403
44.160       456
44.180       463
44.200       440
44.220       330
44.240       363
44.260       313
44.280       453
44.300       367
44.320       440
44.340       357
44.360       460
44.380       400
44.400       430
44.420       380
44.440       373
44.460       410
44.480       407
44.500       387
44.520       377
44.540       337
44.560       377
44.580       347
44.600       397
44.620       337
44.640       337
44.660       393
44.680       353
44.700       387
44.720       446
44.740       353
44.760       393
44.780       340
44.800       327
44.820       410
44.840       380
44.860       383
44.880       423
44.900       397
44.920       420
44.940       400
44.960       400
44.980       480
45.000       380
45.020       333
45.040       393
45.060       333
45.080       363
45.100       456
45.120       390
45.140       370
45.160       453
45.180       423
45.200       387
45.220       367
45.240       370
45.260       387
45.280       357
45.300       400
45.320       380
45.340       410
45.360       383
45.380       357
45.400       373
45.420       410
45.440       290
45.460       360
45.480       330
45.500       370
45.520       373
45.540       333
45.560       370
45.580       300
45.600       347
45.620       436
45.640       287
45.660       333
45.680       347
45.700       350
45.720       423
45.740       323
45.760       350
45.780       353
45.800       357
45.820       350
45.840       360
45.860       387
45.880       373
45.900       433
45.920       353
45.940       387
45.960       377
45.980       357
46.000       330
46.020       313
46.040       367
46.060       370
46.080       333
46.100       367
46.120       293
46.140       357
46.160       320
46.180       320
46.200       436
46.220       360
46.240       313
46.260       400
46.280       387
46.300       290
46.320       393
46.340       367
46.360       390
46.380       390
46.400       397
46.420       343
46.440       420
46.460       350
46.480       350
46.500       387
46.520       340
46.540       353
46.560       343
46.580       413
46.600       357
46.620       330
46.640       407
46.660       413
46.680       370
46.700       400
46.720       460
46.740       403
46.760       413
46.780       317
46.800       397
46.820       343
46.840       367
46.860       340
46.880       460
46.900       407
46.920       473
46.940       387
46.960       367
46.980       360
47.000       436
47.020       430
47.040       397
47.060       403
47.080       413
47.100       423
47.120       460
47.140       496
47.160       506
47.180       407
47.200       500
47.220       433
47.240       460
47.260       526
47.280       433
47.300       523
47.320       456
47.340       456
47.360       500
47.380       426
47.400       413
47.420       440
47.440       373
47.460       470
47.480       383
47.500       417
47.520       360
47.540       383
47.560       323
47.580       383
47.600       293
47.620       373
47.640       367
47.660       303
47.680       357
47.700       377
47.720       367
47.740       280
47.760       330
47.780       313
47.800       320
47.820       353
47.840       347
47.860       350
47.880       353
47.900       340
47.920       303
47.940       393
47.960       407
47.980       423
48.000       363
48.020       373
48.040       373
48.060       373
48.080       433
48.100       430
48.120       483
48.140       443
48.160       450
48.180       450
48.200       480
48.220       470
48.240       456
48.260       486
48.280       463
48.300       473
48.320       426
48.340       420
48.360       506
48.380       473
48.400       490
48.420       460
48.440       383
48.460       456
48.480       363
48.500       357
48.520       330
48.540       377
48.560       397
48.580       290
48.600       343
48.620       360
48.640       357
48.660       340
48.680       303
48.700       340
48.720       390
48.740       287
48.760       330
48.780       333
48.800       367
48.820       363
48.840       350
48.860       333
48.880       320
48.900       327
48.920       327
48.940       320
48.960       343
48.980       370
49.000       343
49.020       330
49.040       287
49.060       340
49.080       360
49.100       370
49.120       320
49.140       310
49.160       343
49.180       327
49.200       357
49.220       350
49.240       367
49.260       270
49.280       323
49.300       313
49.320       310
49.340       377
49.360       313
49.380       297
49.400       290
49.420       367
49.440       307
49.460       337
49.480       333
49.500       333
49.520       360
49.540       400
49.560       277
49.580       297
49.600       290
49.620       353
49.640       330
49.660       393
49.680       320
49.700       350
49.720       263
49.740       357
49.760       313
49.780       367
49.800       363
49.820       317
49.840       370
49.860       330
49.880       293
49.900       313
49.920       343
49.940       353
49.960       317
49.980       307
50.000       323
50.020       287
50.040       323
50.060       370
50.080       320
50.100       243
50.120       323
50.140       267
50.160       330
50.180       310
50.200       337
50.220       290
50.240       357
50.260       233
50.280       297
50.300       397
50.320       367
50.340       297
50.360       297
50.380       363
50.400       327
50.420       390
50.440       340
50.460       287
50.480       260
50.500       290
50.520       337
50.540       313
50.560       317
50.580       340
50.600       317
50.620       360
50.640       320
50.660       357
50.680       327
50.700       367
50.720       287
50.740       283
50.760       330
50.780       317
50.800       387
50.820       297
50.840       367
50.860       317
50.880       350
50.900       360
50.920       310
50.940       303
50.960       320
50.980       317
51.000       327
51.020       327
51.040       360
51.060       293
51.080       357
51.100       307
51.120       377
51.140       307
51.160       367
51.180       297
51.200       297
51.220       297
51.240       323
51.260       300
51.280       313
51.300       303
51.320       303
51.340       313
51.360       283
51.380       307
51.400       220
51.420       310
51.440       317
51.460       280
51.480       303
51.500       283
51.520       323
51.540       297
51.560       360
51.580       390
51.600       333
51.620       293
51.640       340
51.660       313
51.680       290
51.700       337
51.720       253
51.740       360
51.760       250
51.780       320
51.800       330
51.820       283
51.840       330
51.860       280
51.880       350
51.900       320
51.920       360
51.940       323
51.960       287
51.980       343
52.000       273
52.020       273
52.040       303
52.060       290
52.080       300
52.100       317
52.120       330
52.140       283
52.160       373
52.180       320
52.200       353
52.220       293
52.240       270
52.260       377
52.280       317
52.300       267
52.320       327
52.340       333
52.360       353
52.380       310
52.400       360
52.420       300
52.440       283
52.460       303
52.480       313
52.500       280
52.520       263
52.540       317
52.560       360
52.580       317
52.600       327
52.620       270
52.640       273
52.660       337
52.680       270
52.700       307
52.720       270
52.740       300
52.760       340
52.780       367
52.800       310
52.820       293
52.840       287
52.860       357
52.880       340
52.900       277
52.920       313
52.940       343
52.960       263
52.980       380
53.000       310
53.020       343
53.040       426
53.060       347
53.080       350
53.100       373
53.120       340
53.140       347
53.160       333
53.180       340
53.200       387
53.220       343
53.240       333
53.260       400
53.280       443
53.300       393
53.320       363
53.340       397
53.360       483
53.380       390
53.400       456
53.420       450
53.440       423
53.460       430
53.480       543
53.500       463
53.520       500
53.540       583
53.560       430
53.580       523
53.600       536
53.620       580
53.640       573
53.660       506
53.680       536
53.700       526
53.720       613
53.740       540
53.760       493
53.780       543
53.800       560
53.820       466
53.840       593
53.860       453
53.880       440
53.900       500
53.920       443
53.940       480
53.960       463
53.980       433
54.000       480
54.020       420
54.040       470
54.060       403
54.080       353
54.100       420
54.120       397
54.140       363
54.160       387
54.180       436
54.200       373
54.220       303
54.240       280
54.260       353
54.280       373
54.300       340
54.320       310
54.340       330
54.360       343
54.380       350
54.400       300
54.420       353
54.440       310
54.460       267
54.480       357
54.500       330
54.520       320
54.540       277
54.560       340
54.580       340
54.600       360
54.620       347
54.640       347
54.660       363
54.680       350
54.700       300
54.720       287
54.740       343
54.760       337
54.780       330
54.800       347
54.820       307
54.840       317
54.860       307
54.880       350
54.900       297
54.920       327
54.940       313
54.960       370
54.980       337
55.000       307
55.020       360
55.040       290
55.060       263
55.080       327
55.100       370
55.120       297
55.140       293
55.160       350
55.180       330
55.200       370
55.220       317
55.240       287
55.260       330
55.280       300
55.300       293
55.320       257
55.340       373
55.360       293
55.380       250
55.400       257
55.420       240
55.440       320
55.460       307
55.480       280
55.500       253
55.520       330
55.540       293
55.560       293
55.580       303
55.600       333
55.620       330
55.640       267
55.660       283
55.680       360
55.700       287
55.720       377
55.740       307
55.760       317
55.780       260
55.800       350
55.820       260
55.840       273
55.860       277
55.880       267
55.900       313
55.920       317
55.940       327
55.960       260
55.980       297
56.000       277
56.020       310
56.040       340
56.060       307
56.080       303
56.100       330
56.120       287
56.140       310
56.160       320
56.180       330
56.200       340
56.220       380
56.240       310
56.260       380
56.280       270
56.300       250
56.320       353
56.340       320
56.360       300
56.380       280
56.400       320
56.420       310
56.440       303
56.460       310
56.480       350
56.500       357
56.520       320
56.540       320
56.560       323
56.580       287
56.600       410
56.620       313
56.640       370
56.660       360
56.680       380
56.700       317
56.720       280
56.740       320
56.760       320
56.780       297
56.800       287
56.820       363
56.840       357
56.860       320
56.880       257
56.900       320
56.920       333
56.940       283
56.960       313
56.980       446
57.000       383
57.020       303
57.040       283
57.060       343
57.080       313
57.100       313
57.120       420
57.140       320
57.160       380
57.180       340
57.200       367
57.220       393
57.240       237
57.260       287
57.280       350
57.300       297
57.320       307
57.340       323
57.360       323
57.380       343
57.400       313
57.420       337
57.440       317
57.460       337
57.480       303
57.500       327
57.520       277
57.540       303
57.560       293
57.580       290
57.600       287
57.620       303
57.640       333
57.660       287
57.680       327
57.700       287
57.720       283
57.740       367
57.760       320
57.780       297
57.800       270
57.820       290
57.840       240
57.860       263
57.880       283
57.900       280
57.920       323
57.940       327
57.960       300
57.980       313
58.000       300
58.020       313
58.040       300
58.060       270
58.080       337
58.100       307
58.120       267
58.140       287
58.160       297
58.180       273
58.200       290
58.220       277
58.240       257
58.260       240
58.280       283
58.300       277
58.320       333
58.340       340
58.360       290
58.380       300
58.400       243
58.420       310
58.440       277
58.460       220
58.480       203
58.500       277
58.520       293
58.540       307
58.560       287
58.580       337
58.600       253
58.620       273
58.640       303
58.660       237
58.680       260
58.700       243
58.720       283
58.740       273
58.760       317
58.780       250
58.800       270
58.820       277
58.840       293
58.860       293
58.880       223
58.900       293
58.920       327
58.940       303
58.960       243
58.980       290
59.000       257
59.020       290
59.040       273
59.060       260
59.080       290
59.100       320
59.120       277
59.140       337
59.160       293
59.180       250
59.200       303
59.220       307
59.240       300
59.260       270
59.280       283
59.300       293
59.320       277
59.340       307
59.360       283
59.380       353
59.400       300
59.420       260
59.440       293
59.460       283
59.480       303
59.500       297
59.520       313
59.540       317
59.560       290
59.580       283
59.600       300
59.620       260
59.640       277
59.660       267
59.680       327
59.700       323
59.720       240
59.740       287
59.760       297
59.780       263
59.800       240
59.820       307
59.840       253
59.860       350
59.880       280
59.900       247
59.920       283
59.940       277
59.960       257
59.980        47
60.000        47
