20.000        87
20.020        40
20.040        27
20.060        27
20.080        60
20.100        60
20.120        20
20.140        33
20.160        47
20.180        27
20.200        67
20.220        40
20.240        60
20.260        13
20.280        67
20.300        40
20.320        80
20.340        47
20.360        13
20.380        47
20.400        67
20.420        53
20.440        27
20.460        87
20.480        33
20.500        60
20.520        40
20.540        60
20.560        47
20.580        13
20.600        20
20.620        27
20.640        53
20.660        53
20.680        33
20.700        40
20.720        47
20.740        20
20.760        67
20.780        53
20.800        67
20.820        60
20.840        27
20.860        53
20.880        40
20.900        53
20.920        40
20.940        27
20.960        60
20.980        20
21.000        53
21.020        80
21.040        60
21.060        40
21.080        33
21.100        73
21.120        67
21.140        40
21.160        80
21.180        33
21.200        47
21.220        60
21.240        67
21.260        33
21.280        40
21.300        27
21.320        87
21.340        33
21.360        53
21.380        20
21.400        40
21.420        27
21.440        53
21.460        33
21.480        27
21.500        40
21.520        47
21.540        80
21.560        47
21.580        80
21.600        33
21.620        53
21.640        33
21.660        93
21.680        47
21.700        60
21.720        27
21.740        33
21.760        33
21.780        20
21.800        53
21.820        33
21.840        40
21.860        80
21.880        33
21.900         7
21.920        53
21.940        53
21.960        53
21.980        20
22.000        33
22.020        73
22.040        27
22.060        47
22.080        67
22.100        40
22.120        40
22.140        33
22.160         7
22.180        20
22.200        27
22.220        20
22.240        53
22.260        33
22.280        80
22.300        80
22.320        60
22.340        40
22.360        53
22.380        73
22.400        33
22.420        40
22.440        13
22.460        47
22.480        33
22.500        53
22.520        47
22.540        60
22.560        33
22.580        27
22.600        53
22.620        40
22.640        47
22.660        33
22.680        20
22.700        40
22.720        20
22.740        73
22.760        20
22.780        40
22.800        47
22.820        47
22.840        27
22.860        53
22.880        20
22.900        20
22.920        13
22.940        47
22.960        53
22.980        40
23.000        33
23.020        47
23.040        20
23.060        20
23.080        47
23.100        20
23.120        27
23.140        20
23.160        60
23.180        80
23.200        33
23.220        53
23.240        47
23.260        40
23.280        33
23.300        40
23.320        40
23.340        47
23.360        40
23.380        33
23.400        60
23.420        73
23.440        20
23.460        47
23.480        53
23.500        27
23.520        27
23.540        60
23.560        20
23.580        27
23.600        93
23.620        27
23.640        20
23.660        40
23.680        53
23.700        73
23.720        33
23.740        47
23.760        40
23.780        53
23.800        27
23.820        47
23.840        53
23.860        53
23.880        40
23.900         7
23.920        40
23.940        33
23.960        40
23.980        40
24.000        13
24.020        13
24.040        13
24.060        27
24.080        47
24.100        40
24.120        47
24.140        27
24.160        53
24.180        20
24.200        27
24.220        47
24.240        20
24.260        20
24.280        13
24.300        47
24.320        47
24.340        27
24.360        13
24.380        20
24.400        27
24.420        20
24.440        27
24.460         7
24.480        33
24.500        27
24.520        40
24.540        27
24.560        40
24.580        60
24.600        40
24.620        67
24.640        60
24.660        47
24.680        33
24.700        33
24.720        40
24.740        40
24.760        67
24.780        53
24.800        93
24.820        67
24.840        47
24.860        47
24.880        67
24.900        53
24.920        27
24.940        67
24.960        33
24.980        53
25.000        33
25.020        33
25.040        20
25.060        27
25.080        60
25.100        47
25.120        27
25.140        47
25.160        53
25.180        27
25.200        60
25.220        40
25.240        40
25.260        40
25.280        33
25.300        20
25.320        20
25.340        47
25.360        27
25.380        53
25.400        20
25.420        40
25.440        20
25.460        40
25.480        40
25.500        27
25.520        20
25.540        40
25.560        60
25.580        47
25.600        27
25.620        20
25.640        13
25.660        33
25.680        20
25.700        33
25.720        47
25.740        53
25.760         0
25.780        47
25.800        33
25.820        13
25.840        60
25.860        13
25.880        47
25.900        13
25.920        27
25.940        33
25.960        13
25.980        20
26.000        40
26.020         0
26.040        53
26.060        40
26.080        20
26.100        40
26.120        27
26.140        53
26.160        33
26.180        53
26.200        33
26.220        20
26.240        67
26.260        33
26.280        20
26.300        13
26.320        13
26.340         7
26.360        20
26.380        20
26.400        13
26.420        40
26.440        20
26.460        40
26.480        27
26.500        20
26.520        33
26.540        20
26.560        87
26.580        33
26.600        27
26.620        33
26.640        33
26.660        47
26.680        53
26.700        53
26.720        27
26.740        60
26.760        27
26.780        33
26.800        60
26.820        53
26.840        47
26.860        33
26.880         7
26.900        33
26.920        27
26.940        53
26.960         7
26.980        40
27.000        47
27.020         0
27.040        13
27.060         7
27.080        27
27.100        13
27.120        40
27.140        27
27.160        20
27.180        13
27.200        13
27.220        47
27.240        33
27.260        20
27.280        33
27.300         7
27.320        27
27.340        13
27.360        33
27.380        47
27.400        13
27.420        53
27.440        60
27.460        13
27.480        20
27.500        20
27.520        27
27.540        27
27.560        13
27.580        47
27.600        27
27.620        40
27.640        27
27.660        20
27.680        27
27.700         7
27.720        13
27.740        27
27.760        20
27.780        40
27.800        13
27.820        27
27.840        27
27.860        20
27.880        33
27.900        27
27.920        20
27.940        13
27.960        20
27.980        27
28.000        27
28.020        20
28.040         7
28.060        33
28.080        27
28.100        27
28.120         7
28.140        40
28.160         7
28.180        33
28.200        53
28.220        47
28.240         7
28.260        20
28.280        13
28.300        13
28.320        13
28.340        20
28.360        13
28.380        27
28.400        13
28.420        33
28.440        47
28.460        20
28.480        20
28.500        47
28.520        20
28.540        27
28.560        47
28.580        33
28.600        40
28.620         7
28.640        47
28.660        20
28.680        20
28.700        47
28.720        20
28.740        13
28.760        20
28.780        13
28.800        40
28.820        20
28.840        27
28.860        40
28.880        27
28.900        40
28.920        27
28.940        27
28.960        33
28.980        27
29.000        53
29.020        27
29.040        13
29.060        67
29.080        13
29.100        33
29.120        13
29.140        20
29.160        40
29.180        53
29.200        33
29.220        87
29.240        60
29.260        73
29.280        53
29.300        53
29.320        60
29.340        47
29.360       147
29.380        87
29.400       107
29.420        47
29.440        87
29.460        60
29.480        33
29.500        20
29.520        47
29.540        13
29.560        20
29.580         7
29.600        13
29.620        27
29.640        27
29.660         0
29.680        33
29.700        13
29.720        27
29.740        20
29.760        40
29.780        27
29.800        27
29.820        40
29.840        20
29.860        27
29.880        33
29.900        33
29.920        20
29.940        20
29.960        13
29.980        33
30.000        40
30.020        13
30.040        20
30.060        47
30.080        20
30.100        60
30.120        40
30.140        27
30.160         7
30.180         0
30.200        33
30.220        20
30.240         7
30.260        40
30.280         7
30.300        27
30.320         0
30.340        20
30.360        47
30.380        20
30.400        40
30.420        13
30.440        33
30.460        40
30.480        27
30.500         7
30.520        20
30.540        27
30.560        27
30.580         7
30.600        20
30.620        33
30.640        33
30.660        27
30.680        20
30.700        27
30.720         7
30.740        27
30.760         7
30.780         0
30.800        13
30.820        47
30.840        47
30.860        20
30.880        13
30.900        20
30.920         0
30.940        27
30.960        20
30.980        20
31.000         7
31.020        13
31.040        33
31.060        27
31.080        27
31.100        27
31.120        20
31.140        13
31.160         7
31.180        27
31.200        40
31.220        20
31.240        13
31.260        20
31.280        33
31.300        33
31.320         0
31.340        13
31.360        40
31.380        47
31.400        33
31.420        27
31.440        27
31.460         7
31.480        20
31.500        27
31.520        40
31.540        13
31.560        40
31.580         7
31.600        40
31.620        20
31.640        40
31.660        13
31.680        33
31.700        27
31.720         7
31.740        20
31.760         7
31.780        47
31.800        27
31.820        53
31.840        53
31.860        33
31.880        47
31.900        33
31.920        47
31.940        47
31.960        27
31.980        20
32.000        33
32.020        27
32.040        40
32.060        80
32.080       113
32.100        33
32.120        33
32.140        93
32.160        27
32.180        13
32.200        53
32.220        40
32.240        27
32.260        40
32.280        33
32.300         7
32.320        13
32.340        47
32.360        20
32.380        53
32.400        33
32.420        80
32.440        47
32.460        47
32.480        60
32.500        53
32.520        87
32.540        67
32.560        60
32.580        73
32.600       100
32.620        67
32.640       120
32.660        40
32.680        53
32.700        80
32.720        47
32.740        47
32.760        80
32.780        53
32.800        60
32.820        53
32.840        20
32.860        33
32.880        40
32.900        33
32.920        27
32.940        33
32.960        20
32.980        27
33.000        27
33.020        27
33.040        53
33.060        87
33.080        13
33.100        53
33.120        27
33.140        20
33.160        20
33.180        40
33.200        27
33.220         7
33.240        27
33.260        33
33.280        27
33.300        33
33.320        47
33.340        27
33.360        33
33.380        27
33.400        33
33.420        13
33.440        40
33.460         0
33.480        13
33.500        53
33.520        40
33.540        47
33.560        53
33.580        33
33.600        60
33.620        33
33.640        33
33.660        60
33.680        47
33.700        20
33.720        27
33.740        47
33.760        27
33.780        20
33.800        13
33.820        40
33.840        53
33.860        67
33.880        27
33.900        27
33.920        27
33.940        13
33.960        27
33.980        13
34.000        40
34.020        20
34.040        33
34.060         7
34.080        40
34.100        20
34.120        33
34.140        40
34.160        27
34.180        40
34.200        13
34.220        47
34.240        33
34.260        53
34.280        33
34.300        47
34.320        67
34.340        53
34.360        67
34.380        47
34.400        27
34.420        73
34.440        80
34.460        47
34.480        53
34.500        60
34.520        80
34.540        53
34.560        60
34.580        87
34.600       100
34.620        67
34.640        87
34.660        73
34.680        67
34.700        73
34.720        93
34.740        73
34.760        93
34.780       100
34.800        87
34.820       113
34.840        73
34.860        33
34.880        73
34.900       100
34.920       153
34.940        67
34.960       133
34.980        87
35.000       100
35.020       120
35.040        60
35.060       113
35.080       100
35.100       107
35.120       173
35.140       120
35.160       120
35.180       200
35.200       140
35.220       140
35.240       233
35.260       313
35.280       426
35.300       820
35.320      1339
35.340      1959
35.360      2772
35.380      3745
35.400      4631
35.420      5385
35.440      5664
35.460      5558
35.480      5424
35.500      4545
35.520      4805
35.540      4825
35.560      4911
35.580      6124
35.600      7377
35.620      8083
35.640      7777
35.660      7204
35.680      5438
35.700      5078
35.720      4358
35.740      4138
35.760      2519
35.780      1613
35.800       853
35.820       740
35.840       533
35.860       426
35.880       407
35.900       273
35.920       267
35.940       273
35.960       220
35.980       240
36.000       167
36.020       133
36.040       147
36.060       107
36.080       200
36.100       147
36.120       107
36.140        80
36.160       133
36.180       113
36.200        93
36.220       153
36.240        67
36.260       107
36.280        53
36.300        80
36.320        80
36.340       100
36.360        80
36.380       107
36.400        93
36.420        73
36.440        93
36.460        47
36.480       127
36.500        73
36.520       113
36.540        80
36.560        87
36.580        93
36.600       100
36.620        93
36.640        47
36.660        47
36.680        80
36.700        87
36.720        40
36.740        93
36.760        80
36.780        40
36.800        47
36.820        67
36.840        60
36.860        80
36.880       120
36.900        67
36.920        80
36.940        73
36.960        73
36.980        53
37.000        80
37.020        53
37.040        60
37.060        67
37.080        73
37.100        20
37.120        40
37.140        60
37.160        60
37.180        67
37.200        93
37.220        87
37.240        40
37.260        67
37.280        80
37.300        47
37.320        80
37.340       100
37.360        60
37.380        67
37.400        60
37.420        60
37.440        80
37.460        73
37.480       107
37.500        53
37.520        93
37.540        73
37.560        80
37.580        47
37.600        87
37.620        27
37.640        67
37.660        60
37.680        60
37.700        80
37.720        93
37.740        87
37.760        20
37.780        87
37.800        67
37.820        60
37.840        67
37.860        93
37.880        80
37.900        67
37.920        73
37.940        40
37.960        60
37.980        67
38.000        27
38.020        93
38.040        53
38.060        73
38.080        60
38.100       100
38.120        60
38.140        53
38.160        73
38.180        33
38.200        53
38.220        73
38.240        87
38.260        33
38.280        67
38.300        87
38.320        73
38.340        67
38.360        67
38.380       100
38.400        80
38.420        60
38.440        47
38.460        53
38.480        67
38.500        80
38.520        93
38.540        40
38.560        60
38.580        87
38.600        73
38.620        73
38.640        60
38.660        67
38.680        60
38.700        67
38.720        73
38.740        33
38.760        47
38.780        73
38.800        20
38.820        60
38.840        60
38.860        47
38.880        47
38.900        27
38.920        73
38.940        87
38.960        80
38.980        87
39.000        53
39.020        47
39.040        93
39.060        80
39.080        40
39.100        67
39.120        80
39.140        73
39.160        53
39.180        40
39.200        47
39.220        93
39.240        73
39.260        73
39.280        73
39.300       107
39.320        60
39.340        73
39.360        80
39.380        67
39.400        80
39.420        80
39.440        47
39.460        93
39.480        53
39.500       100
39.520        47
39.540        80
39.560        67
39.580        47
39.600        67
39.620        93
39.640        53
39.660        47
39.680        40
39.700        60
39.720        53
39.740       113
39.760        40
39.780        60
39.800        60
39.820        60
39.840        87
39.860        93
39.880        40
39.900        80
39.920        53
39.940        87
39.960        60
39.980       107
40.000        80
40.020        33
40.040        27
40.060        80
40.080        47
40.100        33
40.120        60
40.140        60
40.160        93
40.180        80
40.200        73
40.220        73
40.240        53
40.260        80
40.280        67
40.300        53
40.320        60
40.340        40
40.360        27
40.380        60
40.400       100
40.420       120
40.440        80
40.460        60
40.480       113
40.500        67
40.520        67
40.540        60
40.560        47
40.580        67
40.600        40
40.620        87
40.640        40
40.660        80
40.680        67
40.700        67
40.720        53
40.740        40
40.760        80
40.780        73
40.800        73
40.820        87
40.840        60
40.860        47
40.880        80
40.900        53
40.920       133
40.940        53
40.960        47
40.980        73
41.000        67
41.020        93
41.040        47
41.060        53
41.080        80
41.100        73
41.120        93
41.140        60
41.160        53
41.180        40
41.200        80
41.220        47
41.240        67
41.260        67
41.280        87
41.300        53
41.320        60
41.340        40
41.360       107
41.380        40
41.400        60
41.420        93
41.440        93
41.460        33
41.480        67
41.500        47
41.520        67
41.540        40
41.560        67
41.580        67
41.600       100
41.620        60
41.640        53
41.660        67
41.680        80
41.700        47
41.720        87
41.740        87
41.760        93
41.780        80
41.800        47
41.820        60
41.840        60
41.860        60
41.880       113
41.900        67
41.920        80
41.940       113
41.960        73
41.980        73
42.000        60
42.020        87
42.040        73
42.060        47
42.080        27
42.100       113
42.120        80
42.140        67
42.160        47
42.180        73
42.200       100
42.220       107
42.240       120
42.260        60
42.280       133
42.300        53
42.320        60
42.340       100
42.360        93
42.380        67
42.400        47
42.420        53
42.440        93
42.460        67
42.480        67
42.500        93
42.520       100
42.540       120
42.560        87
42.580        93
42.600        87
42.620       140
42.640        73
42.660       113
42.680        93
42.700       100
42.720        67
42.740        80
42.760        80
42.780       107
42.800       120
42.820       173
42.840        67
42.860        67
42.880       127
42.900       100
42.920       127
42.940        53
42.960       127
42.980       107
43.000       127
43.020       100
43.040       107
43.060       140
43.080        33
43.100       107
43.120       127
43.140        60
43.160       100
43.180        80
43.200       120
43.220       113
43.240       113
43.260       120
43.280       120
43.300        60
43.320       100
43.340        67
43.360        67
43.380        87
43.400        93
43.420        87
43.440        53
43.460        60
43.480       127
43.500        60
43.520       140
43.540        67
43.560       113
43.580        93
43.600        67
43.620        60
43.640        93
43.660        47
43.680       127
43.700        80
43.720        93
43.740        53
43.760       100
43.780        80
43.800        73
43.820       120
43.840       133
43.860       127
43.880        87
43.900       100
43.920        93
43.940        93
43.960       120
43.980        80
44.000        93
44.020        60
44.040       107
44.060       133
44.080       107
44.100       113
44.120       100
44.140       133
44.160        93
44.180        93
44.200       140
44.220        73
44.240       113
44.260       153
44.280        93
44.300       113
44.320        67
44.340       107
44.360       100
44.380       127
44.400        80
44.420       120
44.440       140
44.460        93
44.480       100
44.500       120
44.520       107
44.540       153
44.560       140
44.580       120
44.600       133
44.620        80
44.640        93
44.660       160
44.680       100
44.700        73
44.720       107
44.740        93
44.760       100
44.780        73
44.800       147
44.820       140
44.840       133
44.860       113
44.880        93
44.900       120
44.920       133
44.940       133
44.960       160
44.980        67
45.000       160
45.020        67
45.040       100
45.060       113
45.080       133
45.100       127
45.120        67
45.140       107
45.160        87
45.180       160
45.200       107
45.220        73
45.240        67
45.260        40
45.280       127
45.300       133
45.320       107
45.340       100
45.360       120
45.380        87
45.400       100
45.420       113
45.440       113
45.460        87
45.480        80
45.500        87
45.520       100
45.540       127
45.560       140
45.580       127
45.600        60
45.620       140
45.640        87
45.660        67
45.680       107
45.700       120
45.720       127
45.740        93
45.760        93
45.780       180
45.800       133
45.820       120
45.840        87
45.860       147
45.880        80
45.900       127
45.920        93
45.940       100
45.960       127
45.980       107
46.000        80
46.020       140
46.040       127
46.060       113
46.080        93
46.100       120
46.120       113
46.140       167
46.160        80
46.180       173
46.200       107
46.220       120
46.240       100
46.260       113
46.280       153
46.300       113
46.320       113
46.340       133
46.360        73
46.380        80
46.400       120
46.420       160
46.440       133
46.460        53
46.480       113
46.500       113
46.520       113
46.540       153
46.560       147
46.580        87
46.600       100
46.620       107
46.640       153
46.660        93
46.680        87
46.700        87
46.720       113
46.740        93
46.760       133
46.780       113
46.800       113
46.820        80
46.840       140
46.860       133
46.880       127
46.900       147
46.920       140
46.940       153
46.960       140
46.980       120
47.000       120
47.020       160
47.040       120
47.060        93
47.080        93
47.100       187
47.120       180
47.140       153
47.160       147
47.180       127
47.200       127
47.220       167
47.240       160
47.260       153
47.280       113
47.300       127
47.320       107
47.340       147
47.360        60
47.380       120
47.400       107
47.420       153
47.440       167
47.460       100
47.480       147
47.500       127
47.520       120
47.540        73
47.560       173
47.580       167
47.600       140
47.620       160
47.640       147
47.660       200
47.680       113
47.700        87
47.720       107
47.740       147
47.760       100
47.780        73
47.800       147
47.820       147
47.840       220
47.860       140
47.880        93
47.900       133
47.920       193
47.940       120
47.960       100
47.980       153
48.000       107
48.020       133
48.040        93
48.060        67
48.080       147
48.100       153
48.120       160
48.140       120
48.160       147
48.180       133
48.200       113
48.220       187
48.240       140
48.260       133
48.280       193
48.300       120
48.320       147
48.340       133
48.360       113
48.380       160
48.400       153
48.420       127
48.440       213
48.460       153
48.480       127
48.500       113
48.520       113
48.540        93
48.560       140
48.580       147
48.600       113
48.620       100
48.640       200
48.660       180
48.680       147
48.700       107
48.720       140
48.740       160
48.760       227
48.780       120
48.800       127
48.820        67
48.840       160
48.860       153
48.880       120
48.900       113
48.920       153
48.940       140
48.960       147
48.980       107
49.000       133
49.020       147
49.040       153
49.060        87
49.080       113
49.100       113
49.120       100
49.140        87
49.160        80
49.180       160
49.200       127
49.220       120
49.240       173
49.260       167
49.280       187
49.300        60
49.320       113
49.340       127
49.360        93
49.380       107
49.400       127
49.420       120
49.440       100
49.460       147
49.480       140
49.500        87
49.520       120
49.540       140
49.560       133
49.580       133
49.600       113
49.620        93
49.640       100
49.660       147
49.680       127
49.700       127
49.720       160
49.740       113
49.760       120
49.780       133
49.800       113
49.820       127
49.840       120
49.860       140
49.880       147
49.900       113
49.920       173
49.940       133
49.960       147
49.980       127
50.000       120
50.020        93
50.040       127
50.060       147
50.080       133
50.100       173
50.120       107
50.140       147
50.160       180
50.180       147
50.200       133
50.220       153
50.240       100
50.260       153
50.280       133
50.300       113
50.320        67
50.340       160
50.360       120
50.380       147
50.400       113
50.420       133
50.440       127
50.460       107
50.480       127
50.500       140
50.520        87
50.540       113
50.560       127
50.580        73
50.600        67
50.620       127
50.640       120
50.660       100
50.680       107
50.700       107
50.720       100
50.740       127
50.760       120
50.780       153
50.800       133
50.820       113
50.840       120
50.860        53
50.880       133
50.900       133
50.920       127
50.940       133
50.960       147
50.980       120
51.000       133
51.020       187
51.040        87
51.060        80
51.080       140
51.100       107
51.120       167
51.140       113
51.160       120
51.180       140
51.200       113
51.220        93
51.240       100
51.260       107
51.280       100
51.300       133
51.320       127
51.340       113
51.360       127
51.380       100
51.400       100
51.420       100
51.440       147
51.460       120
51.480       113
51.500       127
51.520       147
51.540       147
51.560       127
51.580       127
51.600       127
51.620       107
51.640       193
51.660       140
51.680       133
51.700       147
51.720       133
51.740       147
51.760        93
51.780       113
51.800        80
51.820       107
51.840        73
51.860       147
51.880       100
51.900       147
51.920       147
51.940       140
51.960       100
51.980       160
52.000       107
52.020       127
52.040       127
52.060       120
52.080       167
52.100        87
52.120       120
52.140       207
52.160       133
52.180       120
52.200       160
52.220       153
52.240       120
52.260       173
52.280        47
52.300        93
52.320       120
52.340       107
52.360       100
52.380       147
52.400       127
52.420       133
52.440       107
52.460       153
52.480       140
52.500       107
52.520       107
52.540       120
52.560       120
52.580       173
52.600       140
52.620       153
52.640       167
52.660       200
52.680       140
52.700        67
52.720       133
52.740        80
52.760       113
52.780       107
52.800       140
52.820       133
52.840       107
52.860       147
52.880       140
52.900       127
52.920       140
52.940       127
52.960       180
52.980       153
53.000       153
53.020        93
53.040       133
53.060       113
53.080       147
53.100       133
53.120       167
53.140       133
53.160       173
53.180       167
53.200       140
53.220       147
53.240       140
53.260       133
53.280       160
53.300       107
53.320       113
53.340       107
53.360       147
53.380       160
53.400       140
53.420       140
53.440       120
53.460       113
53.480       173
53.500        87
53.520       180
53.540       140
53.560       133
53.580       107
53.600       147
53.620       113
53.640       140
53.660       213
53.680       187
53.700        93
53.720       107
53.740       147
53.760       133
53.780       140
53.800       127
53.820       127
53.840       160
53.860        87
53.880        93
53.900       140
53.920       153
53.940       160
53.960       100
53.980       167
54.000       107
54.020        93
54.040       180
54.060       153
54.080       113
54.100       140
54.120       133
54.140        80
54.160       160
54.180       113
54.200        93
54.220       167
54.240       153
54.260        80
54.280       180
54.300       120
54.320       113
54.340       107
54.360       160
54.380       147
54.400       107
54.420        73
54.440       160
54.460       107
54.480       100
54.500       107
54.520       167
54.540       100
54.560       127
54.580       113
54.600       120
54.620       220
54.640       167
54.660       113
54.680       133
54.700       133
54.720       147
54.740       167
54.760       147
54.780       187
54.800       153
54.820       107
54.840        60
54.860       180
54.880       167
54.900       173
54.920       173
54.940       160
54.960       133
54.980        87
55.000       133
55.020       100
55.040       193
55.060       140
55.080       127
55.100       127
55.120       140
55.140       160
55.160       100
55.180       113
55.200       127
55.220       127
55.240       133
55.260       187
55.280       120
55.300       100
55.320       120
55.340       120
55.360       113
55.380        80
55.400       127
55.420       180
55.440       167
55.460       107
55.480       147
55.500       113
55.520       167
55.540       140
55.560        87
55.580        80
55.600       100
55.620        87
55.640       173
55.660       100
55.680       127
55.700       140
55.720       160
55.740        93
55.760       113
55.780       140
55.800       127
55.820       120
55.840       147
55.860       113
55.880       133
55.900       140
55.920       127
55.940       113
55.960       120
55.980       173
56.000       120
56.020       120
56.040       147
56.060       113
56.080       127
56.100        80
56.120       147
56.140       107
56.160       153
56.180       167
56.200       133
56.220        80
56.240       127
56.260       100
56.280       147
56.300       127
56.320       173
56.340       133
56.360       147
56.380       120
56.400       147
56.420        87
56.440       187
56.460       140
56.480       147
56.500        87
56.520       180
56.540       160
56.560       140
56.580       147
56.600       107
56.620        93
56.640       133
56.660       133
56.680       167
56.700       120
56.720       127
56.740       153
56.760       200
56.780       160
56.800       113
56.820       133
56.840       153
56.860       107
56.880        93
56.900       100
56.920       113
56.940       107
56.960       160
56.980       127
57.000       133
57.020       113
57.040       153
57.060       120
57.080       160
57.100        73
57.120       113
57.140       153
57.160       153
57.180       193
57.200       133
57.220       127
57.240       160
57.260       147
57.280       113
57.300       120
57.320       167
57.340       187
57.360       147
57.380       100
57.400       120
57.420       120
57.440       120
57.460        80
57.480       127
57.500       133
57.520       187
57.540       187
57.560       140
57.580       167
57.600       127
57.620        87
57.640       153
57.660        93
57.680       160
57.700       107
57.720       160
57.740       140
57.760       133
57.780       133
57.800       160
57.820       140
57.840        80
57.860       107
57.880       127
57.900       167
57.920       113
57.940       113
57.960       180
57.980       113
58.000       113
58.020       120
58.040       147
58.060       133
58.080       227
58.100       160
58.120       113
58.140        93
58.160       100
58.180       160
58.200       127
58.220       113
58.240       107
58.260       113
58.280       133
58.300       140
58.320       127
58.340       133
58.360       113
58.380       153
58.400       140
58.420       153
58.440       113
58.460       167
58.480       127
58.500       127
58.520       107
58.540       167
58.560       100
58.580       140
58.600       113
58.620       173
58.640       113
58.660       120
58.680       113
58.700       127
58.720       140
58.740       113
58.760       127
58.780        93
58.800       107
58.820       127
58.840       140
58.860       167
58.880       147
58.900       160
58.920       100
58.940       100
58.960       100
58.980       153
59.000       133
59.020       120
59.040       187
59.060       120
59.080       160
59.100        87
59.120       133
59.140       107
59.160       113
59.180       140
59.200       113
59.220       120
59.240       113
59.260        80
59.280        87
59.300       193
59.320       120
59.340       167
59.360        93
59.380       107
59.400        67
59.420         0
59.440         0
59.460         0
59.480         0
59.500         0
59.520         0
59.540         0
59.560         0
59.580         0
59.600         0
59.620         0
59.640         0
59.660         0
59.680         0
59.700         0
59.720         0
59.740         0
59.760         0
59.780         0
59.800         0
59.820         0
59.840         0
59.860         0
59.880         0
59.900         0
59.920         0
59.940         0
59.960         0
59.980         0
60.000         0
