20.000         0
20.020         0
20.040         0
20.060         0
20.080         0
20.100         0
20.120         0
20.140         0
20.160         0
20.180         0
20.200         0
20.220         0
20.240         3
20.260         0
20.280         0
20.300         0
20.320         0
20.340         0
20.360       543
20.380       600
20.400       656
20.420       656
20.440       576
20.460       646
20.480       580
20.500       646
20.520       676
20.540       756
20.560       623
20.580       643
20.600       660
20.620       683
20.640       653
20.660       606
20.680       770
20.700       603
20.720       600
20.740       633
20.760       676
20.780       613
20.800       676
20.820       623
20.840       690
20.860       776
20.880       716
20.900       663
20.920       716
20.940       586
20.960       696
20.980       633
21.000       646
21.020       693
21.040       763
21.060       676
21.080       733
21.100       763
21.120       633
21.140       640
21.160       700
21.180       716
21.200       666
21.220       683
21.240       650
21.260       656
21.280       640
21.300       616
21.320       603
21.340       703
21.360       620
21.380       556
21.400       610
21.420       626
21.440       690
21.460       573
21.480       610
21.500       556
21.520       593
21.540       560
21.560       586
21.580       673
21.600       593
21.620       593
21.640       616
21.660       526
21.680       543
21.700       630
21.720       580
21.740       543
21.760       593
21.780       560
21.800       656
21.820       580
21.840       553
21.860       526
21.880       600
21.900       616
21.920       570
21.940       560
21.960       550
21.980       590
22.000       616
22.020       576
22.040       623
22.060       450
22.080       560
22.100       563
22.120       486
22.140       580
22.160       536
22.180       600
22.200       560
22.220       556
22.240       583
22.260       510
22.280       556
22.300       520
22.320       500
22.340       566
22.360       533
22.380       610
22.400       553
22.420       530
22.440       580
22.460       553
22.480       540
22.500       556
22.520       496
22.540       580
22.560       590
22.580       546
22.600       426
22.620       456
22.640       533
22.660       573
22.680       470
22.700       556
22.720       466
22.740       503
22.760       463
22.780       533
22.800       483
22.820       533
22.840       556
22.860       610
22.880       536
22.900       543
22.920       440
22.940       593
22.960       450
22.980       476
23.000       500
23.020       546
23.040       570
23.060       526
23.080       536
23.100       526
23.120       506
23.140       606
23.160       523
23.180       506
23.200       460
23.220       540
23.240       490
23.260       556
23.280       516
23.300       450
23.320       500
23.340       573
23.360       460
23.380       500
23.400       490
23.420       480
23.440       523
23.460       483
23.480       503
23.500       460
23.520       516
23.540       433
23.560       453
23.580       436
23.600       463
23.620       473
23.640       480
23.660       503
23.680       423
23.700       513
23.720       546
23.740       443
23.760       446
23.780       410
23.800       480
23.820       463
23.840       463
23.860       483
23.880       473
23.900       493
23.920       496
23.940       500
23.960       506
23.980       407
24.000       453
24.020       446
24.040       456
24.060       373
24.080       426
24.100       413
24.120       510
24.140       496
24.160       460
24.180       466
24.200       417
24.220       446
24.240       503
24.260       573
24.280       460
24.300       486
24.320       520
24.340       420
24.360       506
24.380       496
24.400       443
24.420       516
24.440       530
24.460       503
24.480       407
24.500       413
24.520       523
24.540       403
24.560       473
24.580       493
24.600       436
24.620       433
24.640       473
24.660       460
24.680       463
24.700       433
24.720       443
24.740       530
24.760       463
24.780       466
24.800       486
24.820       410
24.840       473
24.860       426
24.880       443
24.900       443
24.920       417
24.940       430
24.960       460
24.980       520
25.000       410
25.020       430
25.040       426
25.060       413
25.080       403
25.100       370
25.120       470
25.140       480
25.160       446
25.180       513
25.200       407
25.220       443
25.240       413
25.260       353
25.280       397
25.300       413
25.320       480
25.340       400
25.360       380
25.380       420
25.400       403
25.420       413
25.440       423
25.460       383
25.480       453
25.500       387
25.520       440
25.540       420
25.560       453
25.580       373
25.600       413
25.620       377
25.640       410
25.660       433
25.680       357
25.700       456
25.720       430
25.740       330
25.760       397
25.780       440
25.800       450
25.820       516
25.840       373
25.860       503
25.880       440
25.900       380
25.920       436
25.940       333
25.960       423
25.980       440
26.000       330
26.020       456
26.040       426
26.060       433
26.080       470
26.100       500
26.120       470
26.140       420
26.160       436
26.180       430
26.200       483
26.220       470
26.240       393
26.260       397
26.280       353
26.300       423
26.320       423
26.340       393
26.360       470
26.380       377
26.400       440
26.420       430
26.440       400
26.460       400
26.480       413
26.500       470
26.520       417
26.540       400
26.560       436
26.580       403
26.600       397
26.620       330
26.640       407
26.660       367
26.680       397
26.700       456
26.720       360
26.740       420
26.760       383
26.780       446
26.800       456
26.820       410
26.840       423
26.860       410
26.880       466
26.900       423
26.920       413
26.940       327
26.960       426
26.980       417
27.000       380
27.020       470
27.040       357
27.060       403
27.080       370
27.100       456
27.120       330
27.140       343
27.160       420
27.180       410
27.200       400
27.220       357
27.240       456
27.260       360
27.280       410
27.300       373
27.320       397
27.340       370
27.360       403
27.380       297
27.400       430
27.420       440
27.440       426
27.460       320
27.480       413
27.500       397
27.520       456
27.540       363
27.560       390
27.580       383
27.600       370
27.620       353
27.640       387
27.660       387
27.680       420
27.700       390
27.720       377
27.740       360
27.760       370
27.780       417
27.800       377
27.820       380
27.840       397
27.860       436
27.880       380
27.900       453
27.920       413
27.940       350
27.960       400
27.980       397
28.000       413
28.020       377
28.040       330
28.060       410
28.080       360
28.100       350
28.120       407
28.140       393
28.160       347
28.180       357
28.200       323
28.220       323
28.240       363
28.260       380
28.280       383
28.300       367
28.320       393
28.340       377
28.360       410
28.380       403
28.400       390
28.420       407
28.440       333
28.460       353
28.480       390
28.500       430
28.520       413
28.540       393
28.560       410
28.580       420
28.600       436
28.620       403
28.640       340
28.660       390
28.680       380
28.700       453
28.720       387
28.740       413
28.760       387
28.780       426
28.800       526
28.820       533
28.840       516
28.860       407
28.880       506
28.900       417
28.920       456
28.940       426
28.960       443
28.980       466
29.000       463
29.020       520
29.040       506
29.060       473
29.080       573
29.100       576
29.120       563
29.140       520
29.160       586
29.180       513
29.200       540
29.220       453
29.240       610
29.260       456
29.280       503
29.300       440
29.320       407
29.340       440
29.360       367
29.380       357
29.400       380
29.420       387
29.440       380
29.460       393
29.480       430
29.500       397
29.520       420
29.540       373
29.560       390
29.580       373
29.600       383
29.620       430
29.640       413
29.660       436
29.680       403
29.700       476
29.720       440
29.740       486
29.760       483
29.780       473
29.800       573
29.820       533
29.840       476
29.860       570
29.880       670
29.900       680
29.920       586
29.940       583
29.960       670
29.980       680
30.000       713
30.020       700
30.040       780
30.060       786
30.080       710
30.100       713
30.120       713
30.140       730
30.160       693
30.180       686
30.200       630
30.220       573
30.240       596
30.260       593
30.280       516
30.300       510
30.320       490
30.340       440
30.360       470
30.380       380
30.400       410
30.420       443
30.440       387
30.460       370
30.480       456
30.500       426
30.520       413
30.540       380
30.560       410
30.580       420
30.600       413
30.620       423
30.640       390
30.660       307
30.680       390
30.700       420
30.720       367
30.740       330
30.760       373
30.780       360
30.800       367
30.820       390
30.840       400
30.860       370
30.880       403
30.900       330
30.920       410
30.940       403
30.960       377
30.980       360
31.000       333
31.020       343
31.040       313
31.060       377
31.080       377
31.100       323
31.120       363
31.140       377
31.160       340
31.180       380
31.200       377
31.220       300
31.240       413
31.260       380
31.280       393
31.300       373
31.320       333
31.340       327
31.360       383
31.380       347
31.400       380
31.420       373
31.440       360
31.460       337
31.480       377
31.500       357
31.520       353
31.540       407
31.560       397
31.580       350
31.600       317
31.620       317
31.640       327
31.660       357
31.680       360
31.700       317
31.720       377
31.740       370
31.760       360
31.780       340
31.800       363
31.820       353
31.840       400
31.860       436
31.880       343
31.900       353
31.920       343
31.940       363
31.960       423
31.980       317
32.000       353
32.020       390
32.040       423
32.060       360
32.080       343
32.100       453
32.120       353
32.140       383
32.160       400
32.180       383
32.200       357
32.220       360
32.240       423
32.260       357
32.280       297
32.300       327
32.320       377
32.340       353
32.360       343
32.380       340
32.400       410
32.420       383
32.440       353
32.460       333
32.480       387
32.500       320
32.520       436
32.540       393
32.560       373
32.580       383
32.600       320
32.620       337
32.640       323
32.660       310
32.680       373
32.700       370
32.720       347
32.740       327
32.760       367
32.780       353
32.800       377
32.820       387
32.840       353
32.860       400
32.880       300
32.900       333
32.920       320
32.940       273
32.960       373
32.980       347
33.000       400
33.020       323
33.040       397
33.060       317
33.080       320
33.100       343
33.120       363
33.140       337
33.160       327
33.180       413
33.200       317
33.220       387
33.240       300
33.260       360
33.280       370
33.300       370
33.320       360
33.340       357
33.360       350
33.380       343
33.400       357
33.420       320
33.440       340
33.460       353
33.480       313
33.500       360
33.520       370
33.540       343
33.560       350
33.580       400
33.600       280
33.620       377
33.640       420
33.660       293
33.680       417
33.700       310
33.720       410
33.740       363
33.760       347
33.780       387
33.800       313
33.820       380
33.840       303
33.860       290
33.880       300
33.900       466
33.920       377
33.940       313
33.960       307
33.980       377
34.000       373
34.020       397
34.040       363
34.060       426
34.080       390
34.100       367
34.120       367
34.140       353
34.160       373
34.180       340
34.200       353
34.220       350
34.240       360
34.260       333
34.280       393
34.300       370
34.320       380
34.340       417
34.360       387
34.380       413
34.400       403
34.420       357
34.440       383
34.460       377
34.480       370
34.500       390
34.520       373
34.540       466
34.560       360
34.580       426
34.600       353
34.620       446
34.640       436
34.660       383
34.680       413
34.700       357
34.720       343
34.740       383
34.760       476
34.780       436
34.800       430
34.820       470
34.840       420
34.860       403
34.880       423
34.900       436
34.920       433
34.940       436
34.960       453
34.980       426
35.000       446
35.020       503
35.040       370
35.060       460
35.080       570
35.100       473
35.120       503
35.140       583
35.160       523
35.180       563
35.200       563
35.220       590
35.240       600
35.260       623
35.280       740
35.300       713
35.320       873
35.340       876
35.360       973
35.380      1100
35.400      1156
35.420      1293
35.440      1339
35.460      1666
35.480      1913
35.500      2176
35.520      2686
35.540      3189
35.560      3505
35.580      3695
35.600      3828
35.620      3912
35.640      3679
35.660      3562
35.680      3192
35.700      3012
35.720      2556
35.740      2179
35.760      1953
35.780      1619
35.800      1369
35.820      1203
35.840      1010
35.860       933
35.880       843
35.900       896
35.920       740
35.940       720
35.960       710
35.980       603
36.000       563
36.020       543
36.040       513
36.060       500
36.080       560
36.100       486
36.120       536
36.140       460
36.160       493
36.180       463
36.200       533
36.220       426
36.240       343
36.260       407
36.280       470
36.300       466
36.320       410
36.340       450
36.360       403
36.380       423
36.400       493
36.420       456
36.440       443
36.460       470
36.480       410
36.500       480
36.520       493
36.540       380
36.560       377
36.580       367
36.600       360
36.620       400
36.640       357
36.660       407
36.680       390
36.700       403
36.720       453
36.740       350
36.760       417
36.780       446
36.800       397
36.820       410
36.840       417
36.860       383
36.880       436
36.900       480
36.920       426
36.940       443
36.960       413
36.980       443
37.000       496
37.020       503
37.040       466
37.060       390
37.080       490
37.100       476
37.120       433
37.140       436
37.160       500
37.180       436
37.200       453
37.220       440
37.240       493
37.260       466
37.280       506
37.300       460
37.320       423
37.340       343
37.360       417
37.380       323
37.400       426
37.420       420
37.440       373
37.460       423
37.480       426
37.500       387
37.520       387
37.540       360
37.560       363
37.580       380
37.600       387
37.620       433
37.640       370
37.660       506
37.680       410
37.700       400
37.720       380
37.740       483
37.760       367
37.780       330
37.800       420
37.820       323
37.840       400
37.860       470
37.880       470
37.900       357
37.920       400
37.940       380
37.960       390
37.980       430
38.000       453
38.020       446
38.040       417
38.060       456
38.080       420
38.100       443
38.120       407
38.140       397
38.160       370
38.180       357
38.200       387
38.220       377
38.240       413
38.260       373
38.280       377
38.300       350
38.320       367
38.340       330
38.360       390
38.380       323
38.400       420
38.420       407
38.440       400
38.460       377
38.480       400
38.500       417
38.520       370
38.540       367
38.560       360
38.580       426
38.600       367
38.620       380
38.640       430
38.660       413
38.680       400
38.700       397
38.720       446
38.740       400
38.760       456
38.780       393
38.800       373
38.820       443
38.840       403
38.860       360
38.880       483
38.900       400
38.920       420
38.940       453
38.960       430
38.980       456
39.000       407
39.020       410
39.040       483
39.060       370
39.080       490
39.100       473
39.120       506
39.140       417
39.160       480
39.180       426
39.200       430
39.220       430
39.240       436
39.260       413
39.280       446
39.300       400
39.320       443
39.340       380
39.360       360
39.380       300
39.400       400
39.420       307
39.440       337
39.460       307
39.480       367
39.500       433
39.520       400
39.540       393
39.560       407
39.580       383
39.600       387
39.620       370
39.640       380
39.660       353
39.680       383
39.700       323
39.720       410
39.740       383
39.760       393
39.780       373
39.800       343
39.820       387
39.840       320
39.860       450
39.880       353
39.900       380
39.920       363
39.940       360
39.960       390
39.980       367
40.000       377
40.020       367
40.040       377
40.060       370
40.080       390
40.100       370
40.120       397
40.140       403
40.160       343
40.180       357
40.200       327
40.220       327
40.240       337
40.260       400
40.280       410
40.300       387
40.320       377
40.340       436
40.360       357
40.380       397
40.400       323
40.420       360
40.440       420
40.460       317
40.480       340
40.500       410
40.520       343
40.540       343
40.560       410
40.580       400
40.600       417
40.620       360
40.640       320
40.660       377
40.680       367
40.700       337
40.720       387
40.740       400
40.760       400
40.780       420
40.800       343
40.820       407
40.840       383
40.860       373
40.880       300
40.900       420
40.920       410
40.940       330
40.960       387
40.980       433
41.000       340
41.020       357
41.040       440
41.060       393
41.080       373
41.100       360
41.120       347
41.140       473
41.160       387
41.180       297
41.200       347
41.220       377
41.240       403
41.260       357
41.280       317
41.300       463
41.320       413
41.340       340
41.360       357
41.380       343
41.400       330
41.420       310
41.440       340
41.460       403
41.480       423
41.500       377
41.520       360
41.540       397
41.560       360
41.580       367
41.600       387
41.620       403
41.640       473
41.660       323
41.680       363
41.700       403
41.720       320
41.740       390
41.760       387
41.780       400
41.800       397
41.820       380
41.840       433
41.860       430
41.880       403
41.900       397
41.920       383
41.940       377
41.960       453
41.980       390
42.000       380
42.020       510
42.040       363
42.060       400
42.080       350
42.100       433
42.120       407
42.140       370
42.160       320
42.180       433
42.200       397
42.220       390
42.240       403
42.260       393
42.280       430
42.300       407
42.320       443
42.340       383
42.360       403
42.380       413
42.400       393
42.420       450
42.440       393
42.460       436
42.480       410
42.500       440
42.520       450
42.540       440
42.560       496
42.580       456
42.600       446
42.620       560
42.640       490
42.660       533
42.680       620
42.700       520
42.720       630
42.740       713
42.760       670
42.780       833
42.800       840
42.820       820
42.840       890
42.860       986
42.880       960
42.900       943
42.920      1223
42.940      1156
42.960      1279
42.980      1226
43.000      1369
43.020      1306
43.040      1263
43.060      1336
43.080      1356
43.100      1286
43.120      1113
43.140      1133
43.160      1080
43.180       953
43.200      1003
43.220      1033
43.240       826
43.260       823
43.280       740
43.300       700
43.320       646
43.340       593
43.360       676
43.380       573
43.400       476
43.420       470
43.440       490
43.460       463
43.480       466
43.500       526
43.520       403
43.540       360
43.560       423
43.580       403
43.600       436
43.620       417
43.640       410
43.660       450
43.680       463
43.700       360
43.720       387
43.740       443
43.760       373
43.780       383
43.800       370
43.820       433
43.840       413
43.860       436
43.880       370
43.900       363
43.920       350
43.940       347
43.960       466
43.980       400
44.000       430
44.020       390
44.040       377
44.060       417
44.080       370
44.100       370
44.120       380
44.140       370
44.160       357
44.180       350
44.200       373
44.220       367
44.240       283
44.260       380
44.280       350
44.300       403
44.320       343
44.340       343
44.360       380
44.380       370
44.400       347
44.420       397
44.440       337
44.460       377
44.480       403
44.500       426
44.520       393
44.540       340
44.560       347
44.580       320
44.600       390
44.620       410
44.640       347
44.660       350
44.680       397
44.700       393
44.720       367
44.740       330
44.760       353
44.780       403
44.800       430
44.820       293
44.840       413
44.860       446
44.880       420
44.900       383
44.920       350
44.940       440
44.960       397
44.980       430
45.000       410
45.020       450
45.040       360
45.060       443
45.080       320
45.100       426
45.120       377
45.140       317
45.160       360
45.180       370
45.200       333
45.220       350
45.240       403
45.260       380
45.280       337
45.300       390
45.320       343
45.340       433
45.360       363
45.380       343
45.400       363
45.420       340
45.440       323
45.460       360
45.480       377
45.500       353
45.520       377
45.540       327
45.560       343
45.580       340
45.600       360
45.620       343
45.640       350
45.660       353
45.680       340
45.700       380
45.720       363
45.740       350
45.760       367
45.780       333
45.800       363
45.820       317
45.840       383
45.860       393
45.880       363
45.900       387
45.920       320
45.940       360
45.960       340
45.980       393
46.000       347
46.020       390
46.040       387
46.060       300
46.080       367
46.100       417
46.120       310
46.140       410
46.160       327
46.180       373
46.200       347
46.220       297
46.240       410
46.260       393
46.280       450
46.300       417
46.320       340
46.340       350
46.360       383
46.380       400
46.400       327
46.420       426
46.440       360
46.460       390
46.480       347
46.500       363
46.520       420
46.540       357
46.560       383
46.580       360
46.600       423
46.620       436
46.640       397
46.660       440
46.680       357
46.700       347
46.720       387
46.740       407
46.760       377
46.780       370
46.800       333
46.820       367
46.840       377
46.860       383
46.880       410
46.900       420
46.920       420
46.940       380
46.960       480
46.980       430
47.000       426
47.020       456
47.040       486
47.060       450
47.080       493
47.100       347
47.120       407
47.140       466
47.160       446
47.180       480
47.200       513
47.220       516
47.240       560
47.260       506
47.280       570
47.300       496
47.320       453
47.340       440
47.360       460
47.380       426
47.400       380
47.420       453
47.440       387
47.460       383
47.480       343
47.500       380
47.520       400
47.540       297
47.560       407
47.580       347
47.600       337
47.620       393
47.640       393
47.660       370
47.680       300
47.700       393
47.720       367
47.740       423
47.760       307
47.780       400
47.800       347
47.820       320
47.840       446
47.860       410
47.880       443
47.900       440
47.920       380
47.940       373
47.960       426
47.980       387
48.000       403
48.020       380
48.040       440
48.060       456
48.080       383
48.100       403
48.120       440
48.140       460
48.160       423
48.180       486
48.200       476
48.220       520
48.240       430
48.260       476
48.280       463
48.300       446
48.320       400
48.340       460
48.360       456
48.380       380
48.400       357
48.420       380
48.440       433
48.460       393
48.480       357
48.500       456
48.520       350
48.540       330
48.560       347
48.580       370
48.600       270
48.620       407
48.640       297
48.660       310
48.680       263
48.700       353
48.720       333
48.740       343
48.760       310
48.780       310
48.800       330
48.820       320
48.840       303
48.860       360
48.880       293
48.900       327
48.920       287
48.940       373
48.960       330
48.980       317
49.000       310
49.020       290
49.040       370
49.060       323
49.080       327
49.100       320
49.120       347
49.140       313
49.160       340
49.180       357
49.200       320
49.220       350
49.240       263
49.260       367
49.280       283
49.300       310
49.320       293
49.340       330
49.360       267
49.380       340
49.400       307
49.420       303
49.440       317
49.460       363
49.480       380
49.500       353
49.520       373
49.540       287
49.560       333
49.580       300
49.600       300
49.620       340
49.640       283
49.660       380
49.680       383
49.700       373
49.720       290
49.740       307
49.760       320
49.780       303
49.800       313
49.820       323
49.840       350
49.860       237
49.880       317
49.900       293
49.920       293
49.940       283
49.960       273
49.980       273
50.000       320
50.020       317
50.040       287
50.060       290
50.080       310
50.100       407
50.120       323
50.140       280
50.160       350
50.180       293
50.200       297
50.220       310
50.240       367
50.260       370
50.280       327
50.300       307
50.320       310
50.340       323
50.360       320
50.380       313
50.400       310
50.420       323
50.440       323
50.460       310
50.480       297
50.500       273
50.520       377
50.540       317
50.560       280
50.580       343
50.600       343
50.620       300
50.640       300
50.660       403
50.680       297
50.700       360
50.720       347
50.740       330
50.760       313
50.780       337
50.800       303
50.820       397
50.840       300
50.860       333
50.880       303
50.900       337
50.920       300
50.940       327
50.960       313
50.980       313
51.000       263
51.020       320
51.040       310
51.060       360
51.080       287
51.100       257
51.120       327
51.140       263
51.160       253
51.180       313
51.200       270
51.220       263
51.240       260
51.260       313
51.280       287
51.300       273
51.320       347
51.340       277
51.360       350
51.380       313
51.400       313
51.420       240
51.440       317
51.460       257
51.480       297
51.500       280
51.520       307
51.540       333
51.560       307
51.580       293
51.600       303
51.620       340
51.640       317
51.660       313
51.680       293
51.700       337
51.720       307
51.740       317
51.760       260
51.780       290
51.800       280
51.820       293
51.840       250
51.860       273
51.880       313
51.900       297
51.920       320
51.940       320
51.960       280
51.980       273
52.000       370
52.020       257
52.040       300
52.060       343
52.080       283
52.100       293
52.120       340
52.140       300
52.160       330
52.180       337
52.200       273
52.220       330
52.240       317
52.260       297
52.280       220
52.300       270
52.320       300
52.340       317
52.360       260
52.380       287
52.400       277
52.420       290
52.440       267
52.460       310
52.480       310
52.500       317
52.520       390
52.540       343
52.560       283
52.580       300
52.600       323
52.620       300
52.640       303
52.660       300
52.680       327
52.700       320
52.720       347
52.740       270
52.760       367
52.780       377
52.800       333
52.820       267
52.840       323
52.860       320
52.880       323
52.900       360
52.920       250
52.940       307
52.960       357
52.980       317
53.000       277
53.020       383
53.040       283
53.060       380
53.080       363
53.100       330
53.120       440
53.140       370
53.160       370
53.180       357
53.200       380
53.220       380
53.240       403
53.260       430
53.280       350
53.300       407
53.320       426
53.340       470
53.360       510
53.380       543
53.400       473
53.420       526
53.440       463
53.460       450
53.480       480
53.500       573
53.520       463
53.540       476
53.560       410
53.580       470
53.600       443
53.620       496
53.640       456
53.660       450
53.680       473
53.700       403
53.720       433
53.740       360
53.760       417
53.780       390
53.800       337
53.820       350
53.840       393
53.860       383
53.880       333
53.900       313
53.920       303
53.940       383
53.960       333
53.980       313
54.000       347
54.020       343
54.040       300
54.060       383
54.080       330
54.100       347
54.120       293
54.140       300
54.160       323
54.180       297
54.200       310
54.220       327
54.240       350
54.260       290
54.280       300
54.300       343
54.320       297
54.340       320
54.360       333
54.380       293
54.400       327
54.420       347
54.440       300
54.460       303
54.480       370
54.500       347
54.520       297
54.540       377
54.560       367
54.580       307
54.600       320
54.620       327
54.640       310
54.660       337
54.680       263
54.700       367
54.720       347
54.740       383
54.760       353
54.780       327
54.800       297
54.820       317
54.840       287
54.860       310
54.880       323
54.900       307
54.920       407
54.940       320
54.960       347
54.980       347
55.000       267
55.020       330
55.040       357
55.060       247
55.080       310
55.100       253
55.120       317
55.140       310
55.160       337
55.180       267
55.200       337
55.220       360
55.240       340
55.260       287
55.280       350
55.300       393
55.320       300
55.340       237
55.360       320
55.380       260
55.400       247
55.420       300
55.440       317
55.460       280
55.480       333
55.500       313
55.520       280
55.540       270
55.560       323
55.580       323
55.600       267
55.620       350
55.640       303
55.660       317
55.680       237
55.700       283
55.720       250
55.740       320
55.760       273
55.780       293
55.800       347
55.820       277
55.840       293
55.860       273
55.880       287
55.900       363
55.920       210
55.940       290
55.960       303
55.980       333
56.000       303
56.020       307
56.040       303
56.060       303
56.080       293
56.100       317
56.120       337
56.140       313
56.160       273
56.180       283
56.200       290
56.220       300
56.240       357
56.260       370
56.280       367
56.300       330
56.320       337
56.340       350
56.360       360
56.380       310
56.400       273
56.420       303
56.440       293
56.460       353
56.480       340
56.500       333
56.520       223
56.540       320
56.560       323
56.580       277
56.600       287
56.620       330
56.640       283
56.660       287
56.680       320
56.700       327
56.720       383
56.740       283
56.760       267
56.780       293
56.800       283
56.820       307
56.840       387
56.860       290
56.880       323
56.900       300
56.920       343
56.940       343
56.960       330
56.980       307
57.000       223
57.020       360
57.040       377
57.060       370
57.080       350
57.100       343
57.120       323
57.140       313
57.160       337
57.180       330
57.200       333
57.220       317
57.240       357
57.260       383
57.280       353
57.300       307
57.320       367
57.340       317
57.360       317
57.380       283
57.400       333
57.420       280
57.440       253
57.460       273
57.480       267
57.500       277
57.520       323
57.540       343
57.560       330
57.580       307
57.600       223
57.620       243
57.640       310
57.660       337
57.680       340
57.700       277
57.720       283
57.740       287
57.760       327
57.780       280
57.800       280
57.820       273
57.840       343
57.860       287
57.880       297
57.900       283
57.920       230
57.940       280
57.960       297
57.980       267
58.000       333
58.020       297
58.040       290
58.060       257
58.080       307
58.100       303
58.120       250
58.140       240
58.160       330
58.180       317
58.200       250
58.220       307
58.240       190
58.260       263
58.280       320
58.300       230
58.320       277
58.340       240
58.360       277
58.380       267
58.400       227
58.420       270
58.440       263
58.460       270
58.480       277
58.500       273
58.520       320
58.540       383
58.560       303
58.580       240
58.600       347
58.620       287
58.640       247
58.660       250
58.680       317
58.700       280
58.720       323
58.740       300
58.760       307
58.780       270
58.800       337
58.820       320
58.840       297
58.860       320
58.880       243
58.900       267
58.920       300
58.940       273
58.960       333
58.980       273
59.000       247
59.020       313
59.040       297
59.060       267
59.080       293
59.100       273
59.120       263
59.140       277
59.160       237
59.180       270
59.200       283
59.220       253
59.240       280
59.260       310
59.280       260
59.300       283
59.320       243
59.340       293
59.360       270
59.380       253
59.400       303
59.420       257
59.440       287
59.460       307
59.480       260
59.500       273
59.520       323
59.540       360
59.560       270
59.580       270
59.600       307
59.620       340
59.640       260
59.660       283
59.680       283
59.700       360
59.720       247
59.740       280
59.760       327
59.780       327
59.800       277
59.820       293
59.840       243
59.860       297
59.880       317
59.900       353
59.920       260
59.940       287
59.960       317
59.980       303
60.000       280
