20.000       800
20.020       730
20.040       693
20.060       866
20.080       803
20.100       830
20.120       766
20.140       763
20.160       766
20.180       770
20.200       830
20.220       796
20.240       813
20.260       800
20.280       723
20.300       756
20.320       756
20.340       813
20.360       603
20.380       786
20.400       750
20.420       723
20.440       763
20.460       623
20.480       836
20.500       786
20.520       773
20.540       700
20.560       713
20.580       763
20.600       686
20.620       736
20.640       780
20.660       696
20.680       716
20.700       800
20.720       760
20.740       746
20.760       696
20.780       780
20.800       650
20.820       730
20.840       670
20.860       690
20.880       726
20.900       773
20.920       606
20.940       723
20.960       726
20.980       696
21.000       753
21.020       676
21.040       740
21.060       820
21.080       790
21.100       710
21.120       793
21.140       713
21.160       730
21.180       680
21.200       743
21.220       663
21.240       676
21.260       716
21.280       736
21.300       673
21.320       780
21.340       763
21.360       806
21.380       766
21.400       656
21.420       840
21.440       713
21.460       610
21.480       633
21.500       696
21.520       706
21.540       733
21.560       670
21.580       650
21.600       673
21.620       713
21.640       633
21.660       763
21.680       660
21.700       596
21.720       636
21.740       636
21.760       733
21.780       663
21.800       653
21.820       630
21.840       650
21.860       733
21.880       623
21.900       623
21.920       693
21.940       666
21.960       640
21.980       580
22.000       586
22.020       556
22.040       650
22.060       663
22.080       706
22.100       566
22.120       610
22.140       603
22.160       593
22.180       680
22.200       720
22.220       706
22.240       586
22.260       686
22.280       676
22.300       636
22.320       533
22.340       643
22.360       593
22.380       546
22.400       763
22.420       586
22.440       660
22.460       616
22.480       626
22.500       626
22.520       650
22.540       603
22.560       636
22.580       633
22.600       623
22.620       710
22.640       660
22.660       533
22.680       616
22.700       526
22.720       603
22.740       646
22.760       623
22.780       626
22.800       680
22.820       673
22.840       676
22.860       546
22.880       593
22.900       540
22.920       626
22.940       573
22.960       543
22.980       686
23.000       726
23.020       613
23.040       566
23.060       586
23.080       596
23.100       546
23.120       666
23.140       646
23.160       626
23.180       626
23.200       530
23.220       510
23.240       600
23.260       630
23.280       710
23.300       600
23.320       553
23.340       643
23.360       603
23.380       690
23.400       520
23.420       610
23.440       620
23.460       513
23.480       530
23.500       550
23.520       593
23.540       590
23.560       533
23.580       586
23.600       583
23.620       610
23.640       580
23.660       533
23.680       626
23.700       546
23.720       576
23.740       550
23.760       660
23.780       536
23.800       556
23.820       590
23.840       600
23.860       616
23.880       633
23.900       623
23.920       550
23.940       583
23.960       463
23.980       633
24.000       500
24.020       566
24.040       540
24.060       550
24.080       603
24.100       630
24.120       533
24.140       593
24.160       563
24.180       546
24.200       583
24.220       626
24.240       543
24.260       540
24.280       576
24.300       543
24.320       540
24.340       586
24.360       576
24.380       530
24.400       503
24.420       530
24.440       486
24.460       580
24.480       593
24.500       516
24.520       533
24.540       603
24.560       546
24.580       616
24.600       520
24.620       466
24.640       620
24.660       533
24.680       540
24.700       570
24.720       603
24.740       460
24.760       593
24.780       590
24.800       536
24.820       576
24.840       550
24.860       496
24.880       586
24.900       466
24.920       520
24.940       496
24.960       590
24.980       586
25.000       603
25.020       620
25.040       536
25.060       623
25.080       580
25.100       526
25.120       523
25.140       510
25.160       530
25.180       620
25.200       463
25.220       523
25.240       510
25.260       483
25.280       463
25.300       573
25.320       590
25.340       523
25.360       586
25.380       576
25.400       503
25.420       513
25.440       513
25.460       563
25.480       473
25.500       556
25.520       536
25.540       540
25.560       523
25.580       473
25.600       393
25.620       510
25.640       503
25.660       560
25.680       500
25.700       520
25.720       543
25.740       503
25.760       543
25.780       546
25.800       543
25.820       576
25.840       483
25.860       553
25.880       576
25.900       526
25.920       546
25.940       453
25.960       510
25.980       533
26.000       580
26.020       456
26.040       566
26.060       530
26.080       570
26.100       470
26.120       523
26.140       493
26.160       530
26.180       456
26.200       440
26.220       430
26.240       476
26.260       476
26.280       463
26.300       516
26.320       506
26.340       520
26.360       436
26.380       530
26.400       510
26.420       403
26.440       520
26.460       480
26.480       506
26.500       460
26.520       533
26.540       460
26.560       490
26.580       500
26.600       387
26.620       430
26.640       476
26.660       506
26.680       480
26.700       463
26.720       473
26.740       453
26.760       523
26.780       466
26.800       453
26.820       466
26.840       413
26.860       483
26.880       403
26.900       493
26.920       506
26.940       470
26.960       496
26.980       480
27.000       443
27.020       500
27.040       436
27.060       453
27.080       463
27.100       526
27.120       397
27.140       536
27.160       493
27.180       456
27.200       476
27.220       496
27.240       436
27.260       486
27.280       556
27.300       583
27.320       516
27.340       456
27.360       520
27.380       483
27.400       510
27.420       496
27.440       486
27.460       503
27.480       513
27.500       520
27.520       466
27.540       423
27.560       513
27.580       490
27.600       460
27.620       430
27.640       490
27.660       430
27.680       390
27.700       463
27.720       516
27.740       430
27.760       426
27.780       486
27.800       413
27.820       430
27.840       436
27.860       433
27.880       403
27.900       440
27.920       443
27.940       460
27.960       486
27.980       423
28.000       460
28.020       446
28.040       453
28.060       420
28.080       407
28.100       433
28.120       417
28.140       450
28.160       403
28.180       456
28.200       403
28.220       423
28.240       413
28.260       463
28.280       410
28.300       476
28.320       476
28.340       490
28.360       476
28.380       410
28.400       440
28.420       393
28.440       430
28.460       407
28.480       417
28.500       353
28.520       403
28.540       483
28.560       363
28.580       410
28.600       367
28.620       436
28.640       413
28.660       373
28.680       446
28.700       370
28.720       443
28.740       440
28.760       417
28.780       370
28.800       407
28.820       453
28.840       483
28.860       400
28.880       370
28.900       410
28.920       417
28.940       420
28.960       460
28.980       353
29.000       460
29.020       466
29.040       526
29.060       450
29.080       413
29.100       466
29.120       493
29.140       433
29.160       473
29.180       413
29.200       476
29.220       473
29.240       453
29.260       453
29.280       453
29.300       496
29.320       483
29.340       436
29.360       533
29.380       453
29.400       553
29.420       510
29.440       520
29.460       490
29.480       576
29.500       546
29.520       533
29.540       576
29.560       643
29.580       593
29.600       640
29.620       576
29.640       726
29.660       580
29.680       633
29.700       793
29.720       696
29.740       710
29.760       983
29.780       810
29.800       913
29.820       856
29.840       960
29.860      1123
29.880      1043
29.900      1100
29.920      1286
29.940      1403
29.960      1426
29.980      1663
30.000      1653
30.020      1836
30.040      2126
30.060      2129
30.080      2452
30.100      2592
30.120      2909
30.140      3229
30.160      3702
30.180      4278
30.200      4748
30.220      5641
30.240      6497
30.260      7297
30.280      8960
30.300     10149
30.320     11246
30.340     12665
30.360     14947
30.380     15917
30.400     17283
30.420     17173
30.440     16953
30.460     16753
30.480     15304
30.500     13991
30.520     11962
30.540      9550
30.560      7800
30.580      6148
30.600      4768
30.620      3862
30.640      2596
30.660      2149
30.680      1926
30.700      1579
30.720      1299
30.740      1180
30.760      1093
30.780       963
30.800       913
30.820       936
30.840       873
30.860       973
30.880       890
30.900       810
30.920       693
30.940       756
30.960       746
30.980       740
31.000       736
31.020       756
31.040       673
31.060       623
31.080       586
31.100       653
31.120       630
31.140       580
31.160       620
31.180       540
31.200       636
31.220       596
31.240       636
31.260       520
31.280       546
31.300       540
31.320       546
31.340       503
31.360       473
31.380       530
31.400       480
31.420       453
31.440       486
31.460       490
31.480       503
31.500       500
31.520       500
31.540       516
31.560       480
31.580       516
31.600       407
31.620       456
31.640       440
31.660       506
31.680       433
31.700       463
31.720       393
31.740       490
31.760       456
31.780       473
31.800       456
31.820       423
31.840       426
31.860       483
31.880       426
31.900       433
31.920       373
31.940       373
31.960       403
31.980       443
32.000       450
32.020       373
32.040       453
32.060       373
32.080       417
32.100       390
32.120       370
32.140       350
32.160       426
32.180       387
32.200       420
32.220       387
32.240       327
32.260       393
32.280       430
32.300       387
32.320       393
32.340       397
32.360       380
32.380       407
32.400       397
32.420       310
32.440       330
32.460       430
32.480       436
32.500       463
32.520       423
32.540       423
32.560       347
32.580       397
32.600       340
32.620       407
32.640       363
32.660       387
32.680       357
32.700       390
32.720       377
32.740       387
32.760       313
32.780       377
32.800       360
32.820       426
32.840       343
32.860       383
32.880       426
32.900       390
32.920       413
32.940       393
32.960       333
32.980       340
33.000       323
33.020       313
33.040       393
33.060       383
33.080       310
33.100       417
33.120       387
33.140       353
33.160       350
33.180       403
33.200       377
33.220       330
33.240       377
33.260       363
33.280       327
33.300       423
33.320       420
33.340       350
33.360       353
33.380       380
33.400       350
33.420       330
33.440       370
33.460       350
33.480       337
33.500       303
33.520       347
33.540       320
33.560       290
33.580       357
33.600       367
33.620       310
33.640       353
33.660       367
33.680       333
33.700       417
33.720       363
33.740       347
33.760       433
33.780       400
33.800       343
33.820       393
33.840       403
33.860       390
33.880       320
33.900       446
33.920       397
33.940       333
33.960       327
33.980       343
34.000       357
34.020       330
34.040       313
34.060       280
34.080       370
34.100       323
34.120       320
34.140       343
34.160       310
34.180       363
34.200       323
34.220       353
34.240       340
34.260       293
34.280       320
34.300       350
34.320       307
34.340       327
34.360       307
34.380       320
34.400       287
34.420       317
34.440       343
34.460       320
34.480       270
34.500       333
34.520       343
34.540       387
34.560       320
34.580       320
34.600       287
34.620       363
34.640       307
34.660       330
34.680       333
34.700       327
34.720       337
34.740       353
34.760       300
34.780       387
34.800       397
34.820       270
34.840       363
34.860       350
34.880       320
34.900       340
34.920       283
34.940       307
34.960       327
34.980       337
35.000       337
35.020       273
35.040       310
35.060       327
35.080       320
35.100       353
35.120       290
35.140       320
35.160       323
35.180       323
35.200       313
35.220       307
35.240       317
35.260       297
35.280       290
35.300       290
35.320       310
35.340       333
35.360       323
35.380       307
35.400       340
35.420       317
35.440       363
35.460       323
35.480       313
35.500       303
35.520       337
35.540       307
35.560       330
35.580       367
35.600       370
35.620       317
35.640       350
35.660       337
35.680       350
35.700       453
35.720       483
35.740       500
35.760       480
35.780       506
35.800       573
35.820       533
35.840       586
35.860       693
35.880       513
35.900       543
35.920       530
35.940       540
35.960       410
35.980       446
36.000       430
36.020       363
36.040       430
36.060       397
36.080       407
36.100       377
36.120       340
36.140       267
36.160       347
36.180       353
36.200       320
36.220       337
36.240       377
36.260       340
36.280       303
36.300       303
36.320       330
36.340       337
36.360       300
36.380       290
36.400       343
36.420       313
36.440       357
36.460       377
36.480       377
36.500       370
36.520       390
36.540       340
36.560       360
36.580       267
36.600       373
36.620       333
36.640       350
36.660       377
36.680       397
36.700       377
36.720       417
36.740       333
36.760       353
36.780       353
36.800       343
36.820       370
36.840       350
36.860       287
36.880       390
36.900       343
36.920       407
36.940       450
36.960       430
36.980       446
37.000       387
37.020       436
37.040       436
37.060       583
37.080       473
37.100       463
37.120       526
37.140       596
37.160       640
37.180       736
37.200       723
37.220       676
37.240       786
37.260       783
37.280       940
37.300       933
37.320      1043
37.340      1276
37.360      1240
37.380      1416
37.400      1856
37.420      2079
37.440      2719
37.460      2965
37.480      3742
37.500      4262
37.520      5198
37.540      5591
37.560      5914
37.580      6051
37.600      6041
37.620      5971
37.640      5308
37.660      4815
37.680      4005
37.700      3575
37.720      2912
37.740      2446
37.760      1906
37.780      1519
37.800      1136
37.820       946
37.840       753
37.860       810
37.880       690
37.900       650
37.920       526
37.940       506
37.960       606
37.980       576
38.000       456
38.020       496
38.040       516
38.060       503
38.080       506
38.100       550
38.120       486
38.140       526
38.160       460
38.180       566
38.200       503
38.220       436
38.240       443
38.260       466
38.280       446
38.300       463
38.320       513
38.340       493
38.360       450
38.380       616
38.400       570
38.420       606
38.440       666
38.460       676
38.480       590
38.500       613
38.520       673
38.540       633
38.560       663
38.580       723
38.600       686
38.620       720
38.640       666
38.660       656
38.680       723
38.700       700
38.720       713
38.740       803
38.760       703
38.780       790
38.800       616
38.820       686
38.840       816
38.860       803
38.880       806
38.900       803
38.920       756
38.940       843
38.960       760
38.980       820
39.000       846
39.020       826
39.040       923
39.060       843
39.080       976
39.100      1000
39.120      1003
39.140      1003
39.160      1003
39.180      1063
39.200       963
39.220      1083
39.240      1136
39.260      1243
39.280      1333
39.300      1269
39.320      1346
39.340      1456
39.360      1486
39.380      1626
39.400      2016
39.420      1929
39.440      2222
39.460      2672
39.480      2912
39.500      3315
39.520      3619
39.540      4222
39.560      5225
39.580      6078
39.600      7507
39.620      9383
39.640     11652
39.660     13941
39.680     18006
39.700     22141
39.720     27349
39.740     31587
39.760     37258
39.780     40870
39.800     45109
39.820     46251
39.840     46981
39.860     45978
39.880     44009
39.900     41330
39.920     36989
39.940     32784
39.960     28938
39.980     24354
40.000     20548
40.020     16853
40.040     13861
40.060     10749
40.080      8913
40.100      7090
40.120      5761
40.140      4678
40.160      3808
40.180      3245
40.200      2896
40.220      2596
40.240      2209
40.260      2059
40.280      1733
40.300      1693
40.320      1456
40.340      1516
40.360      1296
40.380      1336
40.400      1176
40.420      1153
40.440      1116
40.460      1070
40.480       983
40.500       983
40.520       930
40.540       863
40.560       853
40.580       783
40.600       680
40.620       760
40.640       763
40.660       800
40.680       676
40.700       726
40.720       646
40.740       596
40.760       760
40.780       713
40.800       650
40.820       656
40.840       566
40.860       636
40.880       673
40.900       553
40.920       516
40.940       576
40.960       580
40.980       546
41.000       653
41.020       603
41.040       496
41.060       486
41.080       483
41.100       440
41.120       550
41.140       536
41.160       550
41.180       473
41.200       546
41.220       516
41.240       503
41.260       490
41.280       536
41.300       516
41.320       510
41.340       516
41.360       473
41.380       476
41.400       430
41.420       453
41.440       513
41.460       453
41.480       423
41.500       433
41.520       473
41.540       473
41.560       513
41.580       420
41.600       446
41.620       456
41.640       493
41.660       483
41.680       476
41.700       423
41.720       407
41.740       486
41.760       426
41.780       450
41.800       400
41.820       413
41.840       397
41.860       436
41.880       383
41.900       390
41.920       483
41.940       390
41.960       370
41.980       377
42.000       370
42.020       443
42.040       393
42.060       420
42.080       380
42.100       440
42.120       450
42.140       357
42.160       407
42.180       446
42.200       407
42.220       403
42.240       377
42.260       327
42.280       397
42.300       367
42.320       363
42.340       413
42.360       397
42.380       403
42.400       443
42.420       383
42.440       420
42.460       373
42.480       320
42.500       390
42.520       403
42.540       303
42.560       373
42.580       317
42.600       337
42.620       360
42.640       373
42.660       426
42.680       390
42.700       367
42.720       413
42.740       337
42.760       413
42.780       340
42.800       340
42.820       400
42.840       357
42.860       433
42.880       400
42.900       320
42.920       343
42.940       337
42.960       380
42.980       393
43.000       423
43.020       400
43.040       397
43.060       400
43.080       410
43.100       303
43.120       403
43.140       373
43.160       423
43.180       426
43.200       453
43.220       370
43.240       453
43.260       380
43.280       423
43.300       436
43.320       493
43.340       483
43.360       407
43.380       430
43.400       436
43.420       476
43.440       433
43.460       446
43.480       466
43.500       446
43.520       463
43.540       490
43.560       496
43.580       436
43.600       460
43.620       463
43.640       446
43.660       407
43.680       360
43.700       430
43.720       483
43.740       360
43.760       330
43.780       373
43.800       393
43.820       343
43.840       343
43.860       343
43.880       387
43.900       297
43.920       347
43.940       320
43.960       387
43.980       320
44.000       413
44.020       350
44.040       350
44.060       390
44.080       297
44.100       310
44.120       340
44.140       347
44.160       337
44.180       303
44.200       317
44.220       273
44.240       300
44.260       277
44.280       353
44.300       333
44.320       323
44.340       340
44.360       373
44.380       307
44.400       303
44.420       333
44.440       330
44.460       300
44.480       263
44.500       353
44.520       343
44.540       330
44.560       267
44.580       333
44.600       303
44.620       313
44.640       240
44.660       313
44.680       403
44.700       353
44.720       330
44.740       307
44.760       350
44.780       300
44.800       253
44.820       320
44.840       240
44.860       250
44.880       320
44.900       363
44.920       330
44.940       277
44.960       283
44.980       323
45.000       297
45.020       297
45.040       267
45.060       297
45.080       307
45.100       263
45.120       327
45.140       307
45.160       240
45.180       307
45.200       237
45.220       253
45.240       320
45.260       307
45.280       293
45.300       257
45.320       337
45.340       260
45.360       317
45.380       273
45.400       307
45.420       317
45.440       363
45.460       330
45.480       337
45.500       310
45.520       300
45.540       323
45.560       247
45.580       290
45.600       273
45.620       263
45.640       310
45.660       300
45.680       280
45.700       313
45.720       293
45.740       280
45.760       317
45.780       287
45.800       320
45.820       313
45.840       323
45.860       300
45.880       350
45.900       267
45.920       327
45.940       257
45.960       283
45.980       260
46.000       277
46.020       287
46.040       267
46.060       310
46.080       267
46.100       290
46.120       313
46.140       280
46.160       333
46.180       307
46.200       300
46.220       300
46.240       297
46.260       227
46.280       300
46.300       317
46.320       290
46.340       267
46.360       293
46.380       297
46.400       310
46.420       273
46.440       270
46.460       323
46.480       337
46.500       297
46.520       280
46.540       193
46.560       257
46.580       297
46.600       293
46.620       240
46.640       313
46.660       340
46.680       263
46.700       280
46.720       340
46.740       263
46.760       260
46.780       263
46.800       270
46.820       287
46.840       233
46.860       303
46.880       337
46.900       303
46.920       273
46.940       237
46.960       277
46.980       257
47.000       270
47.020       287
47.040       283
47.060       367
47.080       277
47.100       300
47.120       297
47.140       263
47.160       310
47.180       287
47.200       247
47.220       263
47.240       243
47.260       253
47.280       247
47.300       227
47.320       307
47.340       260
47.360       243
47.380       283
47.400       283
47.420       307
47.440       287
47.460       273
47.480       270
47.500       233
47.520       290
47.540       317
47.560       270
47.580       260
47.600       260
47.620       277
47.640       263
47.660       323
47.680       253
47.700       273
47.720       240
47.740       257
47.760       263
47.780       250
47.800       243
47.820       310
47.840       227
47.860       280
47.880       277
47.900       230
47.920       267
47.940       250
47.960       280
47.980       270
48.000       273
48.020       277
48.040       267
48.060       247
48.080       263
48.100       223
48.120       210
48.140       293
48.160       267
48.180       277
48.200       223
48.220       243
48.240       240
48.260       273
48.280       253
48.300       237
48.320       260
48.340       300
48.360       267
48.380       263
48.400       250
48.420       227
48.440       213
48.460       287
48.480       253
48.500       257
48.520       243
48.540       253
48.560       327
48.580       297
48.600       313
48.620       263
48.640       250
48.660       257
48.680       240
48.700       277
48.720       267
48.740       263
48.760       283
48.780       260
48.800       290
48.820       263
48.840       260
48.860       250
48.880       290
48.900       340
48.920       340
48.940       273
48.960       290
48.980       297
49.000       257
49.020       233
49.040       233
49.060       240
49.080       303
49.100       280
49.120       277
49.140       280
49.160       230
49.180       310
49.200       240
49.220       273
49.240       273
49.260       263
49.280       277
49.300       280
49.320       280
49.340       237
49.360       257
49.380       257
49.400       267
49.420       240
49.440       260
49.460       233
49.480       277
49.500       227
49.520       270
49.540       247
49.560       303
49.580       247
49.600       287
49.620       237
49.640       297
49.660       270
49.680       297
49.700       307
49.720       310
49.740       250
49.760       270
49.780       310
49.800       263
49.820       217
49.840       313
49.860       257
49.880       340
49.900       287
49.920       287
49.940       317
49.960       300
49.980       293
50.000       303
50.020       283
50.040       260
50.060       313
50.080       307
50.100       213
50.120       337
50.140       270
50.160       300
50.180       300
50.200       287
50.220       233
50.240       317
50.260       277
50.280       280
50.300       277
50.320       297
50.340       307
50.360       307
50.380       277
50.400       297
50.420       273
50.440       307
50.460       327
50.480       233
50.500       317
50.520       270
50.540       367
50.560       297
50.580       250
50.600       290
50.620       320
50.640       270
50.660       293
50.680       310
50.700       273
50.720       313
50.740       313
50.760       250
50.780       317
50.800       270
50.820       263
50.840       287
50.860       307
50.880       300
50.900       223
50.920       283
50.940       317
50.960       277
50.980       350
51.000       297
51.020       280
51.040       340
51.060       277
51.080       277
51.100       327
51.120       257
51.140       320
51.160       257
51.180       267
51.200       357
51.220       347
51.240       310
51.260       290
51.280       250
51.300       327
51.320       333
51.340       313
51.360       337
51.380       367
51.400       333
51.420       317
51.440       330
51.460       270
51.480       317
51.500       360
51.520       337
51.540       303
51.560       353
51.580       357
51.600       323
51.620       303
51.640       400
51.660       323
51.680       320
51.700       347
51.720       340
51.740       330
51.760       310
51.780       350
51.800       330
51.820       300
51.840       397
51.860       323
51.880       297
51.900       340
51.920       373
51.940       333
51.960       330
51.980       373
52.000       320
52.020       377
52.040       347
52.060       393
52.080       363
52.100       327
52.120       400
52.140       420
52.160       367
52.180       400
52.200       357
52.220       443
52.240       317
52.260       303
52.280       397
52.300       390
52.320       397
52.340       420
52.360       380
52.380       357
52.400       510
52.420       367
52.440       373
52.460       370
52.480       380
52.500       493
52.520       380
52.540       367
52.560       426
52.580       343
52.600       337
52.620       360
52.640       403
52.660       383
52.680       380
52.700       363
52.720       310
52.740       333
52.760       397
52.780       337
52.800       340
52.820       353
52.840       387
52.860       277
52.880       367
52.900       327
52.920       383
52.940       323
52.960       300
52.980       387
53.000       310
53.020       293
53.040       320
53.060       343
53.080       303
53.100       373
53.120       363
53.140       317
53.160       407
53.180       397
53.200       347
53.220       357
53.240       373
53.260       383
53.280       337
53.300       313
53.320       330
53.340       353
53.360       347
53.380       373
53.400       367
53.420       360
53.440       413
53.460       383
53.480       347
53.500       330
53.520       390
53.540       340
53.560       343
53.580       397
53.600       377
53.620       397
53.640       393
53.660       360
53.680       426
53.700       383
53.720       390
53.740       436
53.760       480
53.780       506
53.800       540
53.820       506
53.840       566
53.860       600
53.880       483
53.900       630
53.920       723
53.940       700
53.960       946
53.980       750
54.000       846
54.020       963
54.040       956
54.060      1136
54.080      1043
54.100      1216
54.120      1263
54.140      1080
54.160      1223
54.180      1130
54.200      1193
54.220      1120
54.240      1146
54.260      1016
54.280       986
54.300       846
54.320       883
54.340       773
54.360       670
54.380       640
54.400       500
54.420       540
54.440       563
54.460       446
54.480       420
54.500       393
54.520       307
54.540       350
54.560       327
54.580       293
54.600       290
54.620       300
54.640       370
54.660       287
54.680       247
54.700       323
54.720       307
54.740       277
54.760       283
54.780       240
54.800       270
54.820       250
54.840       250
54.860       293
54.880       267
54.900       270
54.920       287
54.940       273
54.960       310
54.980       273
55.000       227
55.020       217
55.040       203
55.060       247
55.080       250
55.100       273
55.120       230
55.140       287
55.160       247
55.180       227
55.200       253
55.220       250
55.240       240
55.260       237
55.280       153
55.300       280
55.320       203
55.340       267
55.360       170
55.380       230
55.400       200
55.420       247
55.440       193
55.460       240
55.480       260
55.500       190
55.520       213
55.540       247
55.560       203
55.580       223
55.600       253
55.620       217
55.640       223
55.660       210
55.680       210
55.700       203
55.720       220
55.740       213
55.760       200
55.780       263
55.800       193
55.820       153
55.840       233
55.860       227
55.880       167
55.900       220
55.920       207
55.940       233
55.960       207
55.980       217
56.000       193
56.020       233
56.040       187
56.060       230
56.080       237
56.100       203
56.120       193
56.140       223
56.160       237
56.180       237
56.200       223
56.220       217
56.240       173
56.260       213
56.280       223
56.300       247
56.320       220
56.340       220
56.360       160
56.380       170
56.400       243
56.420       213
56.440       197
56.460       187
56.480       167
56.500       193
56.520       177
56.540       253
56.560       170
56.580       223
56.600       253
56.620       210
56.640       207
56.660       233
56.680       200
56.700       187
56.720       237
56.740       193
56.760       197
56.780       217
56.800       223
56.820       173
56.840       173
56.860       203
56.880       233
56.900       160
56.920       203
56.940       173
56.960       193
56.980       223
57.000       160
57.020       140
57.040       200
57.060       180
57.080       243
57.100       147
57.120       190
57.140       190
57.160       203
57.180       197
57.200       210
57.220       233
57.240       160
57.260       177
57.280       223
57.300       177
57.320       240
57.340       190
57.360       203
57.380       240
57.400       190
57.420       230
57.440       197
57.460       220
57.480       167
57.500       183
57.520       167
57.540       183
57.560       223
57.580       203
57.600       160
57.620       197
57.640       187
57.660       177
57.680       207
57.700       210
57.720       167
57.740       223
57.760       183
57.780       180
57.800       210
57.820       137
57.840       207
57.860       157
57.880       203
57.900       183
57.920       203
57.940       187
57.960       190
57.980       210
58.000       183
58.020       183
58.040       200
58.060       210
58.080       180
58.100       250
58.120       193
58.140       163
58.160       207
58.180       200
58.200       160
58.220       153
58.240       180
58.260       163
58.280       147
58.300       213
58.320       187
58.340       177
58.360       157
58.380       227
58.400       157
58.420       203
58.440       180
58.460       167
58.480       213
58.500       233
58.520       200
58.540       183
58.560       197
58.580       203
58.600       180
58.620       157
58.640       210
58.660       163
58.680       200
58.700       213
58.720       160
58.740       187
58.760       193
58.780       160
58.800       133
58.820       153
58.840       143
58.860       197
58.880       163
58.900       163
58.920       187
58.940       173
58.960       190
58.980       183
59.000       150
59.020       173
59.040       160
59.060       133
59.080       160
59.100       173
59.120       217
59.140       180
59.160       143
59.180       153
59.200       193
59.220       127
59.240       193
59.260       170
59.280       183
59.300       217
59.320       177
59.340       200
59.360       160
59.380       167
59.400       147
59.420       170
59.440       183
59.460       193
59.480       190
59.500       200
59.520       140
59.540       153
59.560       157
59.580       170
59.600       180
59.620       167
59.640       170
59.660       183
59.680       170
59.700       187
59.720       183
59.740       120
59.760       117
59.780       150
59.800       163
59.820       143
59.840       113
59.860       187
59.880       183
59.900       143
59.920       157
59.940       197
59.960        17
59.980         0
60.000         0
