20.000         0
20.020         0
20.040       716
20.060       670
20.080       710
20.100       733
20.120       700
20.140       706
20.160       726
20.180       680
20.200       723
20.220       720
20.240       710
20.260       656
20.280       596
20.300       703
20.320       673
20.340       716
20.360       643
20.380       626
20.400       676
20.420       746
20.440       676
20.460       700
20.480       793
20.500       700
20.520       673
20.540       693
20.560       670
20.580       643
20.600       713
20.620       660
20.640       663
20.660       656
20.680       706
20.700       613
20.720       676
20.740       723
20.760       566
20.780       700
20.800       696
20.820       666
20.840       633
20.860       650
20.880       593
20.900       586
20.920       663
20.940       646
20.960       676
20.980       650
21.000       663
21.020       660
21.040       690
21.060       650
21.080       630
21.100       653
21.120       680
21.140       666
21.160       656
21.180       703
21.200       693
21.220       650
21.240       726
21.260       716
21.280       636
21.300       596
21.320       590
21.340       656
21.360       626
21.380       670
21.400       700
21.420       750
21.440       683
21.460       636
21.480       626
21.500       650
21.520       663
21.540       676
21.560       700
21.580       720
21.600       673
21.620       626
21.640       656
21.660       530
21.680       603
21.700       583
21.720       520
21.740       600
21.760       600
21.780       653
21.800       653
21.820       573
21.840       596
21.860       576
21.880       603
21.900       580
21.920       616
21.940       633
21.960       536
21.980       516
22.000       556
22.020       546
22.040       586
22.060       570
22.080       530
22.100       506
22.120       500
22.140       543
22.160       570
22.180       436
22.200       576
22.220       580
22.240       563
22.260       566
22.280       540
22.300       596
22.320       603
22.340       500
22.360       553
22.380       633
22.400       533
22.420       630
22.440       500
22.460       533
22.480       563
22.500       550
22.520       550
22.540       566
22.560       540
22.580       483
22.600       556
22.620       560
22.640       566
22.660       550
22.680       566
22.700       570
22.720       623
22.740       473
22.760       556
22.780       543
22.800       573
22.820       553
22.840       603
22.860       573
22.880       580
22.900       626
22.920       513
22.940       510
22.960       520
22.980       543
23.000       476
23.020       533
23.040       516
23.060       583
23.080       543
23.100       496
23.120       493
23.140       583
23.160       566
23.180       543
23.200       480
23.220       453
23.240       573
23.260       543
23.280       493
23.300       566
23.320       530
23.340       530
23.360       486
23.380       570
23.400       600
23.420       526
23.440       540
23.460       530
23.480       550
23.500       546
23.520       523
23.540       500
23.560       526
23.580       480
23.600       456
23.620       493
23.640       513
23.660       503
23.680       493
23.700       450
23.720       513
23.740       510
23.760       440
23.780       530
23.800       513
23.820       413
23.840       460
23.860       433
23.880       460
23.900       453
23.920       510
23.940       503
23.960       526
23.980       423
24.000       473
24.020       493
24.040       410
24.060       456
24.080       486
24.100       543
24.120       340
24.140       566
24.160       426
24.180       580
24.200       563
24.220       513
24.240       470
24.260       490
24.280       410
24.300       480
24.320       453
24.340       466
24.360       500
24.380       546
24.400       516
24.420       476
24.440       516
24.460       476
24.480       503
24.500       553
24.520       470
24.540       583
24.560       573
24.580       540
24.600       523
24.620       503
24.640       603
24.660       573
24.680       506
24.700       523
24.720       513
24.740       503
24.760       556
24.780       506
24.800       496
24.820       543
24.840       526
24.860       470
24.880       510
24.900       410
24.920       423
24.940       473
24.960       466
24.980       423
25.000       403
25.020       473
25.040       463
25.060       420
25.080       407
25.100       490
25.120       456
25.140       436
25.160       403
25.180       426
25.200       440
25.220       430
25.240       480
25.260       423
25.280       397
25.300       446
25.320       426
25.340       377
25.360       453
25.380       436
25.400       466
25.420       516
25.440       500
25.460       436
25.480       426
25.500       387
25.520       480
25.540       493
25.560       377
25.580       476
25.600       523
25.620       436
25.640       463
25.660       417
25.680       426
25.700       393
25.720       503
25.740       446
25.760       413
25.780       417
25.800       473
25.820       430
25.840       483
25.860       430
25.880       413
25.900       413
25.920       426
25.940       417
25.960       380
25.980       450
26.000       460
26.020       397
26.040       410
26.060       456
26.080       413
26.100       417
26.120       476
26.140       453
26.160       423
26.180       490
26.200       453
26.220       453
26.240       443
26.260       483
26.280       453
26.300       460
26.320       470
26.340       476
26.360       463
26.380       466
26.400       433
26.420       460
26.440       403
26.460       506
26.480       426
26.500       413
26.520       493
26.540       370
26.560       357
26.580       490
26.600       403
26.620       510
26.640       466
26.660       380
26.680       433
26.700       410
26.720       410
26.740       463
26.760       373
26.780       466
26.800       426
26.820       383
26.840       480
26.860       423
26.880       493
26.900       496
26.920       403
26.940       450
26.960       380
26.980       453
27.000       470
27.020       420
27.040       340
27.060       470
27.080       387
27.100       423
27.120       426
27.140       473
27.160       453
27.180       353
27.200       420
27.220       430
27.240       400
27.260       460
27.280       417
27.300       433
27.320       440
27.340       463
27.360       397
27.380       456
27.400       466
27.420       446
27.440       493
27.460       490
27.480       460
27.500       486
27.520       513
27.540       463
27.560       513
27.580       510
27.600       446
27.620       480
27.640       446
27.660       456
27.680       383
27.700       440
27.720       393
27.740       466
27.760       436
27.780       400
27.800       460
27.820       403
27.840       436
27.860       463
27.880       380
27.900       453
27.920       426
27.940       433
27.960       453
27.980       400
28.000       360
28.020       380
28.040       466
28.060       377
28.080       486
28.100       463
28.120       483
28.140       393
28.160       480
28.180       350
28.200       436
28.220       426
28.240       417
28.260       443
28.280       370
28.300       423
28.320       403
28.340       463
28.360       407
28.380       460
28.400       403
28.420       410
28.440       387
28.460       420
28.480       370
28.500       426
28.520       423
28.540       417
28.560       400
28.580       397
28.600       347
28.620       380
28.640       403
28.660       430
28.680       403
28.700       337
28.720       446
28.740       410
28.760       373
28.780       373
28.800       476
28.820       433
28.840       486
28.860       456
28.880       466
28.900       423
28.920       506
28.940       370
28.960       570
28.980       570
29.000       440
29.020       553
29.040       496
29.060       536
29.080       543
29.100       676
29.120       713
29.140       660
29.160       730
29.180       526
29.200       630
29.220       580
29.240       496
29.260       533
29.280       540
29.300       476
29.320       476
29.340       470
29.360       423
29.380       393
29.400       463
29.420       490
29.440       433
29.460       446
29.480       456
29.500       496
29.520       523
29.540       466
29.560       440
29.580       453
29.600       417
29.620       403
29.640       440
29.660       493
29.680       486
29.700       466
29.720       443
29.740       473
29.760       503
29.780       423
29.800       490
29.820       453
29.840       436
29.860       520
29.880       486
29.900       436
29.920       553
29.940       590
29.960       500
29.980       420
30.000       523
30.020       560
30.040       596
30.060       560
30.080       580
30.100       610
30.120       670
30.140       736
30.160       783
30.180       796
30.200       966
30.220      1113
30.240      1446
30.260      1653
30.280      1969
30.300      2332
30.320      2852
30.340      3369
30.360      3965
30.380      4761
30.400      5724
30.420      6601
30.440      7947
30.460      9110
30.480     10589
30.500     11699
30.520     12488
30.540     12795
30.560     13061
30.580     12402
30.600     11479
30.620     10546
30.640      8810
30.660      7467
30.680      5884
30.700      4475
30.720      3459
30.740      2659
30.760      1936
30.780      1463
30.800      1140
30.820       826
30.840       826
30.860       763
30.880       756
30.900       620
30.920       576
30.940       646
30.960       576
30.980       476
31.000       526
31.020       473
31.040       570
31.060       546
31.080       480
31.100       443
31.120       453
31.140       513
31.160       450
31.180       616
31.200       490
31.220       486
31.240       523
31.260       466
31.280       453
31.300       413
31.320       440
31.340       436
31.360       436
31.380       503
31.400       426
31.420       463
31.440       436
31.460       403
31.480       443
31.500       417
31.520       480
31.540       460
31.560       466
31.580       433
31.600       473
31.620       446
31.640       413
31.660       496
31.680       397
31.700       550
31.720       420
31.740       436
31.760       433
31.780       476
31.800       500
31.820       480
31.840       397
31.860       387
31.880       460
31.900       433
31.920       417
31.940       433
31.960       357
31.980       423
32.000       503
32.020       446
32.040       426
32.060       440
32.080       443
32.100       463
32.120       436
32.140       400
32.160       407
32.180       500
32.200       443
32.220       430
32.240       470
32.260       350
32.280       510
32.300       470
32.320       403
32.340       473
32.360       443
32.380       466
32.400       403
32.420       417
32.440       413
32.460       407
32.480       420
32.500       360
32.520       400
32.540       520
32.560       340
32.580       397
32.600       426
32.620       387
32.640       440
32.660       417
32.680       417
32.700       430
32.720       440
32.740       367
32.760       417
32.780       383
32.800       373
32.820       360
32.840       330
32.860       423
32.880       430
32.900       370
32.920       463
32.940       466
32.960       380
32.980       436
33.000       436
33.020       443
33.040       410
33.060       387
33.080       410
33.100       440
33.120       380
33.140       407
33.160       466
33.180       443
33.200       397
33.220       466
33.240       400
33.260       413
33.280       430
33.300       360
33.320       380
33.340       436
33.360       317
33.380       440
33.400       496
33.420       380
33.440       410
33.460       383
33.480       430
33.500       377
33.520       410
33.540       446
33.560       446
33.580       430
33.600       397
33.620       453
33.640       420
33.660       397
33.680       420
33.700       430
33.720       380
33.740       440
33.760       410
33.780       430
33.800       413
33.820       440
33.840       446
33.860       420
33.880       426
33.900       370
33.920       436
33.940       390
33.960       373
33.980       397
34.000       473
34.020       393
34.040       353
34.060       476
34.080       450
34.100       426
34.120       357
34.140       433
34.160       373
34.180       403
34.200       367
34.220       426
34.240       350
34.260       393
34.280       423
34.300       400
34.320       417
34.340       393
34.360       373
34.380       460
34.400       400
34.420       443
34.440       470
34.460       387
34.480       407
34.500       433
34.520       476
34.540       453
34.560       463
34.580       453
34.600       413
34.620       377
34.640       473
34.660       420
34.680       483
34.700       476
34.720       407
34.740       363
34.760       443
34.780       407
34.800       440
34.820       480
34.840       417
34.860       463
34.880       453
34.900       466
34.920       466
34.940       466
34.960       446
34.980       420
35.000       373
35.020       456
35.040       466
35.060       496
35.080       483
35.100       473
35.120       443
35.140       553
35.160       500
35.180       516
35.200       500
35.220       520
35.240       493
35.260       486
35.280       496
35.300       536
35.320       490
35.340       603
35.360       696
35.380       716
35.400       806
35.420       913
35.440       886
35.460      1080
35.480      1243
35.500      1196
35.520      1346
35.540      1746
35.560      1769
35.580      1919
35.600      2056
35.620      2086
35.640      2129
35.660      1976
35.680      1716
35.700      1649
35.720      1523
35.740      1353
35.760      1150
35.780       973
35.800      1023
35.820       776
35.840       856
35.860       706
35.880       606
35.900       596
35.920       580
35.940       550
35.960       530
35.980       503
36.000       496
36.020       540
36.040       493
36.060       500
36.080       476
36.100       516
36.120       403
36.140       443
36.160       493
36.180       403
36.200       436
36.220       480
36.240       490
36.260       553
36.280       443
36.300       486
36.320       423
36.340       456
36.360       436
36.380       460
36.400       443
36.420       466
36.440       466
36.460       470
36.480       483
36.500       330
36.520       443
36.540       463
36.560       446
36.580       426
36.600       443
36.620       420
36.640       327
36.660       500
36.680       460
36.700       450
36.720       310
36.740       363
36.760       443
36.780       420
36.800       426
36.820       367
36.840       417
36.860       403
36.880       397
36.900       466
36.920       353
36.940       347
36.960       426
36.980       490
37.000       417
37.020       367
37.040       407
37.060       463
37.080       463
37.100       330
37.120       347
37.140       436
37.160       420
37.180       403
37.200       476
37.220       436
37.240       380
37.260       363
37.280       413
37.300       420
37.320       377
37.340       460
37.360       393
37.380       407
37.400       413
37.420       413
37.440       426
37.460       500
37.480       500
37.500       520
37.520       530
37.540       600
37.560       656
37.580       633
37.600       846
37.620       903
37.640      1040
37.660      1083
37.680      1123
37.700      1289
37.720      1279
37.740      1433
37.760      1276
37.780      1216
37.800      1206
37.820      1133
37.840       973
37.860       803
37.880       713
37.900       686
37.920       593
37.940       493
37.960       476
37.980       420
38.000       453
38.020       456
38.040       453
38.060       480
38.080       400
38.100       397
38.120       423
38.140       486
38.160       480
38.180       413
38.200       426
38.220       423
38.240       407
38.260       480
38.280       307
38.300       433
38.320       370
38.340       443
38.360       436
38.380       393
38.400       420
38.420       387
38.440       433
38.460       380
38.480       420
38.500       383
38.520       390
38.540       426
38.560       463
38.580       400
38.600       377
38.620       353
38.640       417
38.660       373
38.680       433
38.700       310
38.720       340
38.740       410
38.760       433
38.780       373
38.800       540
38.820       387
38.840       430
38.860       420
38.880       403
38.900       503
38.920       423
38.940       480
38.960       493
38.980       403
39.000       403
39.020       417
39.040       463
39.060       483
39.080       453
39.100       433
39.120       496
39.140       407
39.160       473
39.180       470
39.200       470
39.220       463
39.240       450
39.260       426
39.280       423
39.300       433
39.320       450
39.340       443
39.360       393
39.380       393
39.400       367
39.420       410
39.440       446
39.460       443
39.480       360
39.500       393
39.520       390
39.540       403
39.560       393
39.580       443
39.600       430
39.620       430
39.640       400
39.660       420
39.680       417
39.700       357
39.720       363
39.740       360
39.760       460
39.780       393
39.800       440
39.820       370
39.840       460
39.860       357
39.880       440
39.900       390
39.920       377
39.940       420
39.960       470
39.980       426
40.000       323
40.020       357
40.040       383
40.060       417
40.080       413
40.100       426
40.120       413
40.140       417
40.160       390
40.180       426
40.200       420
40.220       426
40.240       423
40.260       353
40.280       420
40.300       357
40.320       347
40.340       363
40.360       353
40.380       357
40.400       393
40.420       430
40.440       390
40.460       373
40.480       417
40.500       433
40.520       330
40.540       350
40.560       393
40.580       403
40.600       410
40.620       350
40.640       420
40.660       360
40.680       363
40.700       387
40.720       373
40.740       393
40.760       373
40.780       433
40.800       357
40.820       433
40.840       390
40.860       393
40.880       393
40.900       380
40.920       357
40.940       403
40.960       433
40.980       380
41.000       363
41.020       417
41.040       466
41.060       400
41.080       400
41.100       370
41.120       323
41.140       413
41.160       387
41.180       420
41.200       407
41.220       323
41.240       367
41.260       380
41.280       400
41.300       390
41.320       393
41.340       327
41.360       403
41.380       380
41.400       446
41.420       403
41.440       347
41.460       440
41.480       397
41.500       413
41.520       430
41.540       430
41.560       463
41.580       383
41.600       453
41.620       370
41.640       393
41.660       387
41.680       410
41.700       377
41.720       410
41.740       397
41.760       407
41.780       360
41.800       423
41.820       387
41.840       463
41.860       423
41.880       443
41.900       367
41.920       393
41.940       403
41.960       400
41.980       403
42.000       446
42.020       456
42.040       456
42.060       430
42.080       337
42.100       453
42.120       363
42.140       347
42.160       400
42.180       436
42.200       413
42.220       417
42.240       413
42.260       423
42.280       453
42.300       357
42.320       407
42.340       390
42.360       410
42.380       353
42.400       407
42.420       383
42.440       357
42.460       420
42.480       377
42.500       380
42.520       393
42.540       446
42.560       387
42.580       363
42.600       423
42.620       380
42.640       370
42.660       390
42.680       420
42.700       407
42.720       443
42.740       483
42.760       417
42.780       456
42.800       433
42.820       510
42.840       510
42.860       453
42.880       476
42.900       380
42.920       500
42.940       453
42.960       513
42.980       413
43.000       410
43.020       443
43.040       407
43.060       423
43.080       446
43.100       393
43.120       413
43.140       407
43.160       380
43.180       400
43.200       317
43.220       410
43.240       377
43.260       400
43.280       393
43.300       377
43.320       423
43.340       363
43.360       400
43.380       350
43.400       413
43.420       486
43.440       370
43.460       433
43.480       510
43.500       470
43.520       463
43.540       636
43.560       650
43.580       603
43.600       613
43.620       736
43.640       670
43.660       703
43.680       833
43.700       813
43.720       826
43.740       933
43.760       920
43.780       870
43.800       883
43.820       893
43.840       796
43.860       793
43.880       813
43.900       636
43.920       613
43.940       640
43.960       623
43.980       563
44.000       463
44.020       500
44.040       483
44.060       523
44.080       466
44.100       500
44.120       493
44.140       490
44.160       600
44.180       536
44.200       493
44.220       397
44.240       500
44.260       506
44.280       466
44.300       496
44.320       413
44.340       453
44.360       407
44.380       426
44.400       407
44.420       363
44.440       426
44.460       423
44.480       403
44.500       363
44.520       380
44.540       420
44.560       343
44.580       380
44.600       403
44.620       413
44.640       330
44.660       360
44.680       423
44.700       387
44.720       367
44.740       387
44.760       353
44.780       377
44.800       340
44.820       343
44.840       317
44.860       340
44.880       360
44.900       370
44.920       340
44.940       410
44.960       463
44.980       397
45.000       443
45.020       367
45.040       337
45.060       380
45.080       446
45.100       403
45.120       360
45.140       400
45.160       400
45.180       343
45.200       360
45.220       426
45.240       343
45.260       410
45.280       393
45.300       380
45.320       370
45.340       353
45.360       420
45.380       340
45.400       310
45.420       350
45.440       397
45.460       330
45.480       407
45.500       347
45.520       340
45.540       360
45.560       347
45.580       313
45.600       393
45.620       397
45.640       343
45.660       300
45.680       330
45.700       343
45.720       340
45.740       350
45.760       360
45.780       353
45.800       403
45.820       377
45.840       313
45.860       417
45.880       380
45.900       370
45.920       380
45.940       380
45.960       313
45.980       330
46.000       343
46.020       320
46.040       367
46.060       347
46.080       313
46.100       413
46.120       360
46.140       390
46.160       343
46.180       330
46.200       353
46.220       403
46.240       300
46.260       383
46.280       397
46.300       350
46.320       440
46.340       360
46.360       383
46.380       313
46.400       360
46.420       353
46.440       300
46.460       426
46.480       426
46.500       320
46.520       383
46.540       373
46.560       390
46.580       363
46.600       360
46.620       343
46.640       337
46.660       360
46.680       347
46.700       310
46.720       370
46.740       360
46.760       440
46.780       377
46.800       363
46.820       393
46.840       390
46.860       433
46.880       340
46.900       417
46.920       436
46.940       413
46.960       350
46.980       420
47.000       390
47.020       377
47.040       453
47.060       500
47.080       460
47.100       393
47.120       423
47.140       423
47.160       450
47.180       433
47.200       453
47.220       407
47.240       503
47.260       520
47.280       410
47.300       496
47.320       446
47.340       486
47.360       456
47.380       430
47.400       380
47.420       430
47.440       367
47.460       350
47.480       380
47.500       397
47.520       313
47.540       343
47.560       433
47.580       403
47.600       313
47.620       420
47.640       363
47.660       373
47.680       343
47.700       360
47.720       383
47.740       330
47.760       363
47.780       320
47.800       353
47.820       323
47.840       317
47.860       363
47.880       303
47.900       357
47.920       350
47.940       320
47.960       333
47.980       327
48.000       403
48.020       363
48.040       387
48.060       446
48.080       390
48.100       420
48.120       363
48.140       423
48.160       400
48.180       440
48.200       446
48.220       400
48.240       490
48.260       423
48.280       450
48.300       410
48.320       390
48.340       493
48.360       370
48.380       420
48.400       367
48.420       333
48.440       417
48.460       367
48.480       390
48.500       403
48.520       347
48.540       287
48.560       350
48.580       320
48.600       373
48.620       333
48.640       360
48.660       343
48.680       347
48.700       310
48.720       383
48.740       363
48.760       343
48.780       280
48.800       303
48.820       317
48.840       357
48.860       387
48.880       323
48.900       347
48.920       370
48.940       320
48.960       403
48.980       303
49.000       393
49.020       343
49.040       360
49.060       313
49.080       317
49.100       343
49.120       330
49.140       320
49.160       310
49.180       383
49.200       330
49.220       397
49.240       337
49.260       360
49.280       433
49.300       377
49.320       377
49.340       377
49.360       417
49.380       410
49.400       430
49.420       290
49.440       387
49.460       353
49.480       323
49.500       387
49.520       333
49.540       393
49.560       330
49.580       337
49.600       307
49.620       323
49.640       327
49.660       360
49.680       313
49.700       360
49.720       333
49.740       360
49.760       363
49.780       350
49.800       377
49.820       357
49.840       370
49.860       307
49.880       327
49.900       333
49.920       320
49.940       303
49.960       320
49.980       313
50.000       420
50.020       307
50.040       347
50.060       347
50.080       273
50.100       363
50.120       297
50.140       423
50.160       307
50.180       290
50.200       367
50.220       330
50.240       353
50.260       333
50.280       293
50.300       370
50.320       350
50.340       357
50.360       330
50.380       277
50.400       303
50.420       380
50.440       363
50.460       260
50.480       350
50.500       297
50.520       377
50.540       310
50.560       323
50.580       333
50.600       323
50.620       300
50.640       330
50.660       333
50.680       343
50.700       313
50.720       300
50.740       273
50.760       320
50.780       340
50.800       400
50.820       290
50.840       353
50.860       360
50.880       257
50.900       330
50.920       287
50.940       323
50.960       340
50.980       277
51.000       367
51.020       313
51.040       303
51.060       337
51.080       360
51.100       347
51.120       313
51.140       383
51.160       320
51.180       367
51.200       333
51.220       367
51.240       323
51.260       270
51.280       350
51.300       247
51.320       330
51.340       293
51.360       280
51.380       323
51.400       313
51.420       237
51.440       383
51.460       330
51.480       300
51.500       333
51.520       313
51.540       310
51.560       297
51.580       273
51.600       313
51.620       350
51.640       263
51.660       267
51.680       253
51.700       323
51.720       310
51.740       320
51.760       263
51.780       313
51.800       360
51.820       283
51.840       327
51.860       343
51.880       293
51.900       377
51.920       313
51.940       330
51.960       297
51.980       287
52.000       350
52.020       270
52.040       337
52.060       310
52.080       380
52.100       303
52.120       267
52.140       340
52.160       273
52.180       307
52.200       330
52.220       360
52.240       353
52.260       370
52.280       333
52.300       373
52.320       320
52.340       310
52.360       343
52.380       323
52.400       303
52.420       320
52.440       303
52.460       340
52.480       270
52.500       333
52.520       330
52.540       413
52.560       373
52.580       333
52.600       307
52.620       297
52.640       267
52.660       297
52.680       367
52.700       353
52.720       310
52.740       267
52.760       393
52.780       323
52.800       327
52.820       300
52.840       340
52.860       353
52.880       373
52.900       307
52.920       303
52.940       313
52.960       313
52.980       333
53.000       290
53.020       300
53.040       307
53.060       303
53.080       347
53.100       340
53.120       287
53.140       313
53.160       263
53.180       350
53.200       277
53.220       270
53.240       313
53.260       297
53.280       323
53.300       347
53.320       330
53.340       237
53.360       283
53.380       290
53.400       273
53.420       267
53.440       290
53.460       317
53.480       320
53.500       313
53.520       263
53.540       317
53.560       317
53.580       347
53.600       330
53.620       280
53.640       320
53.660       310
53.680       320
53.700       280
53.720       337
53.740       287
53.760       383
53.780       313
53.800       303
53.820       357
53.840       333
53.860       317
53.880       343
53.900       253
53.920       333
53.940       330
53.960       363
53.980       383
54.000       393
54.020       300
54.040       340
54.060       397
54.080       436
54.100       357
54.120       480
54.140       403
54.160       463
54.180       516
54.200       510
54.220       746
54.240       770
54.260       873
54.280       980
54.300      1080
54.320      1080
54.340      1200
54.360      1266
54.380      1489
54.400      1449
54.420      1393
54.440      1463
54.460      1329
54.480      1386
54.500      1203
54.520      1136
54.540      1123
54.560      1053
54.580       936
54.600       796
54.620       696
54.640       710
54.660       570
54.680       536
54.700       526
54.720       453
54.740       440
54.760       516
54.780       390
54.800       410
54.820       357
54.840       360
54.860       393
54.880       373
54.900       360
54.920       380
54.940       387
54.960       350
54.980       347
55.000       307
55.020       383
55.040       367
55.060       380
55.080       337
55.100       303
55.120       370
55.140       330
55.160       313
55.180       313
55.200       377
55.220       363
55.240       397
55.260       323
55.280       347
55.300       393
55.320       310
55.340       313
55.360       357
55.380       363
55.400       327
55.420       277
55.440       333
55.460       320
55.480       283
55.500       383
55.520       350
55.540       340
55.560       277
55.580       267
55.600       290
55.620       303
55.640       373
55.660       280
55.680       253
55.700       367
55.720       283
55.740       277
55.760       360
55.780       337
55.800       313
55.820       330
55.840       300
55.860       317
55.880       283
55.900       327
55.920       263
55.940       320
55.960       313
55.980       310
56.000       360
56.020       327
56.040       293
56.060       367
56.080       333
56.100       330
56.120       353
56.140       300
56.160       297
56.180       310
56.200       370
56.220       323
56.240       297
56.260       337
56.280       363
56.300       333
56.320       360
56.340       337
56.360       320
56.380       290
56.400       300
56.420       347
56.440       367
56.460       313
56.480       310
56.500       310
56.520       307
56.540       280
56.560       307
56.580       317
56.600       280
56.620       360
56.640       297
56.660       333
56.680       377
56.700       313
56.720       333
56.740       297
56.760       330
56.780       320
56.800       350
56.820       303
56.840       337
56.860       343
56.880       353
56.900       340
56.920       280
56.940       350
56.960       330
56.980       380
57.000       363
57.020       393
57.040       350
57.060       340
57.080       327
57.100       320
57.120       393
57.140       377
57.160       347
57.180       310
57.200       353
57.220       360
57.240       350
57.260       320
57.280       377
57.300       310
57.320       350
57.340       293
57.360       377
57.380       287
57.400       283
57.420       267
57.440       343
57.460       290
57.480       297
57.500       327
57.520       273
57.540       323
57.560       313
57.580       267
57.600       327
57.620       360
57.640       340
57.660       340
57.680       303
57.700       350
57.720       367
57.740       343
57.760       330
57.780       300
57.800       290
57.820       273
57.840       337
57.860       323
57.880       287
57.900       320
57.920       353
57.940       317
57.960       300
57.980       283
58.000       267
58.020       283
58.040       293
58.060       360
58.080       253
58.100       277
58.120       277
58.140       280
58.160       263
58.180       277
58.200       263
58.220       313
58.240       300
58.260       280
58.280       337
58.300       300
58.320       300
58.340       333
58.360       333
58.380       323
58.400       290
58.420       270
58.440       287
58.460       300
58.480       243
58.500       327
58.520       287
58.540       303
58.560       300
58.580       297
58.600       300
58.620       270
58.640       343
58.660       320
58.680       347
58.700       287
58.720       253
58.740       277
58.760       253
58.780       247
58.800       297
58.820       270
58.840       347
58.860       253
58.880       337
58.900       240
58.920       350
58.940       290
58.960       287
58.980       263
59.000       273
59.020       250
59.040       267
59.060       303
59.080       250
59.100       343
59.120       310
59.140       333
59.160       287
59.180       320
59.200       260
59.220       297
59.240       320
59.260       273
59.280       287
59.300       290
59.320       340
59.340       357
59.360       327
59.380       347
59.400       310
59.420       307
59.440       280
59.460       337
59.480       257
59.500       293
59.520       363
59.540       347
59.560       370
59.580       307
59.600       303
59.620       410
59.640       307
59.660       333
59.680       367
59.700       320
59.720       270
59.740       243
59.760       280
59.780       320
59.800       340
59.820       323
59.840       330
59.860       297
59.880       320
59.900       343
59.920       270
59.940       317
59.960       393
59.980       297
60.000       250
