20.000        40
20.020        47
20.040        30
20.060        43
20.080        60
20.100        67
20.120        40
20.140        43
20.160        57
20.180        43
20.200        83
20.220        67
20.240        60
20.260        57
20.280        47
20.300        37
20.320        83
20.340        60
20.360        47
20.380        40
20.400        50
20.420        53
20.440        63
20.460        50
20.480        63
20.500        50
20.520        47
20.540        57
20.560        43
20.580        40
20.600        67
20.620        37
20.640        40
20.660        67
20.680        67
20.700        50
20.720        47
20.740        73
20.760        57
20.780        67
20.800        53
20.820        60
20.840        63
20.860        40
20.880        73
20.900        80
20.920        60
20.940        63
20.960        27
20.980        40
21.000        43
21.020        27
21.040        57
21.060        57
21.080        63
21.100        40
21.120        60
21.140        63
21.160        60
21.180        50
21.200        53
21.220        50
21.240        50
21.260       103
21.280        73
21.300        73
21.320        90
21.340        53
21.360        80
21.380        73
21.400        63
21.420        90
21.440        57
21.460        83
21.480        57
21.500        73
21.520        80
21.540        83
21.560        67
21.580        80
21.600        43
21.620        37
21.640        63
21.660        30
21.680        57
21.700        67
21.720        77
21.740        33
21.760        50
21.780        37
21.800        43
21.820        43
21.840        80
21.860        47
21.880        33
21.900        60
21.920        40
21.940        50
21.960        40
21.980        37
22.000        67
22.020        50
22.040        40
22.060        50
22.080        40
22.100        47
22.120        43
22.140        23
22.160        60
22.180        53
22.200        50
22.220        37
22.240        70
22.260        53
22.280        43
22.300        70
22.320        60
22.340        53
22.360        30
22.380        53
22.400        63
22.420        33
22.440        63
22.460        47
22.480        57
22.500        37
22.520        37
22.540        30
22.560        60
22.580        33
22.600        50
22.620        27
22.640        77
22.660        20
22.680        23
22.700        47
22.720        40
22.740        47
22.760        53
22.780        33
22.800        33
22.820        43
22.840        50
22.860        43
22.880        37
22.900        40
22.920        37
22.940        60
22.960        80
22.980        77
23.000        50
23.020        67
23.040        63
23.060        63
23.080        67
23.100        47
23.120        37
23.140        50
23.160        43
23.180        40
23.200        47
23.220        63
23.240        50
23.260        40
23.280        63
23.300        47
23.320        77
23.340        27
23.360        40
23.380        30
23.400        33
23.420        37
23.440        63
23.460        80
23.480        43
23.500        53
23.520        37
23.540        53
23.560        60
23.580        50
23.600        57
23.620        33
23.640        37
23.660        30
23.680        43
23.700        57
23.720        37
23.740        63
23.760        57
23.780        63
23.800        40
23.820        43
23.840        50
23.860        50
23.880        60
23.900        50
23.920        63
23.940        37
23.960        40
23.980        30
24.000        53
24.020        43
24.040        50
24.060        33
24.080        43
24.100        40
24.120        43
24.140        33
24.160        47
24.180        40
24.200        30
24.220        33
24.240        47
24.260        50
24.280        57
24.300        37
24.320        70
24.340        63
24.360        53
24.380        50
24.400        70
24.420        47
24.440        60
24.460        43
24.480        37
24.500        43
24.520        37
24.540        47
24.560        30
24.580        37
24.600        77
24.620        43
24.640        67
24.660        70
24.680        47
24.700        47
24.720        63
24.740       113
24.760        87
24.780       107
24.800       140
24.820       167
24.840       197
24.860       170
24.880       260
24.900       153
24.920       190
24.940       157
24.960       113
24.980        97
25.000       107
25.020        63
25.040        60
25.060        80
25.080        87
25.100        80
25.120        33
25.140        40
25.160        50
25.180        50
25.200        60
25.220        33
25.240        73
25.260        33
25.280        30
25.300        47
25.320        27
25.340        53
25.360        40
25.380        63
25.400        40
25.420        50
25.440        47
25.460        47
25.480        40
25.500        60
25.520        67
25.540        33
25.560        43
25.580        40
25.600        23
25.620        53
25.640        40
25.660        37
25.680        27
25.700        43
25.720        73
25.740        23
25.760        33
25.780        60
25.800        43
25.820        40
25.840        40
25.860        30
25.880        57
25.900        23
25.920        77
25.940        43
25.960        43
25.980        33
26.000        33
26.020        47
26.040        43
26.060        50
26.080        47
26.100        37
26.120        40
26.140        33
26.160        37
26.180        30
26.200        90
26.220        43
26.240        60
26.260        43
26.280        57
26.300        33
26.320        63
26.340        37
26.360        33
26.380        60
26.400        37
26.420        63
26.440        37
26.460        47
26.480        33
26.500        43
26.520        40
26.540        40
26.560        43
26.580        30
26.600        40
26.620        50
26.640        67
26.660        47
26.680        40
26.700        23
26.720        30
26.740        40
26.760        53
26.780        53
26.800        33
26.820        33
26.840        33
26.860        43
26.880        43
26.900        37
26.920        17
26.940        27
26.960        37
26.980        43
27.000        33
27.020        47
27.040        53
27.060        30
27.080        33
27.100        30
27.120        23
27.140        33
27.160        23
27.180        33
27.200        43
27.220        37
27.240        33
27.260        33
27.280        33
27.300        47
27.320        57
27.340        53
27.360        40
27.380        30
27.400        23
27.420        30
27.440        40
27.460        27
27.480        50
27.500        53
27.520        40
27.540        40
27.560        60
27.580        47
27.600        60
27.620        20
27.640        53
27.660        27
27.680        43
27.700        23
27.720        63
27.740        23
27.760        37
27.780        60
27.800        37
27.820        33
27.840        57
27.860        20
27.880        37
27.900        40
27.920        27
27.940        40
27.960        37
27.980        40
28.000        40
28.020        47
28.040        40
28.060        37
28.080        33
28.100        37
28.120        40
28.140        50
28.160        40
28.180        57
28.200        17
28.220        30
28.240        33
28.260        40
28.280        67
28.300        33
28.320        20
28.340        40
28.360        33
28.380        40
28.400        40
28.420        37
28.440        23
28.460        40
28.480        20
28.500        40
28.520        33
28.540        37
28.560        33
28.580        37
28.600        30
28.620        43
28.640        37
28.660        47
28.680        47
28.700        47
28.720        50
28.740        30
28.760        47
28.780        53
28.800        63
28.820        30
28.840        37
28.860        43
28.880        57
28.900        40
28.920        43
28.940        47
28.960        53
28.980        23
29.000        17
29.020        43
29.040        57
29.060        17
29.080        23
29.100        70
29.120        57
29.140        53
29.160        43
29.180        57
29.200        77
29.220        70
29.240       113
29.260        87
29.280       100
29.300       153
29.320       213
29.340       270
29.360       300
29.380       303
29.400       257
29.420       330
29.440       200
29.460       193
29.480       163
29.500       137
29.520        63
29.540        67
29.560        57
29.580        33
29.600        53
29.620        27
29.640        60
29.660        40
29.680        50
29.700        63
29.720        47
29.740        30
29.760        50
29.780        40
29.800        60
29.820        17
29.840        40
29.860        33
29.880        30
29.900        33
29.920        33
29.940        33
29.960        37
29.980        50
30.000        37
30.020        53
30.040        50
30.060        50
30.080        40
30.100        43
30.120        30
30.140        30
30.160        20
30.180        30
30.200        23
30.220        30
30.240        33
30.260        33
30.280        30
30.300        43
30.320        20
30.340        30
30.360        57
30.380        23
30.400        40
30.420        30
30.440        53
30.460        40
30.480        30
30.500        43
30.520        47
30.540        53
30.560        47
30.580        70
30.600        57
30.620        63
30.640        97
30.660        70
30.680        47
30.700        53
30.720        57
30.740        67
30.760        40
30.780        63
30.800        33
30.820        43
30.840        47
30.860        47
30.880        23
30.900        37
30.920        33
30.940        40
30.960        33
30.980        37
31.000        30
31.020        27
31.040        33
31.060        10
31.080        43
31.100        33
31.120        10
31.140        33
31.160        33
31.180        33
31.200        47
31.220        27
31.240        23
31.260        40
31.280        43
31.300        40
31.320        40
31.340        33
31.360        37
31.380        37
31.400        27
31.420        50
31.440        50
31.460        73
31.480        57
31.500        40
31.520        47
31.540        30
31.560        30
31.580        33
31.600        40
31.620        27
31.640        50
31.660        43
31.680        40
31.700        50
31.720        13
31.740        33
31.760        37
31.780        27
31.800        17
31.820        30
31.840        30
31.860        43
31.880        17
31.900        30
31.920        33
31.940        40
31.960        23
31.980        47
32.000        17
32.020        50
32.040        37
32.060        33
32.080        27
32.100        30
32.120        37
32.140        27
32.160        20
32.180        23
32.200        40
32.220        27
32.240        43
32.260        47
32.280        33
32.300        40
32.320        17
32.340        20
32.360        20
32.380        67
32.400        40
32.420        30
32.440        23
32.460        27
32.480        40
32.500        23
32.520        33
32.540        17
32.560        37
32.580        33
32.600        40
32.620        20
32.640        43
32.660        47
32.680        33
32.700        23
32.720        23
32.740        40
32.760        30
32.780        40
32.800        40
32.820        30
32.840        23
32.860        23
32.880        37
32.900        37
32.920        23
32.940        40
32.960        20
32.980        20
33.000        30
33.020        47
33.040        40
33.060        17
33.080        33
33.100        30
33.120        37
33.140        20
33.160        37
33.180        50
33.200        50
33.220        33
33.240        37
33.260        50
33.280        27
33.300        27
33.320        37
33.340        33
33.360        30
33.380        33
33.400        40
33.420        47
33.440        30
33.460        30
33.480        17
33.500        20
33.520        33
33.540        23
33.560        37
33.580        27
33.600        50
33.620        37
33.640        33
33.660        23
33.680        43
33.700        40
33.720        27
33.740        37
33.760        33
33.780        23
33.800        47
33.820        23
33.840        20
33.860        37
33.880        27
33.900        43
33.920        20
33.940        27
33.960        33
33.980        37
34.000        43
34.020        43
34.040        23
34.060        43
34.080        20
34.100        30
34.120        40
34.140        23
34.160        23
34.180        23
34.200        20
34.220        37
34.240        37
34.260        23
34.280        33
34.300        30
34.320        40
34.340        33
34.360        53
34.380        40
34.400        40
34.420        33
34.440        17
34.460        37
34.480        40
34.500        47
34.520        33
34.540        40
34.560        37
34.580        40
34.600        33
34.620        23
34.640        47
34.660        30
34.680        47
34.700        33
34.720        40
34.740        47
34.760        17
34.780        37
34.800        43
34.820        40
34.840        30
34.860        30
34.880        40
34.900        47
34.920        33
34.940        37
34.960        47
34.980        37
35.000        30
35.020        50
35.040        53
35.060        30
35.080        20
35.100        37
35.120        20
35.140        13
35.160        40
35.180        37
35.200        43
35.220        37
35.240        70
35.260        20
35.280        40
35.300        20
35.320        37
35.340        23
35.360        13
35.380        43
35.400        30
35.420        40
35.440        63
35.460        13
35.480        30
35.500        13
35.520        37
35.540        47
35.560        20
35.580        30
35.600        40
35.620        23
35.640        43
35.660        17
35.680        53
35.700        30
35.720        53
35.740        37
35.760        43
35.780        20
35.800        53
35.820        63
35.840        50
35.860        53
35.880        67
35.900        57
35.920        33
35.940        70
35.960        83
35.980        87
36.000        60
36.020        63
36.040        50
36.060        47
36.080        50
36.100        60
36.120        33
36.140        20
36.160        23
36.180        20
36.200        20
36.220         3
36.240        33
36.260        33
36.280        37
36.300        33
36.320        50
36.340        37
36.360        40
36.380        33
36.400        30
36.420        30
36.440        30
36.460        43
36.480        33
36.500        43
36.520        30
36.540        40
36.560        43
36.580        30
36.600        33
36.620        50
36.640        23
36.660        37
36.680        23
36.700        50
36.720        37
36.740        37
36.760        20
36.780        40
36.800        60
36.820        33
36.840        33
36.860        30
36.880        27
36.900        17
36.920        33
36.940        50
36.960        47
36.980        17
37.000        40
37.020        37
37.040        27
37.060        30
37.080        53
37.100        63
37.120        27
37.140        47
37.160        40
37.180        37
37.200        20
37.220        50
37.240        33
37.260        47
37.280        40
37.300        30
37.320        10
37.340        27
37.360        20
37.380        27
37.400        33
37.420        40
37.440        40
37.460        40
37.480        23
37.500        50
37.520        30
37.540        37
37.560        33
37.580        57
37.600        63
37.620        77
37.640        73
37.660        70
37.680        77
37.700       113
37.720       123
37.740       110
37.760       133
37.780       243
37.800       307
37.820       333
37.840       337
37.860       320
37.880       303
37.900       233
37.920       247
37.940       237
37.960       150
37.980       180
38.000       123
38.020       120
38.040        43
38.060        30
38.080        60
38.100        83
38.120        17
38.140        40
38.160        33
38.180        33
38.200        50
38.220        27
38.240        40
38.260        50
38.280        57
38.300        57
38.320        30
38.340        90
38.360        27
38.380        33
38.400        57
38.420        43
38.440        47
38.460        27
38.480        43
38.500        50
38.520        40
38.540        50
38.560        43
38.580        47
38.600        27
38.620        53
38.640        50
38.660        27
38.680        53
38.700        37
38.720        33
38.740        27
38.760        20
38.780        27
38.800        13
38.820        47
38.840        30
38.860        57
38.880        40
38.900        53
38.920        33
38.940        20
38.960        33
38.980        20
39.000        27
39.020        50
39.040        30
39.060        37
39.080        67
39.100        30
39.120        37
39.140        63
39.160        50
39.180        63
39.200        37
39.220        50
39.240        70
39.260        70
39.280        60
39.300        73
39.320       100
39.340        80
39.360        93
39.380        90
39.400       107
39.420        73
39.440        63
39.460        83
39.480        47
39.500        73
39.520        40
39.540        37
39.560        67
39.580        43
39.600        43
39.620        27
39.640        30
39.660        33
39.680        37
39.700        43
39.720        47
39.740        20
39.760        53
39.780        17
39.800        27
39.820        53
39.840        30
39.860        47
39.880        17
39.900        33
39.920        17
39.940        43
39.960        17
39.980        57
40.000        37
40.020        50
40.040        43
40.060        40
40.080        53
40.100        37
40.120        20
40.140        30
40.160        30
40.180        57
40.200        33
40.220        40
40.240        17
40.260        20
40.280        23
40.300        47
40.320        20
40.340        50
40.360        33
40.380        43
40.400        30
40.420        37
40.440        47
40.460        40
40.480        23
40.500        40
40.520        30
40.540        40
40.560        40
40.580        23
40.600        33
40.620        30
40.640        37
40.660        17
40.680        27
40.700        23
40.720        37
40.740        33
40.760        27
40.780        47
40.800        40
40.820        20
40.840        50
40.860        53
40.880        27
40.900        23
40.920        37
40.940        33
40.960        30
40.980        53
41.000        10
41.020        27
41.040        23
41.060        43
41.080        27
41.100        47
41.120        33
41.140        27
41.160        33
41.180        40
41.200        60
41.220        47
41.240        23
41.260        37
41.280        40
41.300        37
41.320        50
41.340        37
41.360        33
41.380        33
41.400        40
41.420        20
41.440        30
41.460        33
41.480        13
41.500        53
41.520        43
41.540        40
41.560        43
41.580        47
41.600        33
41.620        50
41.640        33
41.660        17
41.680        33
41.700        33
41.720        43
41.740        43
41.760        13
41.780        43
41.800        27
41.820        13
41.840        30
41.860        47
41.880        13
41.900        17
41.920        37
41.940        33
41.960        33
41.980        30
42.000        33
42.020        40
42.040        17
42.060        37
42.080        27
42.100        47
42.120        30
42.140        20
42.160        37
42.180        37
42.200        17
42.220        30
42.240        13
42.260        37
42.280        30
42.300        50
42.320        67
42.340        43
42.360        30
42.380        37
42.400        40
42.420        43
42.440        43
42.460        43
42.480        27
42.500        20
42.520        37
42.540        43
42.560        47
42.580        33
42.600        40
42.620        23
42.640        40
42.660        53
42.680        30
42.700        40
42.720        47
42.740        40
42.760        47
42.780        37
42.800        23
42.820        57
42.840        40
42.860        37
42.880        53
42.900        60
42.920        33
42.940        63
42.960        53
42.980        60
43.000        47
43.020        70
43.040        67
43.060        83
43.080        80
43.100       110
43.120        77
43.140        83
43.160       123
43.180       113
43.200       123
43.220       143
43.240       127
43.260       157
43.280       150
43.300       183
43.320       220
43.340       287
43.360       273
43.380       327
43.400       247
43.420       233
43.440       203
43.460       133
43.480       180
43.500       143
43.520       123
43.540       103
43.560       107
43.580        83
43.600        47
43.620        60
43.640        57
43.660        37
43.680        30
43.700        60
43.720        67
43.740        63
43.760        30
43.780        63
43.800        33
43.820        70
43.840        17
43.860        63
43.880        37
43.900        33
43.920        23
43.940        30
43.960        57
43.980        50
44.000        27
44.020        53
44.040        33
44.060        50
44.080        37
44.100        43
44.120        23
44.140        37
44.160        63
44.180        40
44.200        63
44.220        47
44.240        40
44.260        47
44.280        57
44.300        33
44.320        37
44.340        30
44.360        47
44.380        30
44.400        50
44.420        33
44.440        47
44.460        40
44.480        53
44.500        47
44.520        33
44.540        33
44.560        27
44.580        47
44.600        43
44.620        30
44.640        33
44.660        30
44.680        30
44.700        23
44.720        23
44.740        23
44.760        33
44.780        30
44.800        20
44.820        40
44.840        37
44.860        33
44.880        47
44.900        27
44.920        27
44.940        47
44.960        20
44.980        40
45.000        20
45.020        40
45.040        37
45.060        43
45.080        27
45.100        43
45.120        23
45.140        50
45.160        33
45.180        47
45.200        43
45.220        43
45.240        53
45.260        50
45.280        17
45.300        40
45.320        33
45.340        43
45.360        30
45.380        33
45.400        23
45.420        50
45.440        20
45.460        27
45.480        57
45.500        43
45.520        37
45.540        40
45.560        37
45.580        23
45.600        63
45.620        57
45.640        43
45.660        30
45.680        43
45.700        67
45.720        13
45.740        43
45.760        13
45.780         7
45.800        43
45.820        33
45.840        37
45.860        37
45.880        33
45.900        30
45.920        23
45.940        37
45.960        33
45.980        23
46.000        33
46.020        37
46.040        40
46.060        10
46.080        30
46.100        47
46.120        43
46.140        43
46.160        10
46.180        33
46.200        33
46.220        30
46.240        37
46.260        37
46.280        40
46.300        20
46.320        23
46.340        10
46.360        30
46.380        27
46.400        27
46.420        43
46.440        37
46.460        30
46.480        27
46.500        23
46.520        40
46.540        17
46.560        33
46.580        43
46.600        43
46.620        27
46.640        53
46.660        40
46.680        37
46.700        40
46.720        40
46.740        30
46.760        57
46.780        43
46.800        20
46.820        50
46.840        53
46.860        47
46.880        30
46.900        40
46.920        37
46.940        50
46.960        23
46.980        67
47.000        70
47.020        60
47.040        50
47.060        57
47.080        67
47.100        67
47.120        60
47.140        60
47.160        37
47.180        33
47.200        43
47.220        83
47.240        50
47.260        40
47.280        70
47.300        60
47.320        40
47.340        37
47.360        47
47.380        57
47.400        73
47.420       100
47.440       100
47.460       107
47.480       123
47.500       117
47.520       120
47.540        97
47.560        57
47.580        93
47.600        83
47.620        87
47.640        33
47.660        53
47.680        37
47.700        67
47.720        40
47.740        33
47.760        20
47.780        30
47.800        40
47.820        57
47.840        30
47.860        40
47.880        27
47.900        43
47.920        43
47.940        17
47.960        43
47.980        33
48.000        33
48.020        37
48.040        43
48.060        40
48.080        20
48.100        23
48.120        23
48.140        37
48.160        33
48.180        50
48.200        27
48.220        13
48.240        43
48.260        43
48.280        37
48.300        53
48.320        40
48.340        53
48.360        60
48.380        63
48.400        53
48.420        73
48.440        83
48.460       107
48.480       100
48.500       150
48.520       113
48.540       100
48.560       100
48.580       107
48.600        70
48.620        73
48.640        97
48.660        50
48.680        63
48.700        47
48.720        53
48.740        30
48.760        53
48.780        20
48.800        30
48.820        43
48.840        37
48.860        30
48.880        23
48.900        30
48.920        37
48.940        27
48.960        23
48.980        50
49.000        37
49.020        47
49.040        37
49.060        23
49.080        37
49.100        47
49.120        37
49.140        30
49.160        30
49.180        33
49.200        30
49.220        27
49.240        30
49.260        33
49.280        20
49.300        30
49.320        30
49.340        37
49.360        30
49.380        50
49.400        40
49.420        47
49.440        37
49.460        40
49.480        33
49.500        13
49.520        33
49.540        30
49.560        27
49.580        37
49.600        23
49.620        27
49.640        33
49.660        23
49.680        37
49.700        23
49.720        43
49.740        33
49.760        40
49.780        13
49.800        53
49.820        33
49.840        27
49.860        47
49.880        33
49.900        30
49.920        70
49.940        37
49.960        73
49.980        27
50.000        37
50.020        43
50.040        47
50.060        50
50.080        43
50.100        50
50.120        37
50.140        47
50.160        27
50.180        50
50.200        50
50.220        50
50.240        43
50.260        70
50.280        37
50.300        47
50.320        37
50.340        60
50.360        53
50.380        77
50.400        67
50.420        67
50.440        80
50.460        87
50.480        77
50.500        80
50.520        83
50.540        97
50.560        90
50.580       110
50.600        80
50.620        97
50.640        73
50.660        70
50.680        80
50.700        80
50.720        63
50.740        53
50.760        50
50.780        50
50.800        70
50.820        50
50.840        77
50.860        50
50.880        53
50.900        43
50.920        53
50.940        50
50.960        63
50.980        60
51.000        53
51.020        43
51.040        50
51.060        67
51.080        60
51.100        40
51.120        60
51.140        50
51.160        23
51.180        27
51.200        43
51.220        23
51.240        50
51.260        27
51.280        27
51.300        30
51.320        40
51.340        20
51.360        43
51.380        17
51.400        17
51.420        37
51.440        30
51.460        20
51.480        53
51.500        23
51.520        43
51.540        27
51.560        40
51.580        30
51.600        23
51.620        70
51.640        37
51.660        47
51.680        33
51.700        20
51.720        20
51.740        40
51.760        40
51.780        27
51.800        27
51.820        33
51.840        47
51.860        33
51.880        33
51.900        27
51.920        17
51.940        43
51.960        27
51.980        10
52.000        47
52.020        37
52.040        33
52.060        47
52.080        37
52.100        27
52.120        30
52.140        37
52.160        20
52.180        33
52.200        33
52.220        53
52.240        40
52.260        37
52.280        43
52.300        20
52.320        57
52.340        43
52.360        47
52.380        60
52.400        40
52.420        47
52.440        47
52.460        53
52.480        77
52.500        60
52.520        67
52.540        63
52.560        57
52.580        47
52.600        70
52.620        43
52.640        57
52.660        50
52.680        40
52.700        57
52.720        40
52.740        57
52.760        57
52.780        37
52.800        33
52.820        33
52.840        30
52.860        33
52.880        27
52.900        73
52.920        37
52.940        33
52.960        30
52.980        47
53.000        37
53.020        57
53.040        43
53.060        33
53.080        43
53.100        33
53.120        40
53.140        43
53.160        23
53.180        40
53.200        40
53.220        50
53.240        33
53.260        43
53.280        33
53.300        43
53.320        20
53.340        30
53.360        43
53.380        43
53.400        27
53.420        43
53.440        23
53.460        33
53.480        47
53.500        23
53.520        27
53.540        17
53.560        63
53.580        37
53.600        23
53.620        27
53.640        37
53.660        27
53.680        47
53.700        43
53.720        13
53.740        37
53.760        23
53.780        27
53.800        43
53.820        23
53.840        27
53.860        27
53.880        20
53.900        13
53.920        23
53.940        33
53.960        30
53.980        47
54.000        40
54.020        27
54.040        23
54.060        30
54.080        30
54.100        57
54.120        20
54.140        33
54.160        47
54.180        43
54.200        63
54.220        20
54.240        47
54.260        27
54.280        57
54.300        30
54.320        43
54.340        40
54.360        77
54.380        40
54.400        73
54.420        87
54.440        77
54.460        90
54.480       110
54.500       113
54.520       143
54.540       120
54.560       117
54.580       133
54.600       153
54.620        93
54.640        90
54.660        90
54.680       120
54.700       107
54.720        93
54.740        53
54.760        57
54.780        70
54.800        53
54.820        53
54.840        57
54.860        30
54.880        43
54.900        57
54.920        33
54.940        73
54.960        70
54.980        40
55.000        47
55.020        30
55.040        37
55.060        57
55.080        40
55.100        23
55.120        30
55.140        43
55.160        43
55.180        40
55.200        33
55.220        47
55.240        57
55.260        47
55.280        40
55.300        17
55.320        50
55.340        23
55.360        33
55.380        37
55.400        47
55.420        37
55.440        10
55.460        43
55.480        33
55.500        20
55.520        13
55.540        40
55.560        40
55.580        30
55.600        23
55.620        43
55.640        33
55.660        33
55.680        30
55.700        20
55.720        23
55.740        50
55.760        17
55.780        37
55.800        30
55.820        43
55.840        53
55.860        40
55.880        20
55.900        50
55.920        37
55.940        33
55.960        33
55.980        20
56.000        33
56.020        27
56.040        27
56.060        27
56.080        33
56.100        37
56.120        23
56.140        57
56.160        17
56.180        33
56.200        13
56.220        47
56.240        30
56.260        27
56.280        30
56.300        37
56.320        23
56.340        30
56.360        30
56.380        40
56.400        33
56.420        40
56.440        37
56.460        40
56.480        37
56.500        37
56.520        37
56.540        40
56.560        57
56.580        50
56.600        33
56.620        37
56.640        67
56.660        20
56.680        37
56.700        63
56.720        50
56.740        43
56.760        27
56.780        57
56.800        30
56.820        47
56.840        20
56.860        20
56.880        43
56.900        37
56.920        40
56.940        40
56.960        50
56.980        17
57.000        30
57.020        40
57.040        33
57.060        20
57.080        50
57.100        33
57.120        27
57.140        33
57.160        33
57.180        37
57.200        33
57.220        70
57.240        43
57.260        37
57.280        37
57.300        30
57.320        57
57.340        43
57.360        37
57.380        60
57.400        53
57.420        60
57.440        37
57.460        57
57.480        40
57.500        47
57.520        33
57.540        50
57.560        50
57.580        43
57.600        63
57.620        23
57.640        30
57.660        47
57.680        23
57.700        40
57.720        27
57.740        40
57.760        23
57.780        33
57.800        17
57.820        57
57.840        23
57.860        17
57.880        27
57.900        17
57.920        23
57.940        20
57.960        30
57.980        47
58.000        37
58.020        40
58.040        37
58.060        43
58.080        40
58.100        53
58.120        10
58.140        37
58.160        50
58.180        30
58.200        30
58.220        27
58.240        30
58.260        33
58.280        47
58.300        30
58.320        37
58.340        40
58.360        43
58.380        33
58.400        20
58.420        30
58.440        23
58.460        30
58.480        27
58.500        10
58.520        27
58.540        17
58.560        23
58.580        10
58.600        20
58.620        27
58.640        23
58.660        47
58.680        23
58.700        33
58.720        33
58.740        50
58.760        23
58.780        27
58.800        30
58.820        27
58.840        30
58.860        27
58.880        20
58.900        27
58.920        23
58.940        30
58.960        27
58.980        40
59.000        47
59.020        27
59.040        27
59.060        27
59.080        30
59.100        30
59.120        37
59.140        33
59.160        17
59.180        40
59.200        43
59.220        30
59.240        40
59.260        23
59.280        20
59.300        33
59.320        30
59.340        33
59.360        33
59.380        27
59.400        30
59.420        30
59.440        30
59.460        27
59.480        30
59.500        20
59.520        33
59.540        23
59.560        23
59.580        40
59.600        27
59.620        23
59.640        43
59.660        50
59.680        40
59.700        37
59.720        27
59.740        30
59.760        27
59.780        23
59.800        13
59.820        33
59.840        17
59.860        33
59.880        33
59.900        20
59.920        40
59.940        33
59.960        40
59.980         0
60.000         0
