20.000         0
20.020         0
20.040         0
20.060        77
20.080       760
20.100       650
20.120       723
20.140       680
20.160       706
20.180       743
20.200       623
20.220       740
20.240       706
20.260       690
20.280       636
20.300       700
20.320       716
20.340       623
20.360       653
20.380       690
20.400       633
20.420       623
20.440       750
20.460       580
20.480       750
20.500       716
20.520       756
20.540       593
20.560       613
20.580       640
20.600       680
20.620       613
20.640       656
20.660       633
20.680       700
20.700       630
20.720       593
20.740       716
20.760       676
20.780       680
20.800       663
20.820       646
20.840       680
20.860       666
20.880       663
20.900       636
20.920       633
20.940       616
20.960       740
20.980       703
21.000       693
21.020       663
21.040       650
21.060       706
21.080       636
21.100       623
21.120       570
21.140       750
21.160       676
21.180       686
21.200       653
21.220       600
21.240       590
21.260       696
21.280       650
21.300       710
21.320       623
21.340       660
21.360       680
21.380       600
21.400       723
21.420       826
21.440       726
21.460       736
21.480       636
21.500       646
21.520       613
21.540       686
21.560       676
21.580       643
21.600       510
21.620       646
21.640       603
21.660       600
21.680       523
21.700       616
21.720       540
21.740       583
21.760       593
21.780       656
21.800       603
21.820       623
21.840       530
21.860       540
21.880       556
21.900       603
21.920       553
21.940       576
21.960       536
21.980       530
22.000       536
22.020       550
22.040       566
22.060       636
22.080       570
22.100       596
22.120       620
22.140       570
22.160       533
22.180       596
22.200       590
22.220       613
22.240       553
22.260       586
22.280       596
22.300       556
22.320       550
22.340       540
22.360       563
22.380       586
22.400       526
22.420       556
22.440       526
22.460       503
22.480       500
22.500       640
22.520       550
22.540       680
22.560       460
22.580       526
22.600       550
22.620       600
22.640       463
22.660       520
22.680       466
22.700       576
22.720       590
22.740       506
22.760       516
22.780       523
22.800       563
22.820       603
22.840       530
22.860       553
22.880       490
22.900       570
22.920       556
22.940       570
22.960       530
22.980       540
23.000       556
23.020       490
23.040       480
23.060       543
23.080       580
23.100       516
23.120       553
23.140       573
23.160       470
23.180       460
23.200       530
23.220       533
23.240       546
23.260       533
23.280       440
23.300       500
23.320       520
23.340       493
23.360       476
23.380       430
23.400       483
23.420       520
23.440       483
23.460       436
23.480       456
23.500       480
23.520       503
23.540       513
23.560       560
23.580       466
23.600       540
23.620       553
23.640       493
23.660       486
23.680       576
23.700       473
23.720       526
23.740       470
23.760       523
23.780       443
23.800       436
23.820       503
23.840       433
23.860       536
23.880       483
23.900       513
23.920       420
23.940       560
23.960       473
23.980       480
24.000       460
24.020       466
24.040       436
24.060       500
24.080       470
24.100       506
24.120       486
24.140       440
24.160       466
24.180       530
24.200       483
24.220       473
24.240       506
24.260       423
24.280       523
24.300       483
24.320       476
24.340       460
24.360       536
24.380       470
24.400       393
24.420       533
24.440       470
24.460       526
24.480       446
24.500       476
24.520       510
24.540       533
24.560       493
24.580       526
24.600       540
24.620       506
24.640       550
24.660       576
24.680       543
24.700       543
24.720       573
24.740       596
24.760       540
24.780       513
24.800       463
24.820       483
24.840       503
24.860       480
24.880       430
24.900       476
24.920       446
24.940       503
24.960       426
24.980       440
25.000       450
25.020       426
25.040       456
25.060       480
25.080       463
25.100       463
25.120       536
25.140       493
25.160       500
25.180       490
25.200       430
25.220       446
25.240       410
25.260       453
25.280       426
25.300       380
25.320       470
25.340       443
25.360       390
25.380       480
25.400       450
25.420       450
25.440       470
25.460       430
25.480       410
25.500       413
25.520       400
25.540       500
25.560       446
25.580       453
25.600       466
25.620       436
25.640       436
25.660       446
25.680       370
25.700       450
25.720       380
25.740       430
25.760       470
25.780       397
25.800       433
25.820       446
25.840       400
25.860       440
25.880       436
25.900       430
25.920       420
25.940       387
25.960       380
25.980       433
26.000       456
26.020       370
26.040       400
26.060       413
26.080       510
26.100       443
26.120       377
26.140       503
26.160       430
26.180       383
26.200       370
26.220       423
26.240       466
26.260       370
26.280       410
26.300       383
26.320       426
26.340       400
26.360       476
26.380       486
26.400       400
26.420       353
26.440       417
26.460       420
26.480       363
26.500       433
26.520       420
26.540       430
26.560       403
26.580       446
26.600       486
26.620       430
26.640       443
26.660       456
26.680       436
26.700       417
26.720       510
26.740       390
26.760       440
26.780       413
26.800       436
26.820       420
26.840       470
26.860       407
26.880       363
26.900       403
26.920       440
26.940       426
26.960       377
26.980       380
27.000       403
27.020       433
27.040       426
27.060       426
27.080       367
27.100       436
27.120       413
27.140       426
27.160       450
27.180       373
27.200       413
27.220       463
27.240       417
27.260       540
27.280       380
27.300       436
27.320       397
27.340       433
27.360       456
27.380       430
27.400       423
27.420       470
27.440       506
27.460       613
27.480       410
27.500       520
27.520       443
27.540       516
27.560       446
27.580       426
27.600       383
27.620       460
27.640       423
27.660       403
27.680       433
27.700       483
27.720       470
27.740       426
27.760       433
27.780       403
27.800       377
27.820       417
27.840       446
27.860       426
27.880       410
27.900       407
27.920       443
27.940       387
27.960       407
27.980       400
28.000       397
28.020       446
28.040       430
28.060       456
28.080       417
28.100       367
28.120       436
28.140       370
28.160       383
28.180       420
28.200       347
28.220       390
28.240       387
28.260       393
28.280       393
28.300       433
28.320       407
28.340       353
28.360       417
28.380       430
28.400       387
28.420       393
28.440       333
28.460       403
28.480       347
28.500       383
28.520       353
28.540       393
28.560       407
28.580       350
28.600       370
28.620       340
28.640       350
28.660       453
28.680       407
28.700       433
28.720       383
28.740       433
28.760       476
28.780       446
28.800       340
28.820       476
28.840       420
28.860       420
28.880       370
28.900       413
28.920       460
28.940       456
28.960       443
28.980       493
29.000       476
29.020       473
29.040       530
29.060       510
29.080       550
29.100       563
29.120       603
29.140       740
29.160       556
29.180       600
29.200       573
29.220       566
29.240       680
29.260       490
29.280       540
29.300       446
29.320       463
29.340       513
29.360       410
29.380       400
29.400       500
29.420       453
29.440       446
29.460       503
29.480       513
29.500       543
29.520       493
29.540       503
29.560       483
29.580       536
29.600       550
29.620       446
29.640       466
29.660       470
29.680       516
29.700       506
29.720       536
29.740       496
29.760       496
29.780       490
29.800       553
29.820       543
29.840       493
29.860       510
29.880       586
29.900       566
29.920       556
29.940       620
29.960       600
29.980       573
30.000       596
30.020       563
30.040       626
30.060       583
30.080       586
30.100       716
30.120       796
30.140       773
30.160       833
30.180      1020
30.200      1053
30.220      1456
30.240      1753
30.260      2196
30.280      2539
30.300      3362
30.320      4075
30.340      5248
30.360      6991
30.380      8820
30.400     11319
30.420     14491
30.440     16410
30.460     19042
30.480     20325
30.500     20695
30.520     20718
30.540     19546
30.560     17933
30.580     14981
30.600     12328
30.620      9903
30.640      7297
30.660      5478
30.680      3669
30.700      2489
30.720      1969
30.740      1453
30.760      1196
30.780      1000
30.800       830
30.820       766
30.840       723
30.860       740
30.880       613
30.900       573
30.920       673
30.940       530
30.960       556
30.980       610
31.000       566
31.020       553
31.040       533
31.060       530
31.080       513
31.100       500
31.120       513
31.140       473
31.160       536
31.180       493
31.200       550
31.220       470
31.240       493
31.260       516
31.280       510
31.300       520
31.320       480
31.340       423
31.360       436
31.380       460
31.400       413
31.420       493
31.440       440
31.460       476
31.480       400
31.500       516
31.520       380
31.540       440
31.560       420
31.580       480
31.600       353
31.620       480
31.640       503
31.660       446
31.680       387
31.700       500
31.720       460
31.740       450
31.760       456
31.780       450
31.800       456
31.820       463
31.840       480
31.860       503
31.880       370
31.900       456
31.920       476
31.940       506
31.960       403
31.980       476
32.000       480
32.020       476
32.040       426
32.060       473
32.080       463
32.100       446
32.120       473
32.140       453
32.160       443
32.180       456
32.200       413
32.220       446
32.240       337
32.260       460
32.280       410
32.300       433
32.320       387
32.340       397
32.360       443
32.380       496
32.400       463
32.420       413
32.440       413
32.460       426
32.480       450
32.500       403
32.520       460
32.540       440
32.560       433
32.580       423
32.600       367
32.620       470
32.640       486
32.660       470
32.680       377
32.700       350
32.720       417
32.740       430
32.760       387
32.780       443
32.800       486
32.820       357
32.840       536
32.860       460
32.880       460
32.900       430
32.920       370
32.940       380
32.960       400
32.980       413
33.000       377
33.020       453
33.040       453
33.060       303
33.080       420
33.100       370
33.120       410
33.140       357
33.160       393
33.180       443
33.200       367
33.220       456
33.240       383
33.260       436
33.280       393
33.300       393
33.320       400
33.340       403
33.360       446
33.380       403
33.400       483
33.420       350
33.440       413
33.460       460
33.480       387
33.500       407
33.520       463
33.540       407
33.560       373
33.580       420
33.600       347
33.620       423
33.640       390
33.660       433
33.680       410
33.700       407
33.720       413
33.740       380
33.760       357
33.780       380
33.800       407
33.820       390
33.840       403
33.860       370
33.880       440
33.900       337
33.920       417
33.940       443
33.960       417
33.980       387
34.000       436
34.020       453
34.040       387
34.060       343
34.080       466
34.100       480
34.120       383
34.140       423
34.160       480
34.180       377
34.200       353
34.220       370
34.240       380
34.260       377
34.280       413
34.300       417
34.320       363
34.340       330
34.360       463
34.380       397
34.400       380
34.420       363
34.440       403
34.460       440
34.480       417
34.500       387
34.520       450
34.540       423
34.560       430
34.580       397
34.600       387
34.620       323
34.640       460
34.660       390
34.680       403
34.700       393
34.720       393
34.740       397
34.760       426
34.780       403
34.800       390
34.820       443
34.840       393
34.860       446
34.880       397
34.900       380
34.920       393
34.940       433
34.960       347
34.980       407
35.000       450
35.020       426
35.040       486
35.060       383
35.080       403
35.100       446
35.120       426
35.140       393
35.160       436
35.180       453
35.200       470
35.220       480
35.240       483
35.260       576
35.280       540
35.300       533
35.320       530
35.340       536
35.360       486
35.380       573
35.400       626
35.420       706
35.440       726
35.460       793
35.480       916
35.500       930
35.520      1006
35.540      1143
35.560      1183
35.580      1539
35.600      1499
35.620      1489
35.640      1336
35.660      1263
35.680      1356
35.700      1140
35.720       953
35.740       953
35.760       856
35.780       913
35.800       750
35.820       633
35.840       656
35.860       643
35.880       636
35.900       610
35.920       496
35.940       506
35.960       400
35.980       420
36.000       470
36.020       413
36.040       480
36.060       470
36.080       430
36.100       426
36.120       420
36.140       407
36.160       490
36.180       420
36.200       420
36.220       407
36.240       450
36.260       383
36.280       453
36.300       476
36.320       433
36.340       410
36.360       426
36.380       493
36.400       490
36.420       397
36.440       440
36.460       410
36.480       456
36.500       337
36.520       446
36.540       393
36.560       460
36.580       397
36.600       397
36.620       466
36.640       403
36.660       397
36.680       410
36.700       413
36.720       436
36.740       393
36.760       420
36.780       327
36.800       436
36.820       413
36.840       390
36.860       303
36.880       410
36.900       323
36.920       363
36.940       383
36.960       333
36.980       433
37.000       403
37.020       393
37.040       407
37.060       417
37.080       407
37.100       373
37.120       373
37.140       387
37.160       483
37.180       377
37.200       370
37.220       370
37.240       390
37.260       390
37.280       443
37.300       383
37.320       360
37.340       410
37.360       383
37.380       373
37.400       446
37.420       367
37.440       473
37.460       476
37.480       483
37.500       600
37.520       566
37.540       563
37.560       743
37.580       643
37.600       770
37.620       796
37.640       790
37.660       833
37.680       780
37.700       843
37.720       773
37.740       616
37.760       630
37.780       550
37.800       606
37.820       486
37.840       450
37.860       483
37.880       390
37.900       423
37.920       373
37.940       530
37.960       430
37.980       380
38.000       337
38.020       476
38.040       433
38.060       340
38.080       466
38.100       370
38.120       403
38.140       393
38.160       383
38.180       363
38.200       357
38.220       456
38.240       450
38.260       426
38.280       397
38.300       440
38.320       460
38.340       367
38.360       387
38.380       400
38.400       303
38.420       327
38.440       367
38.460       263
38.480       350
38.500       423
38.520       430
38.540       323
38.560       456
38.580       393
38.600       410
38.620       373
38.640       420
38.660       373
38.680       363
38.700       347
38.720       426
38.740       383
38.760       400
38.780       460
38.800       397
38.820       373
38.840       383
38.860       460
38.880       393
38.900       383
38.920       377
38.940       440
38.960       460
38.980       453
39.000       410
39.020       436
39.040       357
39.060       446
39.080       496
39.100       390
39.120       456
39.140       403
39.160       377
39.180       400
39.200       470
39.220       493
39.240       466
39.260       443
39.280       440
39.300       410
39.320       440
39.340       440
39.360       403
39.380       397
39.400       357
39.420       360
39.440       400
39.460       373
39.480       380
39.500       403
39.520       383
39.540       347
39.560       383
39.580       330
39.600       373
39.620       443
39.640       320
39.660       400
39.680       370
39.700       353
39.720       407
39.740       413
39.760       343
39.780       353
39.800       367
39.820       486
39.840       360
39.860       363
39.880       380
39.900       397
39.920       353
39.940       367
39.960       417
39.980       417
40.000       383
40.020       377
40.040       353
40.060       397
40.080       397
40.100       320
40.120       393
40.140       413
40.160       380
40.180       367
40.200       263
40.220       380
40.240       370
40.260       340
40.280       390
40.300       307
40.320       390
40.340       367
40.360       317
40.380       360
40.400       393
40.420       423
40.440       360
40.460       317
40.480       407
40.500       350
40.520       373
40.540       400
40.560       317
40.580       420
40.600       363
40.620       297
40.640       357
40.660       317
40.680       377
40.700       313
40.720       370
40.740       353
40.760       287
40.780       363
40.800       413
40.820       393
40.840       343
40.860       340
40.880       307
40.900       377
40.920       410
40.940       387
40.960       363
40.980       383
41.000       373
41.020       277
41.040       340
41.060       337
41.080       367
41.100       443
41.120       436
41.140       420
41.160       347
41.180       393
41.200       387
41.220       377
41.240       407
41.260       357
41.280       373
41.300       417
41.320       397
41.340       390
41.360       390
41.380       320
41.400       403
41.420       350
41.440       347
41.460       377
41.480       393
41.500       350
41.520       357
41.540       343
41.560       393
41.580       397
41.600       347
41.620       390
41.640       390
41.660       377
41.680       387
41.700       353
41.720       340
41.740       343
41.760       357
41.780       407
41.800       350
41.820       390
41.840       430
41.860       370
41.880       323
41.900       377
41.920       436
41.940       323
41.960       443
41.980       367
42.000       370
42.020       436
42.040       417
42.060       393
42.080       400
42.100       340
42.120       413
42.140       377
42.160       343
42.180       463
42.200       393
42.220       450
42.240       353
42.260       360
42.280       383
42.300       436
42.320       460
42.340       387
42.360       403
42.380       460
42.400       393
42.420       300
42.440       417
42.460       350
42.480       403
42.500       370
42.520       343
42.540       403
42.560       420
42.580       357
42.600       363
42.620       403
42.640       383
42.660       450
42.680       373
42.700       430
42.720       420
42.740       417
42.760       380
42.780       380
42.800       373
42.820       410
42.840       387
42.860       340
42.880       403
42.900       340
42.920       480
42.940       407
42.960       417
42.980       327
43.000       443
43.020       426
43.040       380
43.060       403
43.080       426
43.100       340
43.120       390
43.140       383
43.160       373
43.180       367
43.200       407
43.220       393
43.240       397
43.260       403
43.280       430
43.300       436
43.320       383
43.340       367
43.360       400
43.380       380
43.400       387
43.420       463
43.440       426
43.460       466
43.480       403
43.500       500
43.520       513
43.540       556
43.560       653
43.580       776
43.600       793
43.620       896
43.640       960
43.660      1150
43.680       980
43.700      1120
43.720      1116
43.740      1056
43.760      1136
43.780       916
43.800       873
43.820       766
43.840       773
43.860       693
43.880       806
43.900       600
43.920       590
43.940       493
43.960       417
43.980       446
44.000       543
44.020       413
44.040       453
44.060       443
44.080       413
44.100       426
44.120       407
44.140       367
44.160       350
44.180       287
44.200       357
44.220       400
44.240       403
44.260       390
44.280       383
44.300       353
44.320       420
44.340       297
44.360       333
44.380       417
44.400       417
44.420       390
44.440       410
44.460       363
44.480       343
44.500       337
44.520       327
44.540       400
44.560       370
44.580       360
44.600       367
44.620       387
44.640       327
44.660       360
44.680       317
44.700       330
44.720       340
44.740       337
44.760       323
44.780       330
44.800       413
44.820       333
44.840       363
44.860       387
44.880       317
44.900       343
44.920       370
44.940       353
44.960       390
44.980       370
45.000       327
45.020       360
45.040       370
45.060       423
45.080       370
45.100       403
45.120       307
45.140       293
45.160       403
45.180       407
45.200       423
45.220       320
45.240       347
45.260       360
45.280       340
45.300       340
45.320       327
45.340       327
45.360       340
45.380       317
45.400       370
45.420       360
45.440       317
45.460       367
45.480       317
45.500       337
45.520       420
45.540       360
45.560       320
45.580       307
45.600       357
45.620       377
45.640       290
45.660       300
45.680       317
45.700       333
45.720       343
45.740       373
45.760       310
45.780       387
45.800       383
45.820       377
45.840       320
45.860       347
45.880       300
45.900       423
45.920       327
45.940       373
45.960       413
45.980       380
46.000       357
46.020       350
46.040       320
46.060       333
46.080       337
46.100       327
46.120       370
46.140       380
46.160       347
46.180       333
46.200       400
46.220       350
46.240       340
46.260       367
46.280       330
46.300       347
46.320       337
46.340       317
46.360       377
46.380       310
46.400       353
46.420       290
46.440       317
46.460       390
46.480       313
46.500       327
46.520       423
46.540       293
46.560       297
46.580       277
46.600       327
46.620       383
46.640       313
46.660       297
46.680       383
46.700       373
46.720       390
46.740       377
46.760       327
46.780       377
46.800       350
46.820       453
46.840       320
46.860       430
46.880       313
46.900       363
46.920       410
46.940       400
46.960       287
46.980       387
47.000       313
47.020       387
47.040       383
47.060       413
47.080       450
47.100       390
47.120       433
47.140       420
47.160       413
47.180       420
47.200       453
47.220       413
47.240       436
47.260       430
47.280       420
47.300       486
47.320       413
47.340       420
47.360       413
47.380       410
47.400       407
47.420       393
47.440       333
47.460       403
47.480       307
47.500       367
47.520       363
47.540       313
47.560       343
47.580       350
47.600       350
47.620       377
47.640       303
47.660       310
47.680       303
47.700       373
47.720       327
47.740       283
47.760       350
47.780       310
47.800       370
47.820       320
47.840       300
47.860       373
47.880       360
47.900       337
47.920       333
47.940       340
47.960       347
47.980       337
48.000       393
48.020       347
48.040       407
48.060       443
48.080       293
48.100       393
48.120       307
48.140       387
48.160       397
48.180       340
48.200       436
48.220       407
48.240       440
48.260       410
48.280       420
48.300       433
48.320       330
48.340       343
48.360       357
48.380       317
48.400       313
48.420       340
48.440       320
48.460       357
48.480       287
48.500       323
48.520       307
48.540       330
48.560       407
48.580       377
48.600       340
48.620       323
48.640       297
48.660       287
48.680       307
48.700       340
48.720       333
48.740       347
48.760       350
48.780       247
48.800       310
48.820       347
48.840       333
48.860       297
48.880       383
48.900       360
48.920       350
48.940       303
48.960       363
48.980       343
49.000       347
49.020       300
49.040       330
49.060       327
49.080       320
49.100       353
49.120       350
49.140       297
49.160       353
49.180       343
49.200       283
49.220       333
49.240       360
49.260       327
49.280       417
49.300       393
49.320       357
49.340       383
49.360       367
49.380       337
49.400       333
49.420       333
49.440       317
49.460       343
49.480       287
49.500       310
49.520       360
49.540       330
49.560       290
49.580       367
49.600       353
49.620       247
49.640       263
49.660       380
49.680       253
49.700       390
49.720       293
49.740       300
49.760       283
49.780       300
49.800       280
49.820       310
49.840       337
49.860       357
49.880       343
49.900       307
49.920       297
49.940       377
49.960       320
49.980       300
50.000       317
50.020       297
50.040       323
50.060       280
50.080       283
50.100       333
50.120       327
50.140       247
50.160       260
50.180       290
50.200       260
50.220       343
50.240       323
50.260       347
50.280       380
50.300       380
50.320       357
50.340       353
50.360       333
50.380       277
50.400       263
50.420       320
50.440       327
50.460       297
50.480       260
50.500       347
50.520       300
50.540       343
50.560       390
50.580       397
50.600       340
50.620       357
50.640       337
50.660       307
50.680       357
50.700       333
50.720       353
50.740       317
50.760       307
50.780       330
50.800       297
50.820       327
50.840       347
50.860       270
50.880       337
50.900       273
50.920       310
50.940       320
50.960       350
50.980       327
51.000       293
51.020       333
51.040       273
51.060       277
51.080       320
51.100       440
51.120       340
51.140       327
51.160       300
51.180       317
51.200       277
51.220       320
51.240       340
51.260       367
51.280       277
51.300       270
51.320       290
51.340       277
51.360       290
51.380       310
51.400       283
51.420       313
51.440       300
51.460       303
51.480       353
51.500       347
51.520       357
51.540       340
51.560       323
51.580       280
51.600       333
51.620       377
51.640       353
51.660       330
51.680       360
51.700       300
51.720       320
51.740       353
51.760       297
51.780       347
51.800       280
51.820       357
51.840       310
51.860       317
51.880       323
51.900       280
51.920       423
51.940       337
51.960       323
51.980       317
52.000       303
52.020       300
52.040       340
52.060       333
52.080       293
52.100       310
52.120       340
52.140       293
52.160       280
52.180       300
52.200       340
52.220       290
52.240       327
52.260       287
52.280       283
52.300       287
52.320       337
52.340       317
52.360       273
52.380       310
52.400       313
52.420       340
52.440       280
52.460       263
52.480       330
52.500       317
52.520       377
52.540       310
52.560       310
52.580       310
52.600       363
52.620       313
52.640       323
52.660       313
52.680       290
52.700       317
52.720       300
52.740       257
52.760       377
52.780       310
52.800       320
52.820       280
52.840       310
52.860       293
52.880       347
52.900       277
52.920       263
52.940       237
52.960       353
52.980       280
53.000       273
53.020       270
53.040       337
53.060       260
53.080       323
53.100       303
53.120       270
53.140       307
53.160       247
53.180       327
53.200       320
53.220       337
53.240       323
53.260       310
53.280       270
53.300       360
53.320       313
53.340       287
53.360       343
53.380       347
53.400       357
53.420       360
53.440       317
53.460       273
53.480       313
53.500       300
53.520       343
53.540       333
53.560       367
53.580       293
53.600       223
53.620       360
53.640       340
53.660       297
53.680       307
53.700       297
53.720       347
53.740       287
53.760       327
53.780       297
53.800       363
53.820       327
53.840       223
53.860       363
53.880       347
53.900       367
53.920       290
53.940       390
53.960       333
53.980       383
54.000       360
54.020       383
54.040       383
54.060       460
54.080       533
54.100       616
54.120       680
54.140       763
54.160       813
54.180       933
54.200       936
54.220      1026
54.240      1146
54.260      1060
54.280      1123
54.300      1243
54.320      1250
54.340      1080
54.360      1080
54.380       976
54.400       950
54.420       946
54.440       780
54.460       810
54.480       736
54.500       633
54.520       573
54.540       583
54.560       576
54.580       476
54.600       377
54.620       390
54.640       347
54.660       360
54.680       360
54.700       363
54.720       370
54.740       343
54.760       387
54.780       283
54.800       340
54.820       323
54.840       363
54.860       297
54.880       313
54.900       283
54.920       343
54.940       303
54.960       270
54.980       350
55.000       330
55.020       373
55.040       333
55.060       340
55.080       273
55.100       347
55.120       340
55.140       323
55.160       323
55.180       267
55.200       327
55.220       350
55.240       327
55.260       320
55.280       263
55.300       257
55.320       303
55.340       360
55.360       300
55.380       267
55.400       287
55.420       320
55.440       270
55.460       267
55.480       270
55.500       290
55.520       283
55.540       300
55.560       273
55.580       317
55.600       313
55.620       290
55.640       303
55.660       300
55.680       323
55.700       327
55.720       300
55.740       267
55.760       223
55.780       283
55.800       280
55.820       280
55.840       280
55.860       287
55.880       310
55.900       293
55.920       310
55.940       267
55.960       310
55.980       220
56.000       347
56.020       257
56.040       247
56.060       287
56.080       333
56.100       350
56.120       270
56.140       287
56.160       333
56.180       307
56.200       287
56.220       327
56.240       327
56.260       327
56.280       340
56.300       390
56.320       310
56.340       310
56.360       340
56.380       280
56.400       307
56.420       330
56.440       300
56.460       270
56.480       337
56.500       363
56.520       333
56.540       310
56.560       323
56.580       353
56.600       357
56.620       323
56.640       313
56.660       310
56.680       303
56.700       337
56.720       263
56.740       280
56.760       303
56.780       297
56.800       310
56.820       300
56.840       283
56.860       317
56.880       360
56.900       230
56.920       367
56.940       277
56.960       337
56.980       330
57.000       343
57.020       330
57.040       310
57.060       323
57.080       400
57.100       310
57.120       347
57.140       373
57.160       290
57.180       297
57.200       323
57.220       387
57.240       347
57.260       350
57.280       293
57.300       283
57.320       297
57.340       297
57.360       287
57.380       303
57.400       357
57.420       337
57.440       283
57.460       243
57.480       230
57.500       250
57.520       263
57.540       300
57.560       243
57.580       293
57.600       250
57.620       247
57.640       280
57.660       337
57.680       303
57.700       330
57.720       297
57.740       327
57.760       340
57.780       327
57.800       253
57.820       297
57.840       387
57.860       220
57.880       240
57.900       353
57.920       320
57.940       307
57.960       290
57.980       297
58.000       257
58.020       267
58.040       247
58.060       283
58.080       273
58.100       323
58.120       323
58.140       310
58.160       347
58.180       300
58.200       270
58.220       283
58.240       303
58.260       290
58.280       300
58.300       297
58.320       297
58.340       270
58.360       267
58.380       283
58.400       277
58.420       283
58.440       307
58.460       320
58.480       293
58.500       267
58.520       300
58.540       243
58.560       287
58.580       273
58.600       327
58.620       257
58.640       303
58.660       313
58.680       267
58.700       287
58.720       260
58.740       273
58.760       263
58.780       243
58.800       213
58.820       320
58.840       323
58.860       300
58.880       280
58.900       260
58.920       330
58.940       287
58.960       243
58.980       257
59.000       330
59.020       297
59.040       297
59.060       247
59.080       283
59.100       310
59.120       283
59.140       253
59.160       267
59.180       260
59.200       323
59.220       357
59.240       280
59.260       323
59.280       233
59.300       283
59.320       300
59.340       310
59.360       313
59.380       320
59.400       333
59.420       250
59.440       283
59.460       247
59.480       333
59.500       317
59.520       237
59.540       290
59.560       330
59.580       303
59.600       317
59.620       283
59.640       307
59.660       280
59.680       340
59.700       337
59.720       293
59.740       307
59.760       310
59.780       287
59.800       277
59.820       360
59.840       313
59.860       303
59.880       277
59.900       327
59.920       350
59.940       293
59.960       303
59.980       313
60.000       273
