20.000       833
20.020       833
20.040       893
20.060       956
20.080       856
20.100       856
20.120       853
20.140       870
20.160       883
20.180       843
20.200       906
20.220       893
20.240       920
20.260       840
20.280       946
20.300       910
20.320       956
20.340       870
20.360       950
20.380       880
20.400       896
20.420       940
20.440       990
20.460       926
20.480       963
20.500       900
20.520       976
20.540       800
20.560       846
20.580       916
20.600       976
20.620       916
20.640      1053
20.660       876
20.680      1056
20.700       983
20.720       923
20.740       893
20.760       846
20.780       853
20.800       926
20.820       993
20.840       936
20.860       956
20.880       810
20.900       993
20.920       903
20.940       880
20.960       863
20.980       926
21.000       970
21.020       956
21.040       943
21.060       930
21.080       860
21.100       930
21.120       860
21.140       990
21.160      1033
21.180      1026
21.200      1113
21.220       880
21.240       990
21.260       973
21.280       970
21.300       980
21.320       950
21.340       963
21.360       950
21.380      1010
21.400       930
21.420       970
21.440       976
21.460       970
21.480       920
21.500       913
21.520      1046
21.540       903
21.560       986
21.580       973
21.600      1036
21.620       926
21.640       876
21.660      1066
21.680      1116
21.700       983
21.720      1066
21.740       956
21.760       960
21.780       903
21.800       933
21.820      1046
21.840      1020
21.860      1063
21.880      1136
21.900       990
21.920       963
21.940      1083
21.960      1070
21.980      1040
22.000      1030
22.020      1020
22.040      1096
22.060      1050
22.080      1123
22.100      1063
22.120      1016
22.140      1166
22.160      1153
22.180      1180
22.200      1060
22.220      1193
22.240      1183
22.260      1020
22.280      1023
22.300      1190
22.320      1289
22.340      1113
22.360      1156
22.380      1216
22.400      1220
22.420      1106
22.440      1246
22.460      1176
22.480      1299
22.500      1180
22.520      1233
22.540      1313
22.560      1193
22.580      1206
22.600      1213
22.620      1233
22.640      1236
22.660      1186
22.680      1163
22.700      1313
22.720      1243
22.740      1276
22.760      1339
22.780      1266
22.800      1173
22.820      1369
22.840      1216
22.860      1453
22.880      1273
22.900      1473
22.920      1349
22.940      1426
22.960      1436
22.980      1463
23.000      1426
23.020      1456
23.040      1486
23.060      1529
23.080      1689
23.100      1863
23.120      2066
23.140      2526
23.160      2626
23.180      2712
23.200      2426
23.220      1746
23.240      1523
23.260      1449
23.280      1439
23.300      1626
23.320      1509
23.340      1526
23.360      1499
23.380      1536
23.400      1576
23.420      1599
23.440      1516
23.460      1513
23.480      1376
23.500      1513
23.520      1523
23.540      1549
23.560      1446
23.580      1539
23.600      1473
23.620      1613
23.640      1533
23.660      1449
23.680      1679
23.700      1649
23.720      1643
23.740      1673
23.760      1646
23.780      1473
23.800      1626
23.820      1566
23.840      1613
23.860      1529
23.880      1556
23.900      1603
23.920      1536
23.940      1613
23.960      1676
23.980      1576
24.000      1613
24.020      1649
24.040      1676
24.060      1599
24.080      1509
24.100      1553
24.120      1623
24.140      1623
24.160      1653
24.180      1553
24.200      1633
24.220      1619
24.240      1596
24.260      1686
24.280      1649
24.300      1529
24.320      1536
24.340      1739
24.360      1659
24.380      1626
24.400      1696
24.420      1569
24.440      1723
24.460      1599
24.480      1729
24.500      1646
24.520      1709
24.540      1769
24.560      1733
24.580      1879
24.600      1843
24.620      1959
24.640      1843
24.660      1693
24.680      1753
24.700      1819
24.720      1889
24.740      1773
24.760      1893
24.780      2053
24.800      2286
24.820      2296
24.840      2469
24.860      2312
24.880      2352
24.900      2439
24.920      2369
24.940      2369
24.960      2482
24.980      2386
25.000      2379
25.020      2342
25.040      2302
25.060      2379
25.080      2376
25.100      2516
25.120      2526
25.140      2509
25.160      2486
25.180      2586
25.200      2619
25.220      2719
25.240      2612
25.260      2792
25.280      3052
25.300      3419
25.320      3915
25.340      4958
25.360      6221
25.380      7520
25.400      9240
25.420     11595
25.440     12405
25.460     13745
25.480     15197
25.500     16877
25.520     18259
25.540     21428
25.560     29052
25.580     49387
25.600     71631
25.620    101703
25.640    130751
25.660    161142
25.680    172917
25.700    136972
25.720     94659
25.740     88315
25.760     63048
25.780     23191
25.800      8747
25.820      5834
25.840      4928
25.860      4285
25.880      3875
25.900      3775
25.920      3415
25.940      3329
25.960      3215
25.980      3252
26.000      3065
26.020      2982
26.040      2842
26.060      2949
26.080      2849
26.100      2982
26.120      2892
26.140      2689
26.160      2652
26.180      2432
26.200      2832
26.220      2716
26.240      2626
26.260      2739
26.280      2616
26.300      2759
26.320      2649
26.340      2599
26.360      2656
26.380      2596
26.400      2602
26.420      2732
26.440      2652
26.460      2502
26.480      2699
26.500      2709
26.520      2569
26.540      2669
26.560      2526
26.580      2579
26.600      2569
26.620      2406
26.640      2649
26.660      2502
26.680      2606
26.700      2369
26.720      2536
26.740      2579
26.760      2539
26.780      2519
26.800      2419
26.820      2522
26.840      2412
26.860      2492
26.880      2382
26.900      2399
26.920      2352
26.940      2439
26.960      2276
26.980      2406
27.000      2502
27.020      2362
27.040      2316
27.060      2359
27.080      2632
27.100      2232
27.120      2399
27.140      2482
27.160      2526
27.180      2422
27.200      2502
27.220      2376
27.240      2556
27.260      2356
27.280      2312
27.300      2386
27.320      2226
27.340      2326
27.360      2339
27.380      2226
27.400      2299
27.420      2219
27.440      2239
27.460      2302
27.480      2526
27.500      2279
27.520      2372
27.540      2169
27.560      2476
27.580      2146
27.600      2329
27.620      2362
27.640      2139
27.660      2259
27.680      2166
27.700      2356
27.720      2179
27.740      2212
27.760      2069
27.780      2142
27.800      2102
27.820      2239
27.840      2066
27.860      2299
27.880      2222
27.900      2336
27.920      2269
27.940      1943
27.960      2289
27.980      2162
28.000      2262
28.020      2206
28.040      2222
28.060      2306
28.080      2206
28.100      2206
28.120      2246
28.140      1929
28.160      2316
28.180      2162
28.200      2276
28.220      2282
28.240      2286
28.260      2219
28.280      2202
28.300      2289
28.320      2189
28.340      2023
28.360      2112
28.380      2212
28.400      2282
28.420      2369
28.440      2132
28.460      2252
28.480      2156
28.500      1939
28.520      2142
28.540      2109
28.560      2116
28.580      2189
28.600      2076
28.620      2019
28.640      2119
28.660      2043
28.680      2176
28.700      2142
28.720      2186
28.740      2099
28.760      2149
28.780      2212
28.800      2043
28.820      2016
28.840      2142
28.860      2056
28.880      2212
28.900      2209
28.920      2023
28.940      2126
28.960      2132
28.980      1919
29.000      2013
29.020      2016
29.040      2053
29.060      2019
29.080      1979
29.100      2033
29.120      1913
29.140      2043
29.160      1893
29.180      1909
29.200      1843
29.220      1779
29.240      1933
29.260      1846
29.280      1866
29.300      1946
29.320      1919
29.340      1843
29.360      1903
29.380      1849
29.400      1903
29.420      1853
29.440      1796
29.460      1863
29.480      1946
29.500      1736
29.520      1789
29.540      1916
29.560      1799
29.580      1793
29.600      1753
29.620      1903
29.640      1869
29.660      1919
29.680      1726
29.700      1729
29.720      1743
29.740      1739
29.760      1786
29.780      1813
29.800      1756
29.820      1869
29.840      1909
29.860      1843
29.880      1923
29.900      1799
29.920      1909
29.940      1779
29.960      1836
29.980      1973
30.000      1849
30.020      1679
30.040      1809
30.060      1859
30.080      1859
30.100      1979
30.120      1816
30.140      1796
30.160      1866
30.180      2026
30.200      2006
30.220      2146
30.240      2043
30.260      2083
30.280      2236
30.300      2359
30.320      2426
30.340      2409
30.360      2496
30.380      2529
30.400      2392
30.420      2439
30.440      2559
30.460      2336
30.480      2386
30.500      2256
30.520      2176
30.540      2086
30.560      2196
30.580      2029
30.600      1913
30.620      1806
30.640      1769
30.660      1659
30.680      1673
30.700      1809
30.720      1763
30.740      1776
30.760      1803
30.780      1653
30.800      1666
30.820      1669
30.840      1633
30.860      1736
30.880      1853
30.900      1706
30.920      1589
30.940      1733
30.960      1739
30.980      1539
31.000      1593
31.020      1709
31.040      1579
31.060      1646
31.080      1596
31.100      1583
31.120      1686
31.140      1636
31.160      1553
31.180      1586
31.200      1433
31.220      1623
31.240      1479
31.260      1609
31.280      1573
31.300      1409
31.320      1576
31.340      1476
31.360      1503
31.380      1449
31.400      1516
31.420      1483
31.440      1429
31.460      1409
31.480      1399
31.500      1483
31.520      1446
31.540      1373
31.560      1443
31.580      1476
31.600      1523
31.620      1393
31.640      1343
31.660      1403
31.680      1516
31.700      1389
31.720      1413
31.740      1333
31.760      1389
31.780      1316
31.800      1443
31.820      1476
31.840      1356
31.860      1246
31.880      1559
31.900      1516
31.920      1346
31.940      1366
31.960      1256
31.980      1206
32.000      1456
32.020      1289
32.040      1413
32.060      1303
32.080      1156
32.100      1356
32.120      1349
32.140      1306
32.160      1253
32.180      1243
32.200      1393
32.220      1313
32.240      1253
32.260      1269
32.280      1293
32.300      1259
32.320      1266
32.340      1250
32.360      1193
32.380      1299
32.400      1316
32.420      1293
32.440      1289
32.460      1166
32.480      1196
32.500      1176
32.520      1279
32.540      1253
32.560      1303
32.580      1316
32.600      1220
32.620      1279
32.640      1213
32.660      1173
32.680      1226
32.700      1266
32.720      1279
32.740      1296
32.760      1150
32.780      1193
32.800      1176
32.820      1113
32.840      1100
32.860      1269
32.880      1163
32.900      1180
32.920      1010
32.940      1170
32.960      1050
32.980      1133
33.000      1186
33.020      1026
33.040      1113
33.060      1133
33.080      1180
33.100      1150
33.120      1110
33.140      1043
33.160      1160
33.180       996
33.200      1093
33.220      1093
33.240      1103
33.260      1120
33.280      1166
33.300      1073
33.320      1106
33.340      1036
33.360      1103
33.380      1036
33.400      1116
33.420      1096
33.440      1080
33.460      1143
33.480      1110
33.500      1083
33.520      1100
33.540      1126
33.560      1056
33.580      1036
33.600      1000
33.620      1056
33.640      1100
33.660      1060
33.680      1023
33.700      1086
33.720      1083
33.740      1106
33.760      1013
33.780       973
33.800      1100
33.820      1053
33.840      1106
33.860      1046
33.880      1110
33.900      1110
33.920      1020
33.940      1053
33.960       986
33.980      1006
34.000      1006
34.020       990
34.040      1076
34.060       916
34.080       996
34.100       986
34.120      1036
34.140      1103
34.160       900
34.180      1043
34.200       990
34.220      1123
34.240       920
34.260       930
34.280       926
34.300       926
34.320       946
34.340       970
34.360       950
34.380       970
34.400       943
34.420       953
34.440       993
34.460      1013
34.480       963
34.500      1030
34.520       923
34.540      1043
34.560       933
34.580      1000
34.600      1073
34.620       883
34.640       960
34.660       950
34.680       926
34.700       946
34.720       973
34.740       920
34.760       963
34.780       940
34.800       980
34.820      1000
34.840       923
34.860       866
34.880       923
34.900       910
34.920       843
34.940       956
34.960       886
34.980       976
35.000       806
35.020       866
35.040       923
35.060       840
35.080       946
35.100       973
35.120       833
35.140       853
35.160       890
35.180       900
35.200       843
35.220       943
35.240       860
35.260       826
35.280       830
35.300       856
35.320       820
35.340       850
35.360       796
35.380       820
35.400       860
35.420       843
35.440       856
35.460       803
35.480       906
35.500       910
35.520       830
35.540       946
35.560       860
35.580       803
35.600       833
35.620       850
35.640       866
35.660       856
35.680       810
35.700       776
35.720       866
35.740       870
35.760       933
35.780       920
35.800       776
35.820       913
35.840       766
35.860       866
35.880       846
35.900       700
35.920       740
35.940       893
35.960       786
35.980       783
36.000       770
36.020       796
36.040       746
36.060       783
36.080       840
36.100       800
36.120       790
36.140       823
36.160       846
36.180       746
36.200       883
36.220       686
36.240       683
36.260       713
36.280       740
36.300       773
36.320       766
36.340       823
36.360       816
36.380       736
36.400       726
36.420       800
36.440       773
36.460       786
36.480       780
36.500       720
36.520       796
36.540       790
36.560       790
36.580       746
36.600       746
36.620       703
36.640       730
36.660       750
36.680       813
36.700       723
36.720       706
36.740       893
36.760       813
36.780       846
36.800       723
36.820       696
36.840       680
36.860       726
36.880       740
36.900       736
36.920       686
36.940       736
36.960       763
36.980       726
37.000       653
37.020       756
37.040       776
37.060       773
37.080       693
37.100       696
37.120       700
37.140       786
37.160       703
37.180       673
37.200       736
37.220       726
37.240       770
37.260       786
37.280       850
37.300       833
37.320       990
37.340      1056
37.360      1160
37.380      1183
37.400      1406
37.420      1503
37.440      1426
37.460      1773
37.480      1863
37.500      2043
37.520      2142
37.540      2099
37.560      2116
37.580      2096
37.600      1996
37.620      2053
37.640      1906
37.660      1673
37.680      1643
37.700      1596
37.720      1386
37.740      1313
37.760      1240
37.780      1046
37.800       940
37.820       983
37.840       746
37.860       790
37.880       790
37.900       766
37.920       726
37.940       673
37.960       650
37.980       616
38.000       690
38.020       690
38.040       656
38.060       656
38.080       646
38.100       790
38.120       670
38.140       730
38.160       630
38.180       683
38.200       663
38.220       660
38.240       600
38.260       670
38.280       710
38.300       663
38.320       650
38.340       656
38.360       650
38.380       676
38.400       610
38.420       733
38.440       630
38.460       650
38.480       600
38.500       560
38.520       616
38.540       623
38.560       710
38.580       596
38.600       586
38.620       686
38.640       596
38.660       630
38.680       593
38.700       666
38.720       520
38.740       596
38.760       626
38.780       596
38.800       673
38.820       603
38.840       700
38.860       630
38.880       693
38.900       566
38.920       646
38.940       716
38.960       643
38.980       613
39.000       656
39.020       586
39.040       696
39.060       570
39.080       580
39.100       606
39.120       583
39.140       676
39.160       643
39.180       523
39.200       660
39.220       600
39.240       563
39.260       640
39.280       640
39.300       516
39.320       586
39.340       643
39.360       596
39.380       526
39.400       520
39.420       550
39.440       590
39.460       610
39.480       593
39.500       586
39.520       603
39.540       563
39.560       536
39.580       513
39.600       523
39.620       500
39.640       560
39.660       550
39.680       580
39.700       583
39.720       650
39.740       626
39.760       576
39.780       566
39.800       586
39.820       526
39.840       633
39.860       513
39.880       616
39.900       610
39.920       530
39.940       573
39.960       506
39.980       630
40.000       626
40.020       593
40.040       563
40.060       583
40.080       546
40.100       530
40.120       506
40.140       483
40.160       513
40.180       556
40.200       523
40.220       570
40.240       533
40.260       610
40.280       553
40.300       503
40.320       513
40.340       520
40.360       516
40.380       570
40.400       513
40.420       613
40.440       550
40.460       563
40.480       540
40.500       553
40.520       473
40.540       523
40.560       540
40.580       520
40.600       573
40.620       516
40.640       583
40.660       530
40.680       546
40.700       546
40.720       433
40.740       540
40.760       576
40.780       583
40.800       510
40.820       526
40.840       593
40.860       576
40.880       596
40.900       490
40.920       516
40.940       553
40.960       560
40.980       573
41.000       490
41.020       520
41.040       530
41.060       513
41.080       496
41.100       636
41.120       560
41.140       456
41.160       543
41.180       523
41.200       533
41.220       570
41.240       550
41.260       630
41.280       576
41.300       500
41.320       506
41.340       603
41.360       590
41.380       510
41.400       490
41.420       593
41.440       463
41.460       453
41.480       550
41.500       543
41.520       580
41.540       576
41.560       530
41.580       503
41.600       560
41.620       603
41.640       560
41.660       580
41.680       433
41.700       520
41.720       566
41.740       460
41.760       456
41.780       526
41.800       476
41.820       563
41.840       523
41.860       590
41.880       530
41.900       460
41.920       593
41.940       490
41.960       470
41.980       520
42.000       466
42.020       513
42.040       460
42.060       566
42.080       570
42.100       506
42.120       516
42.140       556
42.160       570
42.180       530
42.200       536
42.220       530
42.240       530
42.260       533
42.280       440
42.300       500
42.320       513
42.340       503
42.360       490
42.380       500
42.400       410
42.420       580
42.440       603
42.460       600
42.480       626
42.500       546
42.520       583
42.540       506
42.560       643
42.580       476
42.600       500
42.620       610
42.640       603
42.660       503
42.680       490
42.700       417
42.720       600
42.740       576
42.760       556
42.780       500
42.800       493
42.820       570
42.840       556
42.860       570
42.880       616
42.900       510
42.920       490
42.940       590
42.960       543
42.980       540
43.000       520
43.020       486
43.040       400
43.060       546
43.080       510
43.100       543
43.120       530
43.140       536
43.160       496
43.180       483
43.200       556
43.220       476
43.240       576
43.260       566
43.280       553
43.300       520
43.320       510
43.340       503
43.360       553
43.380       550
43.400       456
43.420       433
43.440       430
43.460       503
43.480       460
43.500       556
43.520       540
43.540       576
43.560       493
43.580       546
43.600       596
43.620       560
43.640       546
43.660       533
43.680       500
43.700       520
43.720       563
43.740       500
43.760       530
43.780       586
43.800       496
43.820       566
43.840       476
43.860       586
43.880       513
43.900       483
43.920       493
43.940       520
43.960       473
43.980       496
44.000       466
44.020       530
44.040       520
44.060       493
44.080       550
44.100       516
44.120       530
44.140       536
44.160       520
44.180       553
44.200       470
44.220       490
44.240       393
44.260       473
44.280       490
44.300       476
44.320       543
44.340       516
44.360       513
44.380       433
44.400       483
44.420       506
44.440       530
44.460       473
44.480       453
44.500       486
44.520       483
44.540       543
44.560       466
44.580       476
44.600       463
44.620       433
44.640       456
44.660       510
44.680       540
44.700       473
44.720       593
44.740       520
44.760       486
44.780       516
44.800       470
44.820       426
44.840       573
44.860       506
44.880       486
44.900       453
44.920       420
44.940       496
44.960       460
44.980       463
45.000       493
45.020       486
45.040       476
45.060       473
45.080       510
45.100       463
45.120       463
45.140       463
45.160       476
45.180       543
45.200       520
45.220       490
45.240       513
45.260       513
45.280       510
45.300       506
45.320       470
45.340       423
45.360       490
45.380       470
45.400       473
45.420       526
45.440       440
45.460       450
45.480       430
45.500       463
45.520       496
45.540       500
45.560       506
45.580       423
45.600       573
45.620       430
45.640       433
45.660       546
45.680       583
45.700       463
45.720       513
45.740       483
45.760       466
45.780       483
45.800       500
45.820       523
45.840       510
45.860       420
45.880       536
45.900       460
45.920       520
45.940       586
45.960       423
45.980       503
46.000       483
46.020       496
46.040       570
46.060       420
46.080       420
46.100       576
46.120       610
46.140       543
46.160       540
46.180       450
46.200       440
46.220       500
46.240       470
46.260       450
46.280       576
46.300       460
46.320       480
46.340       560
46.360       496
46.380       476
46.400       540
46.420       573
46.440       563
46.460       556
46.480       460
46.500       526
46.520       513
46.540       460
46.560       500
46.580       426
46.600       433
46.620       510
46.640       543
46.660       520
46.680       503
46.700       586
46.720       630
46.740       520
46.760       610
46.780       580
46.800       543
46.820       673
46.840       666
46.860       690
46.880       650
46.900       746
46.920       676
46.940       666
46.960       713
46.980       570
47.000       730
47.020       740
47.040       823
47.060       956
47.080       940
47.100      1136
47.120      1653
47.140      2349
47.160      3359
47.180      4028
47.200      4438
47.220      4375
47.240      4638
47.260      3918
47.280      2819
47.300      1863
47.320      1213
47.340      1036
47.360       846
47.380       866
47.400       760
47.420       786
47.440       746
47.460       700
47.480       693
47.500       626
47.520       660
47.540       620
47.560       646
47.580       663
47.600       590
47.620       626
47.640       630
47.660       520
47.680       520
47.700       560
47.720       563
47.740       623
47.760       646
47.780       470
47.800       593
47.820       506
47.840       526
47.860       586
47.880       530
47.900       556
47.920       646
47.940       613
47.960       523
47.980       606
48.000       486
48.020       583
48.040       590
48.060       626
48.080       610
48.100       590
48.120       573
48.140       596
48.160       560
48.180       593
48.200       556
48.220       606
48.240       586
48.260       586
48.280       593
48.300       576
48.320       660
48.340       523
48.360       473
48.380       483
48.400       580
48.420       503
48.440       580
48.460       580
48.480       533
48.500       613
48.520       533
48.540       583
48.560       533
48.580       550
48.600       560
48.620       456
48.640       493
48.660       556
48.680       586
48.700       493
48.720       503
48.740       560
48.760       483
48.780       546
48.800       480
48.820       523
48.840       417
48.860       536
48.880       483
48.900       516
48.920       460
48.940       536
48.960       510
48.980       496
49.000       536
49.020       486
49.040       520
49.060       503
49.080       483
49.100       486
49.120       483
49.140       493
49.160       510
49.180       520
49.200       490
49.220       536
49.240       553
49.260       566
49.280       413
49.300       523
49.320       523
49.340       500
49.360       483
49.380       493
49.400       506
49.420       506
49.440       493
49.460       530
49.480       526
49.500       473
49.520       480
49.540       536
49.560       533
49.580       520
49.600       470
49.620       510
49.640       466
49.660       493
49.680       503
49.700       556
49.720       460
49.740       500
49.760       540
49.780       493
49.800       563
49.820       456
49.840       493
49.860       426
49.880       573
49.900       440
49.920       510
49.940       436
49.960       520
49.980       480
50.000       516
50.020       516
50.040       513
50.060       560
50.080       520
50.100       543
50.120       500
50.140       510
50.160       530
50.180       483
50.200       546
50.220       520
50.240       453
50.260       503
50.280       493
50.300       513
50.320       570
50.340       523
50.360       473
50.380       550
50.400       520
50.420       523
50.440       540
50.460       536
50.480       503
50.500       600
50.520       580
50.540       556
50.560       650
50.580       613
50.600       766
50.620       776
50.640       913
50.660      1103
50.680      1306
50.700      1433
50.720      1629
50.740      1769
50.760      1949
50.780      1743
50.800      1869
50.820      1893
50.840      1689
50.860      1703
50.880      1783
50.900      1939
50.920      1739
50.940      1926
50.960      1893
50.980      1959
51.000      1963
51.020      1883
51.040      1826
51.060      1726
51.080      1853
51.100      1773
51.120      1866
51.140      1846
51.160      1883
51.180      1836
51.200      2019
51.220      1939
51.240      1766
51.260      1843
51.280      1849
51.300      2009
51.320      1769
51.340      1896
51.360      2009
51.380      1976
51.400      1986
51.420      1833
51.440      1886
51.460      2033
51.480      1903
51.500      1913
51.520      1863
51.540      1926
51.560      1966
51.580      1803
51.600      1836
51.620      1889
51.640      1943
51.660      2036
51.680      2122
51.700      2006
51.720      2086
51.740      1989
51.760      1986
51.780      2139
51.800      2199
51.820      2229
51.840      2212
51.860      2209
51.880      2236
51.900      2339
51.920      2349
51.940      2396
51.960      2292
51.980      2349
52.000      2502
52.020      2529
52.040      2599
52.060      2876
52.080      2909
52.100      3069
52.120      3002
52.140      3325
52.160      3582
52.180      3845
52.200      4185
52.220      4631
52.240      5148
52.260      6224
52.280      7760
52.300     10422
52.320     13748
52.340     16760
52.360     20192
52.380     24564
52.400     27899
52.420     31534
52.440     35179
52.460     41130
52.480     50750
52.500     71311
52.520    126329
52.540    202362
52.560    248157
52.580    268396
52.600    280654
52.620    284819
52.640    286036
52.660    272041
52.680    230571
52.700    195855
52.720    190830
52.740    197421
52.760    201436
52.780    197651
52.800    168409
52.820    104908
52.840     49010
52.860     24417
52.880     15884
52.900     12059
52.920      9749
52.940      8243
52.960      7130
52.980      6134
53.000      5654
53.020      4908
53.040      4688
53.060      4418
53.080      4022
53.100      3902
53.120      3709
53.140      3452
53.160      3202
53.180      3165
53.200      3069
53.220      2969
53.240      2919
53.260      2682
53.280      2696
53.300      2776
53.320      2652
53.340      2439
53.360      2396
53.380      2416
53.400      2359
53.420      2332
53.440      2276
53.460      2216
53.480      2189
53.500      2169
53.520      1966
53.540      1973
53.560      2069
53.580      1979
53.600      2102
53.620      1993
53.640      1909
53.660      1889
53.680      1863
53.700      1869
53.720      1886
53.740      1999
53.760      1863
53.780      1849
53.800      1959
53.820      1803
53.840      1863
53.860      2009
53.880      1956
53.900      1839
53.920      1973
53.940      2039
53.960      2156
53.980      2019
54.000      2219
54.020      2132
54.040      2129
54.060      2092
54.080      2186
54.100      2066
54.120      2179
54.140      2236
54.160      2179
54.180      2112
54.200      2159
54.220      2166
54.240      1873
54.260      2019
54.280      1906
54.300      1886
54.320      1763
54.340      1806
54.360      1783
54.380      1689
54.400      1863
54.420      1726
54.440      1583
54.460      1536
54.480      1526
54.500      1646
54.520      1506
54.540      1609
54.560      1543
54.580      1513
54.600      1503
54.620      1466
54.640      1486
54.660      1373
54.680      1529
54.700      1419
54.720      1363
54.740      1423
54.760      1383
54.780      1399
54.800      1389
54.820      1379
54.840      1356
54.860      1429
54.880      1326
54.900      1386
54.920      1226
54.940      1349
54.960      1339
54.980      1356
55.000      1289
55.020      1393
55.040      1293
55.060      1333
55.080      1286
55.100      1173
55.120      1396
55.140      1379
55.160      1336
55.180      1309
55.200      1373
55.220      1163
55.240      1269
55.260      1273
55.280      1163
55.300      1363
55.320      1293
55.340      1293
55.360      1190
55.380      1279
55.400      1223
55.420      1206
55.440      1273
55.460      1103
55.480      1246
55.500      1203
55.520      1210
55.540      1226
55.560      1213
55.580      1240
55.600      1180
55.620      1096
55.640      1210
55.660      1190
55.680      1236
55.700      1183
55.720      1186
55.740      1253
55.760      1253
55.780      1246
55.800      1236
55.820      1230
55.840      1196
55.860      1230
55.880      1183
55.900      1166
55.920      1160
55.940      1230
55.960      1266
55.980      1276
56.000      1253
56.020      1203
56.040      1256
56.060      1216
56.080      1306
56.100      1240
56.120      1250
56.140      1110
56.160      1210
56.180      1083
56.200      1166
56.220      1299
56.240      1256
56.260      1263
56.280      1289
56.300      1349
56.320      1213
56.340      1130
56.360      1236
56.380      1133
56.400      1276
56.420      1256
56.440      1386
56.460      1293
56.480      1289
56.500      1259
