55.000         0
55.020         0
55.040       393
55.060      1283
55.080      1150
55.100      1339
55.120      1293
55.140      1230
55.160      1326
55.180      1176
55.200      1253
55.220      1326
55.240      1333
55.260      1323
55.280      1193
55.300      1193
55.320      1329
55.340      1250
55.360      1220
55.380      1336
55.400      1246
55.420      1236
55.440      1126
55.460      1236
55.480      1193
55.500      1236
55.520      1133
55.540      1093
55.560      1126
55.580      1190
55.600      1230
55.620      1216
55.640      1276
55.660      1220
55.680      1140
55.700      1233
55.720      1230
55.740      1173
55.760      1166
55.780      1070
55.800      1150
55.820      1060
55.840      1190
55.860      1096
55.880      1173
55.900      1090
55.920      1103
55.940      1180
55.960      1046
55.980      1010
56.000      1156
56.020      1200
56.040      1073
56.060      1140
56.080      1090
56.100      1170
56.120      1186
56.140      1103
56.160      1220
56.180      1083
56.200      1146
56.220      1106
56.240      1183
56.260      1153
56.280      1056
56.300      1093
56.320      1010
56.340      1040
56.360      1120
56.380       966
56.400      1123
56.420      1090
56.440      1033
56.460      1013
56.480      1186
56.500      1093
56.520      1110
56.540      1113
56.560      1050
56.580      1063
56.600      1056
56.620      1056
56.640       970
56.660      1003
56.680      1066
56.700      1046
56.720      1046
56.740      1093
56.760      1043
56.780       996
56.800      1053
56.820       940
56.840      1020
56.860       970
56.880      1113
56.900       930
56.920      1023
56.940       980
56.960      1036
56.980      1070
57.000      1033
57.020      1043
57.040      1010
57.060      1146
57.080      1033
57.100      1060
57.120      1140
57.140      1003
57.160       916
57.180      1026
57.200       946
57.220       916
57.240      1000
57.260       966
57.280      1050
57.300       956
57.320      1000
57.340       983
57.360       973
57.380       880
57.400       873
57.420      1046
57.440       906
57.460       870
57.480       906
57.500       893
57.520       996
57.540       863
57.560      1076
57.580       910
57.600      1010
57.620       920
57.640       906
57.660       993
57.680      1023
57.700       930
57.720       906
57.740       963
57.760       923
57.780       923
57.800      1003
57.820       956
57.840       890
57.860       903
57.880       863
57.900       970
57.920       943
57.940       866
57.960       940
57.980       850
58.000       883
58.020       963
58.040       850
58.060       883
58.080       913
58.100       936
58.120       876
58.140       840
58.160       836
58.180       890
58.200       883
58.220       816
58.240       873
58.260       876
58.280       970
58.300       933
58.320       990
58.340       906
58.360       890
58.380       883
58.400       856
58.420       963
58.440       896
58.460       836
58.480       876
58.500       803
58.520       996
58.540       943
58.560       916
58.580       933
58.600       856
58.620       830
58.640       870
58.660       860
58.680       883
58.700       846
58.720       793
58.740       796
58.760       850
58.780       923
58.800       880
58.820       906
58.840       830
58.860       956
58.880       783
58.900       856
58.920       860
58.940       810
58.960       893
58.980       890
59.000       806
59.020       813
59.040       770
59.060       796
59.080       870
59.100       900
59.120       866
59.140       846
59.160       830
59.180       833
59.200       973
59.220       883
59.240       906
59.260       830
59.280       796
59.300       806
59.320       823
59.340       956
59.360       733
59.380       833
59.400       953
59.420       953
59.440       850
59.460       856
59.480       776
59.500       803
59.520       783
59.540       806
59.560       830
59.580       860
59.600       780
59.620       826
59.640       830
59.660       783
59.680       816
59.700       830
59.720       890
59.740       833
59.760       786
59.780       743
59.800       806
59.820       803
59.840       870
59.860       703
59.880       823
59.900       906
59.920       670
59.940       820
59.960       830
59.980       720
60.000       750
