20.000         0
20.020         0
20.040       920
20.060       863
20.080       750
20.100       836
20.120       780
20.140       976
20.160       800
20.180       903
20.200       823
20.220       863
20.240       906
20.260       800
20.280       820
20.300       740
20.320       883
20.340       803
20.360       816
20.380       796
20.400       836
20.420       783
20.440       923
20.460       746
20.480       743
20.500       753
20.520       916
20.540       826
20.560       850
20.580       733
20.600       753
20.620       776
20.640       850
20.660       833
20.680       860
20.700       816
20.720       760
20.740       920
20.760       766
20.780       866
20.800       790
20.820       840
20.840       813
20.860       783
20.880       710
20.900       746
20.920       826
20.940       813
20.960       886
20.980       716
21.000       820
21.020       833
21.040       823
21.060       883
21.080       770
21.100       816
21.120       806
21.140       806
21.160       806
21.180       760
21.200       760
21.220       743
21.240       700
21.260       773
21.280       736
21.300       756
21.320       756
21.340       836
21.360       726
21.380       756
21.400       800
21.420       773
21.440       743
21.460       826
21.480       710
21.500       786
21.520       783
21.540       763
21.560       703
21.580       780
21.600       813
21.620       786
21.640       710
21.660       716
21.680       813
21.700       666
21.720       673
21.740       783
21.760       730
21.780       726
21.800       673
21.820       830
21.840       676
21.860       736
21.880       706
21.900       766
21.920       790
21.940       646
21.960       790
21.980       680
22.000       803
22.020       660
22.040       676
22.060       770
22.080       733
22.100       706
22.120       700
22.140       566
22.160       670
22.180       723
22.200       750
22.220       646
22.240       680
22.260       690
22.280       743
22.300       726
22.320       646
22.340       700
22.360       716
22.380       700
22.400       653
22.420       710
22.440       743
22.460       623
22.480       703
22.500       746
22.520       700
22.540       626
22.560       760
22.580       613
22.600       603
22.620       696
22.640       653
22.660       706
22.680       633
22.700       676
22.720       656
22.740       623
22.760       630
22.780       696
22.800       723
22.820       720
22.840       656
22.860       683
22.880       726
22.900       636
22.920       586
22.940       686
22.960       670
22.980       696
23.000       620
23.020       700
23.040       660
23.060       630
23.080       660
23.100       696
23.120       683
23.140       583
23.160       593
23.180       713
23.200       636
23.220       603
23.240       670
23.260       650
23.280       713
23.300       696
23.320       586
23.340       566
23.360       593
23.380       616
23.400       636
23.420       633
23.440       723
23.460       623
23.480       556
23.500       756
23.520       670
23.540       646
23.560       663
23.580       573
23.600       640
23.620       663
23.640       553
23.660       630
23.680       583
23.700       566
23.720       596
23.740       563
23.760       593
23.780       633
23.800       710
23.820       596
23.840       576
23.860       606
23.880       616
23.900       613
23.920       566
23.940       616
23.960       636
23.980       690
24.000       703
24.020       656
24.040       670
24.060       566
24.080       513
24.100       593
24.120       663
24.140       636
24.160       653
24.180       503
24.200       603
24.220       640
24.240       613
24.260       600
24.280       590
24.300       626
24.320       613
24.340       626
24.360       640
24.380       653
24.400       550
24.420       593
24.440       563
24.460       560
24.480       560
24.500       536
24.520       633
24.540       570
24.560       573
24.580       516
24.600       540
24.620       563
24.640       653
24.660       626
24.680       563
24.700       730
24.720       570
24.740       600
24.760       593
24.780       543
24.800       626
24.820       556
24.840       573
24.860       596
24.880       543
24.900       583
24.920       643
24.940       580
24.960       576
24.980       613
25.000       560
25.020       600
25.040       600
25.060       556
25.080       603
25.100       593
25.120       676
25.140       553
25.160       633
25.180       570
25.200       553
25.220       460
25.240       600
25.260       590
25.280       543
25.300       553
25.320       553
25.340       603
25.360       640
25.380       533
25.400       613
25.420       500
25.440       573
25.460       696
25.480       540
25.500       580
25.520       630
25.540       576
25.560       606
25.580       536
25.600       570
25.620       516
25.640       543
25.660       593
25.680       503
25.700       576
25.720       563
25.740       526
25.760       653
25.780       533
25.800       640
25.820       510
25.840       526
25.860       650
25.880       536
25.900       496
25.920       530
25.940       526
25.960       603
25.980       496
26.000       663
26.020       493
26.040       526
26.060       563
26.080       610
26.100       580
26.120       533
26.140       626
26.160       543
26.180       503
26.200       583
26.220       523
26.240       593
26.260       580
26.280       586
26.300       573
26.320       563
26.340       523
26.360       560
26.380       520
26.400       573
26.420       486
26.440       573
26.460       546
26.480       583
26.500       523
26.520       516
26.540       620
26.560       506
26.580       533
26.600       536
26.620       566
26.640       570
26.660       600
26.680       573
26.700       570
26.720       586
26.740       546
26.760       563
26.780       556
26.800       496
26.820       586
26.840       560
26.860       546
26.880       620
26.900       470
26.920       550
26.940       523
26.960       546
26.980       596
27.000       523
27.020       606
27.040       576
27.060       483
27.080       516
27.100       466
27.120       563
27.140       550
27.160       546
27.180       523
27.200       513
27.220       616
27.240       593
27.260       510
27.280       530
27.300       580
27.320       450
27.340       483
27.360       520
27.380       506
27.400       510
27.420       513
27.440       486
27.460       490
27.480       500
27.500       556
27.520       480
27.540       536
27.560       520
27.580       520
27.600       463
27.620       510
27.640       520
27.660       496
27.680       530
27.700       430
27.720       523
27.740       526
27.760       476
27.780       516
27.800       523
27.820       553
27.840       480
27.860       500
27.880       553
27.900       553
27.920       443
27.940       540
27.960       530
27.980       450
28.000       513
28.020       543
28.040       506
28.060       506
28.080       430
28.100       483
28.120       490
28.140       503
28.160       393
28.180       453
28.200       453
28.220       456
28.240       510
28.260       373
28.280       460
28.300       443
28.320       463
28.340       463
28.360       490
28.380       503
28.400       473
28.420       460
28.440       380
28.460       486
28.480       397
28.500       466
28.520       460
28.540       420
28.560       463
28.580       423
28.600       430
28.620       403
28.640       393
28.660       433
28.680       483
28.700       566
28.720       443
28.740       420
28.760       440
28.780       543
28.800       506
28.820       440
28.840       466
28.860       410
28.880       400
28.900       460
28.920       473
28.940       476
28.960       533
28.980       377
29.000       500
29.020       510
29.040       483
29.060       456
29.080       410
29.100       440
29.120       466
29.140       513
29.160       460
29.180       476
29.200       446
29.220       460
29.240       453
29.260       446
29.280       420
29.300       440
29.320       486
29.340       510
29.360       483
29.380       436
29.400       483
29.420       460
29.440       540
29.460       456
29.480       506
29.500       536
29.520       450
29.540       520
29.560       526
29.580       510
29.600       510
29.620       440
29.640       536
29.660       556
29.680       616
29.700       543
29.720       613
29.740       570
29.760       533
29.780       670
29.800       700
29.820       736
29.840       716
29.860       820
29.880       703
29.900       816
29.920       880
29.940       856
29.960       976
29.980      1016
30.000      1200
30.020      1130
30.040      1123
30.060      1230
30.080      1306
30.100      1386
30.120      1556
30.140      1669
30.160      1519
30.180      1669
30.200      1779
30.220      1876
30.240      1943
30.260      2033
30.280      2149
30.300      2422
30.320      2506
30.340      2612
30.360      2869
30.380      2935
30.400      3065
30.420      3419
30.440      3545
30.460      3848
30.480      3882
30.500      4252
30.520      4245
30.540      4545
30.560      4388
30.580      4062
30.600      3965
30.620      3882
30.640      3542
30.660      3319
30.680      2686
30.700      2486
30.720      2019
30.740      1756
30.760      1399
30.780      1286
30.800      1030
30.820       936
30.840       783
30.860       633
30.880       593
30.900       570
30.920       510
30.940       483
30.960       566
30.980       540
31.000       513
31.020       443
31.040       516
31.060       450
31.080       476
31.100       413
31.120       400
31.140       443
31.160       456
31.180       446
31.200       493
31.220       470
31.240       373
31.260       493
31.280       483
31.300       473
31.320       433
31.340       400
31.360       377
31.380       473
31.400       390
31.420       436
31.440       380
31.460       426
31.480       400
31.500       373
31.520       380
31.540       410
31.560       440
31.580       413
31.600       373
31.620       340
31.640       400
31.660       320
31.680       443
31.700       436
31.720       430
31.740       420
31.760       470
31.780       390
31.800       413
31.820       350
31.840       400
31.860       393
31.880       370
31.900       357
31.920       397
31.940       450
31.960       453
31.980       407
32.000       483
32.020       353
32.040       313
32.060       380
32.080       433
32.100       403
32.120       377
32.140       393
32.160       347
32.180       410
32.200       417
32.220       400
32.240       393
32.260       363
32.280       426
32.300       357
32.320       360
32.340       443
32.360       483
32.380       323
32.400       340
32.420       370
32.440       350
32.460       333
32.480       397
32.500       387
32.520       367
32.540       337
32.560       383
32.580       413
32.600       413
32.620       407
32.640       413
32.660       403
32.680       426
32.700       426
32.720       397
32.740       357
32.760       373
32.780       347
32.800       393
32.820       357
32.840       367
32.860       343
32.880       397
32.900       430
32.920       363
32.940       337
32.960       357
32.980       360
33.000       377
33.020       397
33.040       310
33.060       370
33.080       323
33.100       343
33.120       373
33.140       370
33.160       426
33.180       330
33.200       433
33.220       343
33.240       436
33.260       330
33.280       297
33.300       317
33.320       387
33.340       407
33.360       360
33.380       413
33.400       270
33.420       350
33.440       397
33.460       350
33.480       360
33.500       327
33.520       317
33.540       323
33.560       323
33.580       397
33.600       380
33.620       323
33.640       363
33.660       413
33.680       333
33.700       353
33.720       363
33.740       340
33.760       390
33.780       383
33.800       363
33.820       367
33.840       310
33.860       323
33.880       413
33.900       430
33.920       333
33.940       350
33.960       423
33.980       410
34.000       410
34.020       413
34.040       387
34.060       393
34.080       486
34.100       373
34.120       347
34.140       370
34.160       357
34.180       320
34.200       407
34.220       370
34.240       397
34.260       370
34.280       330
34.300       337
34.320       297
34.340       350
34.360       310
34.380       360
34.400       320
34.420       440
34.440       323
34.460       400
34.480       307
34.500       347
34.520       280
34.540       360
34.560       350
34.580       340
34.600       307
34.620       377
34.640       307
34.660       357
34.680       357
34.700       253
34.720       337
34.740       343
34.760       297
34.780       307
34.800       293
34.820       330
34.840       347
34.860       373
34.880       360
34.900       247
34.920       337
34.940       320
34.960       363
34.980       307
35.000       397
35.020       323
35.040       390
35.060       330
35.080       337
35.100       357
35.120       277
35.140       287
35.160       267
35.180       360
35.200       320
35.220       327
35.240       307
35.260       357
35.280       323
35.300       360
35.320       320
35.340       377
35.360       290
35.380       337
35.400       347
35.420       350
35.440       317
35.460       313
35.480       340
35.500       330
35.520       287
35.540       333
35.560       367
35.580       327
35.600       403
35.620       373
35.640       347
35.660       363
35.680       463
35.700       387
35.720       513
35.740       476
35.760       460
35.780       483
35.800       500
35.820       520
35.840       480
35.860       496
35.880       496
35.900       417
35.920       383
35.940       360
35.960       363
35.980       327
36.000       330
36.020       317
36.040       280
36.060       307
36.080       383
36.100       337
36.120       340
36.140       317
36.160       340
36.180       347
36.200       350
36.220       313
36.240       333
36.260       370
36.280       277
36.300       303
36.320       370
36.340       363
36.360       320
36.380       303
36.400       307
36.420       383
36.440       390
36.460       320
36.480       383
36.500       387
36.520       287
36.540       383
36.560       343
36.580       383
36.600       380
36.620       420
36.640       303
36.660       360
36.680       323
36.700       413
36.720       390
36.740       337
36.760       393
36.780       387
36.800       403
36.820       307
36.840       347
36.860       450
36.880       383
36.900       323
36.920       383
36.940       443
36.960       407
36.980       393
37.000       340
37.020       420
37.040       390
37.060       367
37.080       460
37.100       377
37.120       373
37.140       490
37.160       506
37.180       530
37.200       516
37.220       633
37.240       540
37.260       630
37.280       676
37.300       643
37.320       783
37.340       733
37.360       773
37.380       856
37.400      1110
37.420      1056
37.440      1116
37.460      1213
37.480      1426
37.500      1743
37.520      1966
37.540      2216
37.560      2519
37.580      2692
37.600      3199
37.620      3489
37.640      4072
37.660      4585
37.680      5285
37.700      6038
37.720      6444
37.740      6914
37.760      6944
37.780      6777
37.800      6934
37.820      6437
37.840      5911
37.860      5298
37.880      4818
37.900      4075
37.920      3589
37.940      2769
37.960      2272
37.980      1723
38.000      1523
38.020      1223
38.040       960
38.060       843
38.080       670
38.100       606
38.120       543
38.140       500
38.160       506
38.180       486
38.200       443
38.220       496
38.240       410
38.260       440
38.280       510
38.300       476
38.320       397
38.340       503
38.360       523
38.380       470
38.400       426
38.420       503
38.440       436
38.460       506
38.480       530
38.500       523
38.520       490
38.540       486
38.560       513
38.580       513
38.600       573
38.620       576
38.640       466
38.660       526
38.680       550
38.700       486
38.720       526
38.740       536
38.760       503
38.780       566
38.800       553
38.820       580
38.840       513
38.860       576
38.880       543
38.900       533
38.920       613
38.940       546
38.960       563
38.980       596
39.000       600
39.020       666
39.040       550
39.060       613
39.080       620
39.100       600
39.120       706
39.140       753
39.160       780
39.180       816
39.200       826
39.220       926
39.240       893
39.260      1000
39.280      1086
39.300      1170
39.320      1200
39.340      1339
39.360      1353
39.380      1683
39.400      1719
39.420      1949
39.440      2249
39.460      2516
39.480      2945
39.500      3212
39.520      3815
39.540      4258
39.560      4955
39.580      5734
39.600      6721
39.620      7973
39.640      9176
39.660     10696
39.680     12455
39.700     15314
39.720     17413
39.740     19189
39.760     21411
39.780     22588
39.800     23967
39.820     23950
39.840     22631
39.860     20788
39.880     18772
39.900     16573
39.920     14104
39.940     11852
39.960      9596
39.980      7744
40.000      6168
40.020      4608
40.040      3599
40.060      2912
40.080      2472
40.100      1923
40.120      1803
40.140      1586
40.160      1396
40.180      1243
40.200      1083
40.220      1053
40.240      1073
40.260       893
40.280       843
40.300       800
40.320       806
40.340       726
40.360       793
40.380       650
40.400       613
40.420       656
40.440       636
40.460       610
40.480       610
40.500       643
40.520       526
40.540       553
40.560       570
40.580       526
40.600       540
40.620       490
40.640       476
40.660       450
40.680       560
40.700       470
40.720       450
40.740       470
40.760       446
40.780       496
40.800       570
40.820       403
40.840       430
40.860       426
40.880       420
40.900       446
40.920       370
40.940       470
40.960       423
40.980       473
41.000       506
41.020       413
41.040       403
41.060       370
41.080       463
41.100       476
41.120       423
41.140       393
41.160       440
41.180       387
41.200       360
41.220       417
41.240       423
41.260       420
41.280       393
41.300       380
41.320       337
41.340       343
41.360       403
41.380       403
41.400       380
41.420       337
41.440       367
41.460       310
41.480       430
41.500       367
41.520       313
41.540       347
41.560       333
41.580       387
41.600       323
41.620       340
41.640       313
41.660       340
41.680       367
41.700       333
41.720       430
41.740       370
41.760       287
41.780       287
41.800       343
41.820       347
41.840       340
41.860       337
41.880       397
41.900       363
41.920       393
41.940       363
41.960       353
41.980       373
42.000       350
42.020       367
42.040       340
42.060       343
42.080       343
42.100       333
42.120       330
42.140       360
42.160       317
42.180       350
42.200       287
42.220       343
42.240       357
42.260       323
42.280       333
42.300       380
42.320       317
42.340       300
42.360       323
42.380       307
42.400       313
42.420       360
42.440       300
42.460       363
42.480       310
42.500       317
42.520       283
42.540       303
42.560       377
42.580       267
42.600       300
42.620       300
42.640       310
42.660       293
42.680       280
42.700       353
42.720       290
42.740       353
42.760       317
42.780       370
42.800       280
42.820       360
42.840       360
42.860       353
42.880       297
42.900       350
42.920       313
42.940       340
42.960       253
42.980       310
43.000       297
43.020       370
43.040       323
43.060       283
43.080       303
43.100       300
43.120       330
43.140       357
43.160       310
43.180       353
43.200       297
43.220       370
43.240       367
43.260       320
43.280       343
43.300       317
43.320       270
43.340       337
43.360       310
43.380       310
43.400       373
43.420       390
43.440       300
43.460       333
43.480       330
43.500       320
43.520       307
43.540       283
43.560       333
43.580       313
43.600       340
43.620       310
43.640       300
43.660       293
43.680       360
43.700       367
43.720       400
43.740       390
43.760       317
43.780       343
43.800       370
43.820       380
43.840       430
43.860       400
43.880       340
43.900       333
43.920       417
43.940       367
43.960       337
43.980       290
44.000       363
44.020       363
44.040       400
44.060       370
44.080       330
44.100       307
44.120       333
44.140       307
44.160       357
44.180       290
44.200       290
44.220       313
44.240       340
44.260       323
44.280       227
44.300       297
44.320       337
44.340       287
44.360       297
44.380       257
44.400       267
44.420       330
44.440       257
44.460       270
44.480       310
44.500       270
44.520       370
44.540       327
44.560       280
44.580       267
44.600       283
44.620       287
44.640       313
44.660       303
44.680       260
44.700       310
44.720       290
44.740       313
44.760       263
44.780       323
44.800       313
44.820       293
44.840       290
44.860       280
44.880       337
44.900       290
44.920       310
44.940       293
44.960       330
44.980       257
45.000       247
45.020       347
45.040       270
45.060       280
45.080       317
45.100       300
45.120       287
45.140       280
45.160       247
45.180       283
45.200       267
45.220       287
45.240       270
45.260       280
45.280       237
45.300       267
45.320       317
45.340       243
45.360       357
45.380       280
45.400       250
45.420       327
45.440       300
45.460       293
45.480       337
45.500       283
45.520       310
45.540       293
45.560       253
45.580       307
45.600       313
45.620       287
45.640       290
45.660       310
45.680       293
45.700       263
45.720       257
45.740       303
45.760       283
45.780       267
45.800       240
45.820       313
45.840       333
45.860       243
45.880       267
45.900       260
45.920       267
45.940       337
45.960       330
45.980       350
46.000       313
46.020       360
46.040       347
46.060       347
46.080       320
46.100       370
46.120       400
46.140       473
46.160       453
46.180       510
46.200       543
46.220       610
46.240       626
46.260       670
46.280       836
46.300       790
46.320       886
46.340       786
46.360       783
46.380       743
46.400       663
46.420       660
46.440       606
46.460       550
46.480       540
46.500       483
46.520       433
46.540       403
46.560       307
46.580       310
46.600       343
46.620       303
46.640       260
46.660       277
46.680       280
46.700       330
46.720       317
46.740       277
46.760       233
46.780       267
46.800       267
46.820       300
46.840       280
46.860       240
46.880       300
46.900       253
46.920       267
46.940       303
46.960       280
46.980       317
47.000       260
47.020       247
47.040       307
47.060       290
47.080       240
47.100       240
47.120       247
47.140       240
47.160       317
47.180       243
47.200       200
47.220       207
47.240       220
47.260       243
47.280       280
47.300       213
47.320       310
47.340       207
47.360       267
47.380       247
47.400       250
47.420       287
47.440       263
47.460       263
47.480       233
47.500       247
47.520       230
47.540       220
47.560       250
47.580       310
47.600       260
47.620       247
47.640       257
47.660       277
47.680       227
47.700       270
47.720       303
47.740       290
47.760       260
47.780       227
47.800       263
47.820       253
47.840       307
47.860       287
47.880       290
47.900       287
47.920       293
47.940       210
47.960       223
47.980       287
48.000       277
48.020       273
48.040       240
48.060       247
48.080       237
48.100       213
48.120       290
48.140       223
48.160       270
48.180       237
48.200       237
48.220       223
48.240       267
48.260       227
48.280       247
48.300       233
48.320       283
48.340       293
48.360       200
48.380       233
48.400       293
48.420       233
48.440       220
48.460       270
48.480       223
48.500       253
48.520       270
48.540       277
48.560       233
48.580       257
48.600       300
48.620       240
48.640       303
48.660       303
48.680       253
48.700       317
48.720       340
48.740       317
48.760       270
48.780       247
48.800       280
48.820       267
48.840       283
48.860       193
48.880       253
48.900       300
48.920       280
48.940       203
48.960       217
48.980       223
49.000       297
49.020       250
49.040       207
49.060       250
49.080       183
49.100       240
49.120       267
49.140       290
49.160       293
49.180       220
49.200       257
49.220       313
49.240       287
49.260       267
49.280       283
49.300       270
49.320       313
49.340       240
49.360       217
49.380       293
49.400       313
49.420       293
49.440       263
49.460       283
49.480       293
49.500       227
49.520       233
49.540       300
49.560       203
49.580       243
49.600       237
49.620       263
49.640       260
49.660       250
49.680       273
49.700       247
49.720       290
49.740       213
49.760       247
49.780       323
49.800       253
49.820       217
49.840       300
49.860       227
49.880       207
49.900       257
49.920       257
49.940       203
49.960       233
49.980       230
50.000       307
50.020       223
50.040       250
50.060       277
50.080       283
50.100       227
50.120       230
50.140       237
50.160       237
50.180       290
50.200       250
50.220       230
50.240       237
50.260       237
50.280       260
50.300       303
50.320       283
50.340       210
50.360       313
50.380       267
50.400       247
50.420       260
50.440       240
50.460       227
50.480       260
50.500       287
50.520       257
50.540       247
50.560       270
50.580       297
50.600       280
50.620       317
50.640       260
50.660       260
50.680       250
50.700       267
50.720       263
50.740       287
50.760       280
50.780       297
50.800       267
50.820       293
50.840       240
50.860       310
50.880       287
50.900       290
50.920       283
50.940       293
50.960       227
50.980       280
51.000       283
51.020       240
51.040       240
51.060       267
51.080       260
51.100       273
51.120       330
51.140       267
51.160       273
51.180       317
51.200       300
51.220       300
51.240       287
51.260       243
51.280       297
51.300       317
51.320       267
51.340       313
51.360       330
51.380       290
51.400       283
51.420       353
51.440       293
51.460       203
51.480       313
51.500       293
51.520       297
51.540       230
51.560       337
51.580       260
51.600       327
51.620       293
51.640       290
51.660       257
51.680       343
51.700       263
51.720       343
51.740       337
51.760       307
51.780       283
51.800       273
51.820       260
51.840       267
51.860       307
51.880       323
51.900       330
51.920       320
51.940       317
51.960       323
51.980       313
52.000       327
52.020       330
52.040       313
52.060       273
52.080       320
52.100       347
52.120       290
52.140       303
52.160       303
52.180       310
52.200       313
52.220       293
52.240       327
52.260       320
52.280       260
52.300       353
52.320       317
52.340       313
52.360       273
52.380       263
52.400       340
52.420       297
52.440       320
52.460       323
52.480       310
52.500       273
52.520       320
52.540       403
52.560       267
52.580       343
52.600       303
52.620       290
52.640       297
52.660       340
52.680       303
52.700       283
52.720       310
52.740       330
52.760       267
52.780       273
52.800       283
52.820       357
52.840       297
52.860       330
52.880       327
52.900       340
52.920       323
52.940       233
52.960       323
52.980       300
53.000       333
53.020       287
53.040       327
53.060       310
53.080       253
53.100       310
53.120       383
53.140       287
53.160       290
53.180       297
53.200       333
53.220       337
53.240       247
53.260       310
53.280       327
53.300       310
53.320       323
53.340       353
53.360       310
53.380       300
53.400       290
53.420       257
53.440       287
53.460       340
53.480       267
53.500       240
53.520       263
53.540       303
53.560       223
53.580       340
53.600       323
53.620       330
53.640       323
53.660       283
53.680       320
53.700       280
53.720       277
53.740       287
53.760       383
53.780       360
53.800       333
53.820       350
53.840       340
53.860       320
53.880       247
53.900       390
53.920       363
53.940       400
53.960       463
53.980       433
54.000       456
54.020       433
54.040       513
54.060       553
54.080       560
54.100       693
54.120       713
54.140       796
54.160       796
54.180       980
54.200      1016
54.220      1136
54.240      1240
54.260      1369
54.280      1503
54.300      1669
54.320      1966
54.340      2073
54.360      2256
54.380      2306
54.400      2416
54.420      2539
54.440      2596
54.460      2609
54.480      2622
54.500      2599
54.520      2686
54.540      2599
54.560      2716
54.580      2506
54.600      2246
54.620      2156
54.640      1999
54.660      1749
54.680      1663
54.700      1463
54.720      1193
54.740      1113
54.760       896
54.780       750
54.800       766
54.820       660
54.840       473
54.860       440
54.880       423
54.900       367
54.920       313
54.940       350
54.960       293
54.980       277
55.000       337
55.020       353
55.040       343
55.060       273
55.080       297
55.100       310
55.120       237
55.140       237
55.160       287
55.180       313
55.200       310
55.220       317
55.240       253
55.260       260
55.280       247
55.300       300
55.320       237
55.340       243
55.360       207
55.380       223
55.400       250
55.420       247
55.440       233
55.460       313
55.480       263
55.500       217
55.520       253
55.540       283
55.560       267
55.580       253
55.600       223
55.620       240
55.640       253
55.660       270
55.680       190
55.700       260
55.720       257
55.740       263
55.760       273
55.780       227
55.800       260
55.820       220
55.840       233
55.860       217
55.880       197
55.900       213
55.920       230
55.940       253
55.960       267
55.980       230
56.000       213
56.020       253
56.040       273
56.060       247
56.080       230
56.100       200
56.120       243
56.140       237
56.160       237
56.180       227
56.200       227
56.220       233
56.240       213
56.260       213
56.280       273
56.300       157
56.320       230
56.340       263
56.360       187
56.380       230
56.400       250
56.420       220
56.440       250
56.460       220
56.480       193
56.500       240
56.520       233
56.540       223
56.560       243
56.580       170
56.600       270
56.620       210
56.640       167
56.660       177
56.680       220
56.700       183
56.720       247
56.740       167
56.760       267
56.780       260
56.800       203
56.820       243
56.840       183
56.860       177
56.880       183
56.900       220
56.920       173
56.940       177
56.960       210
56.980       163
57.000       167
57.020       217
57.040       237
57.060       233
57.080       220
57.100       180
57.120       190
57.140       223
57.160       230
57.180       190
57.200       180
57.220       200
57.240       147
57.260       193
57.280       240
57.300       163
57.320       187
57.340       170
57.360       230
57.380       173
57.400       170
57.420       147
57.440       167
57.460       200
57.480       210
57.500       223
57.520       220
57.540       180
57.560       253
57.580       173
57.600       213
57.620       187
57.640       217
57.660       203
57.680       167
57.700       180
57.720       207
57.740       183
57.760       230
57.780       163
57.800       217
57.820       200
57.840       227
57.860       143
57.880       210
57.900       290
57.920       220
57.940       200
57.960       203
57.980       150
58.000       230
58.020       203
58.040       233
58.060       207
58.080       180
58.100       177
58.120       173
58.140       160
58.160       180
58.180       157
58.200       197
58.220       137
58.240       123
58.260       243
58.280       177
58.300       247
58.320       173
58.340       213
58.360       203
58.380       230
58.400       183
58.420       147
58.440       163
58.460       170
58.480       200
58.500       227
58.520       230
58.540       200
58.560       143
58.580       200
58.600       163
58.620       197
58.640       147
58.660       173
58.680       173
58.700       167
58.720       167
58.740       157
58.760       153
58.780       240
58.800       220
58.820       183
58.840       233
58.860       183
58.880       173
58.900       163
58.920       180
58.940       213
58.960       190
58.980       203
59.000       150
59.020       200
59.040       157
59.060       177
59.080       183
59.100       177
59.120       133
59.140       173
59.160       153
59.180       173
59.200       163
59.220       197
59.240       150
59.260       193
59.280       133
59.300       213
59.320       180
59.340       213
59.360       217
59.380       213
59.400       193
59.420       143
59.440       170
59.460       197
59.480       210
59.500       193
59.520       230
59.540       187
59.560       203
59.580       210
59.600       117
59.620       140
59.640       217
59.660       177
59.680       207
59.700       203
59.720       180
59.740       180
59.760       173
59.780       183
59.800       170
59.820       167
59.840       180
59.860       173
59.880       200
59.900       227
59.920       157
59.940       183
59.960       187
59.980       183
60.000       180
