20.000        40
20.020        33
20.040        20
20.060        40
20.080        40
20.100         7
20.120        80
20.140        60
20.160        60
20.180        47
20.200        53
20.220        40
20.240        33
20.260        40
20.280        53
20.300        40
20.320        47
20.340        47
20.360        27
20.380        33
20.400        20
20.420        33
20.440        53
20.460        60
20.480        27
20.500        33
20.520        20
20.540        87
20.560        47
20.580        33
20.600        60
20.620        27
20.640        47
20.660        53
20.680        47
20.700        60
20.720        67
20.740        20
20.760        53
20.780        27
20.800        53
20.820        47
20.840        53
20.860        40
20.880        20
20.900        20
20.920        27
20.940        13
20.960        33
20.980        47
21.000        33
21.020        20
21.040        20
21.060        40
21.080        40
21.100        40
21.120        33
21.140        33
21.160        40
21.180        53
21.200        27
21.220        47
21.240        40
21.260        13
21.280        33
21.300        13
21.320        47
21.340        40
21.360        47
21.380        20
21.400        40
21.420        53
21.440        47
21.460        27
21.480        60
21.500        60
21.520        27
21.540        47
21.560        27
21.580        47
21.600         7
21.620        20
21.640        53
21.660        67
21.680        67
21.700        47
21.720        47
21.740        47
21.760        40
21.780        33
21.800        27
21.820        47
21.840        47
21.860        13
21.880        67
21.900        20
21.920        40
21.940        47
21.960        33
21.980        60
22.000        20
22.020        47
22.040        27
22.060        27
22.080        27
22.100        67
22.120        33
22.140        40
22.160        20
22.180         7
22.200        33
22.220        40
22.240        20
22.260        93
22.280        27
22.300        13
22.320        40
22.340        20
22.360         7
22.380        47
22.400        33
22.420        67
22.440        33
22.460        20
22.480        27
22.500        33
22.520        33
22.540        33
22.560        27
22.580        27
22.600        47
22.620        20
22.640        13
22.660        40
22.680        47
22.700        40
22.720        27
22.740        40
22.760        27
22.780         7
22.800        27
22.820        27
22.840        13
22.860        27
22.880        33
22.900        33
22.920        40
22.940        33
22.960        13
22.980        33
23.000        53
23.020        60
23.040        33
23.060        53
23.080        13
23.100        27
23.120        40
23.140        53
23.160        33
23.180        27
23.200        47
23.220        27
23.240        33
23.260        27
23.280        33
23.300        47
23.320        20
23.340        40
23.360        60
23.380        27
23.400        27
23.420        47
23.440        13
23.460        20
23.480        33
23.500        13
23.520        13
23.540        13
23.560        40
23.580        60
23.600        53
23.620        40
23.640        40
23.660        33
23.680        67
23.700        27
23.720        33
23.740        40
23.760        13
23.780        53
23.800        33
23.820        20
23.840        33
23.860        20
23.880        33
23.900        40
23.920        27
23.940        33
23.960        47
23.980        20
24.000        40
24.020        33
24.040        13
24.060        20
24.080        27
24.100        27
24.120        47
24.140        40
24.160        33
24.180        53
24.200        20
24.220        27
24.240        47
24.260        20
24.280        27
24.300        27
24.320        20
24.340        20
24.360        20
24.380        20
24.400        53
24.420        20
24.440        20
24.460        60
24.480        33
24.500        13
24.520        20
24.540        40
24.560        47
24.580        53
24.600        13
24.620        53
24.640        27
24.660        33
24.680        67
24.700        47
24.720        40
24.740        27
24.760        40
24.780        47
24.800        20
24.820        20
24.840        47
24.860        53
24.880        27
24.900        47
24.920        40
24.940        33
24.960        20
24.980        40
25.000        33
25.020        53
25.040        20
25.060        20
25.080        27
25.100        20
25.120        33
25.140        33
25.160        33
25.180        33
25.200        27
25.220        20
25.240        27
25.260         7
25.280        13
25.300        67
25.320        47
25.340        40
25.360        60
25.380        13
25.400        27
25.420        47
25.440        27
25.460        40
25.480        20
25.500        27
25.520        27
25.540        27
25.560        27
25.580        27
25.600        47
25.620        33
25.640        67
25.660        40
25.680        13
25.700        47
25.720        20
25.740        20
25.760        20
25.780         7
25.800        27
25.820         7
25.840        40
25.860        27
25.880        20
25.900        53
25.920        27
25.940        33
25.960        27
25.980        40
26.000        27
26.020        33
26.040        53
26.060        20
26.080        20
26.100        27
26.120        47
26.140        53
26.160        27
26.180        20
26.200        40
26.220        53
26.240        27
26.260        40
26.280        33
26.300        13
26.320        33
26.340        13
26.360        13
26.380        40
26.400        20
26.420        33
26.440        33
26.460        47
26.480         7
26.500        27
26.520         0
26.540        20
26.560         7
26.580        13
26.600        40
26.620        20
26.640        20
26.660        33
26.680        60
26.700        27
26.720        27
26.740        27
26.760        13
26.780         7
26.800        13
26.820        60
26.840        27
26.860        13
26.880         7
26.900        47
26.920        20
26.940        27
26.960        27
26.980        20
27.000        27
27.020        27
27.040        27
27.060         0
27.080        67
27.100        27
27.120        33
27.140        20
27.160        13
27.180        20
27.200        20
27.220        27
27.240        40
27.260        33
27.280        13
27.300        20
27.320        47
27.340        20
27.360        13
27.380        27
27.400         7
27.420        47
27.440        33
27.460        20
27.480        27
27.500        27
27.520        40
27.540        33
27.560        20
27.580        27
27.600        20
27.620        13
27.640         0
27.660        20
27.680        27
27.700        60
27.720         7
27.740        33
27.760        20
27.780        60
27.800        33
27.820        20
27.840        20
27.860        33
27.880        27
27.900        40
27.920        53
27.940        47
27.960        47
27.980        20
28.000        27
28.020        20
28.040         7
28.060        33
28.080        27
28.100        33
28.120        33
28.140        13
28.160        33
28.180        20
28.200        20
28.220        13
28.240        13
28.260        33
28.280         7
28.300        20
28.320        33
28.340        27
28.360        33
28.380        13
28.400        47
28.420        53
28.440        33
28.460        20
28.480        13
28.500        27
28.520        27
28.540        13
28.560        53
28.580        13
28.600        27
28.620        33
28.640        13
28.660        53
28.680        33
28.700         0
28.720         7
28.740        20
28.760        13
28.780        27
28.800        47
28.820         7
28.840        40
28.860        13
28.880        33
28.900         7
28.920        27
28.940        27
28.960        33
28.980        20
29.000        33
29.020        40
29.040        20
29.060        60
29.080        73
29.100        40
29.120        20
29.140        33
29.160        33
29.180        67
29.200        47
29.220        40
29.240        73
29.260        80
29.280       113
29.300        40
29.320        33
29.340        40
29.360        27
29.380        53
29.400        53
29.420        53
29.440        47
29.460        27
29.480        53
29.500        33
29.520        33
29.540        20
29.560        40
29.580        20
29.600        40
29.620        33
29.640         0
29.660         7
29.680        13
29.700        20
29.720        27
29.740        13
29.760         0
29.780        27
29.800        27
29.820        27
29.840        20
29.860        40
29.880         0
29.900        13
29.920        27
29.940        20
29.960        53
29.980        13
30.000         7
30.020        13
30.040        20
30.060        13
30.080         7
30.100        13
30.120        33
30.140        40
30.160        27
30.180        27
30.200        13
30.220         7
30.240        20
30.260        13
30.280        40
30.300        27
30.320        13
30.340        40
30.360        13
30.380        13
30.400        13
30.420        27
30.440        20
30.460        60
30.480        20
30.500        27
30.520        53
30.540        20
30.560        13
30.580         7
30.600        13
30.620        27
30.640        27
30.660        33
30.680        33
30.700        13
30.720         7
30.740        13
30.760        20
30.780        27
30.800        33
30.820         7
30.840        13
30.860         7
30.880         0
30.900        27
30.920        33
30.940        20
30.960        47
30.980        20
31.000        27
31.020         0
31.040        27
31.060        53
31.080        27
31.100        27
31.120        33
31.140        27
31.160         7
31.180        27
31.200        20
31.220        27
31.240        33
31.260        27
31.280        20
31.300        20
31.320         7
31.340        40
31.360        27
31.380        53
31.400        60
31.420        27
31.440        33
31.460        27
31.480        27
31.500        33
31.520        33
31.540         7
31.560        33
31.580        20
31.600        27
31.620        33
31.640        33
31.660        20
31.680        27
31.700        13
31.720         7
31.740        40
31.760        20
31.780         0
31.800        20
31.820        20
31.840        40
31.860         0
31.880        27
31.900         7
31.920        20
31.940        20
31.960        20
31.980        13
32.000        33
32.020         7
32.040        27
32.060        67
32.080        20
32.100         7
32.120        27
32.140        13
32.160        20
32.180        27
32.200        20
32.220         7
32.240        13
32.260        20
32.280        20
32.300        13
32.320        13
32.340         0
32.360         7
32.380        47
32.400         7
32.420        20
32.440        27
32.460        20
32.480        40
32.500         7
32.520        20
32.540        27
32.560         0
32.580         7
32.600        33
32.620        13
32.640        27
32.660         7
32.680        20
32.700        20
32.720        13
32.740        20
32.760         7
32.780        27
32.800        33
32.820        13
32.840        27
32.860        20
32.880        20
32.900        47
32.920        20
32.940        33
32.960        20
32.980        13
33.000        13
33.020        20
33.040        27
33.060         7
33.080        27
33.100        53
33.120        27
33.140        13
33.160         7
33.180        40
33.200        20
33.220         0
33.240        13
33.260        20
33.280        33
33.300        20
33.320        20
33.340        13
33.360        20
33.380        20
33.400        13
33.420        20
33.440         7
33.460        20
33.480        20
33.500        20
33.520         7
33.540         7
33.560        33
33.580         0
33.600        13
33.620        13
33.640        13
33.660        20
33.680         7
33.700        13
33.720        27
33.740        33
33.760        27
33.780        20
33.800        27
33.820        13
33.840        27
33.860        53
33.880        33
33.900        33
33.920        20
33.940        27
33.960        33
33.980        13
34.000        33
34.020        27
34.040        33
34.060        27
34.080        40
34.100        47
34.120        33
34.140        13
34.160        20
34.180        13
34.200        20
34.220         7
34.240        27
34.260         7
34.280         0
34.300        53
34.320        33
34.340        27
34.360        13
34.380        33
34.400        13
34.420         7
34.440         7
34.460        13
34.480         7
34.500        33
34.520        20
34.540         0
34.560        20
34.580        33
34.600        33
34.620        27
34.640        27
34.660        20
34.680        27
34.700        40
34.720        40
34.740        27
34.760        20
34.780        20
34.800        13
34.820        27
34.840        20
34.860         7
34.880        40
34.900        47
34.920        27
34.940        20
34.960        20
34.980        13
35.000         7
35.020        33
35.040        13
35.060        33
35.080        20
35.100        40
35.120        27
35.140        27
35.160         0
35.180        40
35.200        33
35.220        20
35.240        13
35.260         7
35.280        13
35.300        13
35.320        27
35.340        27
35.360        13
35.380        20
35.400        20
35.420        27
35.440        27
35.460        47
35.480        47
35.500         7
35.520        20
35.540        40
35.560        33
35.580        20
35.600         7
35.620        20
35.640        27
35.660         7
35.680        27
35.700        47
35.720        20
35.740        13
35.760        27
35.780        40
35.800        67
35.820        20
35.840        20
35.860        47
35.880         7
35.900        27
35.920        20
35.940        27
35.960        27
35.980        33
36.000        20
36.020        27
36.040        33
36.060        20
36.080        27
36.100        40
36.120        33
36.140        13
36.160        13
36.180        33
36.200        13
36.220        13
36.240        20
36.260        27
36.280        33
36.300        20
36.320        27
36.340         7
36.360        20
36.380        13
36.400         7
36.420        13
36.440        13
36.460        13
36.480        20
36.500        47
36.520        20
36.540        33
36.560        20
36.580         0
36.600        27
36.620        47
36.640        20
36.660        13
36.680        20
36.700        47
36.720         0
36.740        13
36.760        27
36.780         7
36.800        27
36.820        27
36.840        20
36.860        20
36.880        20
36.900        13
36.920         7
36.940        33
36.960        20
36.980        27
37.000        20
37.020        40
37.040        20
37.060        20
37.080        20
37.100        20
37.120         7
37.140        20
37.160        20
37.180         7
37.200        33
37.220        13
37.240        20
37.260        20
37.280        27
37.300        20
37.320        13
37.340        20
37.360         7
37.380        47
37.400         7
37.420        20
37.440         0
37.460        13
37.480        20
37.500        27
37.520         7
37.540        33
37.560        13
37.580         7
37.600        40
37.620        20
37.640        47
37.660        13
37.680        33
37.700         7
37.720        33
37.740         7
37.760        13
37.780        20
37.800        47
37.820        40
37.840        33
37.860        13
37.880        13
37.900        27
37.920        33
37.940        20
37.960         7
37.980        20
38.000        20
38.020        33
38.040        27
38.060        33
38.080        33
38.100        47
38.120        20
38.140        27
38.160        47
38.180        60
38.200        87
38.220        67
38.240        60
38.260        40
38.280        73
38.300       107
38.320       127
38.340       133
38.360       173
38.380       280
38.400       247
38.420       320
38.440       413
38.460       433
38.480       526
38.500       407
38.520       340
38.540       353
38.560       300
38.580       193
38.600       200
38.620       167
38.640       133
38.660        53
38.680        60
38.700        40
38.720        20
38.740        13
38.760        53
38.780        27
38.800        13
38.820        20
38.840         7
38.860        73
38.880        53
38.900        27
38.920        13
38.940        33
38.960        33
38.980        27
39.000        33
39.020        60
39.040        20
39.060        47
39.080        20
39.100        40
39.120        13
39.140        40
39.160        13
39.180        33
39.200        20
39.220        33
39.240        47
39.260        20
39.280        20
39.300        33
39.320        60
39.340        20
39.360        13
39.380        20
39.400        27
39.420        47
39.440        13
39.460        27
39.480        40
39.500        13
39.520        20
39.540         7
39.560        60
39.580        20
39.600        13
39.620        20
39.640         0
39.660        20
39.680        40
39.700        40
39.720        40
39.740        20
39.760        20
39.780        20
39.800         7
39.820        13
39.840        40
39.860        13
39.880        20
39.900         7
39.920        13
39.940        27
39.960        20
39.980        27
40.000        40
40.020         0
40.040        20
40.060        20
40.080        33
40.100        27
40.120        27
40.140        27
40.160         7
40.180        20
40.200        33
40.220        13
40.240        33
40.260        20
40.280        13
40.300        13
40.320        20
40.340        27
40.360         7
40.380        20
40.400        27
40.420        20
40.440        13
40.460        13
40.480        20
40.500        27
40.520        20
40.540        27
40.560        27
40.580         7
40.600        13
40.620         7
40.640        20
40.660         7
40.680        27
40.700        13
40.720        27
40.740        27
40.760        20
40.780        20
40.800         7
40.820         7
40.840        20
40.860        20
40.880        33
40.900        20
40.920        20
40.940        20
40.960        27
40.980        13
41.000        20
41.020        20
41.040        33
41.060        20
41.080         7
41.100        27
41.120        20
41.140        27
41.160         7
41.180        47
41.200        20
41.220        20
41.240         0
41.260        27
41.280        20
41.300        20
41.320         7
41.340        33
41.360        20
41.380        33
41.400        27
41.420         7
41.440        33
41.460        40
41.480        20
41.500        20
41.520        20
41.540        27
41.560        33
41.580        40
41.600        13
41.620        33
41.640        27
41.660        33
41.680        40
41.700        33
41.720         7
41.740        27
41.760        40
41.780         7
41.800         7
41.820        27
41.840        13
41.860        40
41.880        33
41.900         7
41.920         7
41.940        47
41.960        27
41.980        27
42.000         7
42.020        20
42.040         0
42.060         0
42.080        20
42.100        27
42.120         7
42.140        60
42.160         7
42.180        20
42.200        20
42.220        47
42.240        20
42.260        13
42.280        13
42.300        27
42.320         7
42.340        33
42.360        27
42.380        20
42.400        27
42.420        13
42.440        47
42.460        20
42.480        33
42.500        20
42.520        33
42.540        13
42.560        33
42.580         7
42.600        20
42.620        13
42.640        27
42.660        13
42.680        33
42.700        13
42.720        40
42.740        33
42.760        20
42.780        33
42.800        27
42.820        27
42.840        27
42.860        27
42.880        40
42.900        13
42.920        60
42.940        47
42.960        20
42.980        13
43.000        27
43.020        53
43.040        53
43.060        33
43.080        53
43.100        53
43.120        27
43.140        47
43.160        20
43.180        13
43.200        20
43.220        20
43.240        40
43.260        27
43.280        13
43.300        13
43.320        33
43.340         0
43.360        33
43.380        13
43.400        13
43.420        27
43.440        40
43.460        20
43.480        27
43.500        20
43.520        20
43.540        20
43.560        47
43.580        40
43.600        33
43.620        13
43.640         7
43.660        40
43.680         7
43.700        13
43.720        20
43.740         7
43.760        20
43.780        20
43.800         0
43.820        20
43.840        20
43.860        27
43.880         7
43.900        13
43.920        13
43.940        13
43.960        27
43.980        27
44.000         0
44.020        13
44.040        27
44.060        13
44.080        33
44.100        33
44.120        47
44.140        33
44.160        33
44.180        27
44.200        13
44.220        27
44.240        13
44.260        13
44.280        33
44.300        20
44.320        13
44.340         7
44.360        20
44.380        33
44.400        13
44.420         7
44.440        20
44.460        47
44.480        13
44.500        13
44.520        27
44.540        27
44.560        33
44.580        53
44.600         7
44.620        20
44.640        20
44.660        27
44.680        20
44.700        33
44.720        27
44.740        20
44.760        20
44.780        20
44.800        20
44.820        53
44.840        13
44.860        27
44.880        13
44.900        53
44.920        40
44.940         7
44.960        27
44.980        27
45.000        13
45.020        27
45.040        13
45.060        13
45.080        27
45.100        40
45.120        13
45.140        27
45.160        33
45.180        13
45.200        33
45.220        13
45.240        47
45.260         0
45.280         7
45.300        27
45.320         0
45.340        20
45.360        40
45.380         7
45.400        13
45.420         7
45.440        20
45.460         7
45.480        27
45.500         7
45.520        47
45.540        13
45.560        47
45.580        40
45.600         7
45.620         7
45.640         7
45.660        20
45.680         0
45.700         7
45.720        13
45.740        20
45.760        13
45.780        13
45.800        33
45.820        13
45.840        20
45.860        40
45.880         0
45.900        27
45.920        27
45.940         0
45.960         7
45.980        13
46.000        33
46.020         7
46.040        27
46.060        27
46.080         7
46.100        27
46.120        47
46.140        20
46.160        13
46.180        20
46.200        20
46.220        27
46.240         7
46.260        20
46.280        27
46.300        27
46.320        27
46.340        20
46.360        20
46.380        13
46.400         7
46.420        27
46.440        27
46.460        20
46.480        20
46.500        53
46.520        20
46.540        13
46.560        20
46.580        20
46.600        27
46.620        20
46.640        27
46.660        13
46.680        27
46.700        40
46.720        20
46.740         0
46.760        13
46.780        13
46.800         7
46.820        20
46.840         7
46.860        13
46.880        67
46.900        40
46.920         0
46.940        13
46.960        20
46.980        53
47.000        53
47.020        33
47.040        27
47.060         7
47.080        13
47.100         7
47.120        13
47.140        47
47.160        40
47.180        40
47.200        60
47.220        20
47.240        80
47.260        20
47.280        53
47.300        33
47.320        13
47.340        47
47.360        33
47.380        40
47.400        67
47.420         7
47.440        33
47.460        53
47.480        40
47.500        27
47.520         0
47.540        40
47.560        13
47.580        53
47.600        20
47.620        40
47.640        33
47.660        20
47.680        40
47.700        20
47.720        20
47.740        27
47.760        33
47.780         7
47.800        20
47.820        60
47.840        27
47.860        13
47.880        13
47.900         7
47.920        13
47.940        13
47.960         0
47.980         0
48.000        20
48.020        33
48.040        20
48.060        33
48.080        33
48.100        13
48.120        13
48.140        27
48.160        27
48.180        27
48.200        20
48.220         7
48.240        13
48.260        20
48.280         7
48.300        40
48.320        20
48.340        20
48.360        27
48.380        47
48.400        40
48.420        47
48.440        73
48.460        87
48.480        27
48.500        60
48.520        53
48.540        20
48.560        13
48.580         7
48.600        40
48.620        20
48.640        13
48.660        33
48.680        27
48.700        20
48.720        13
48.740        13
48.760        13
48.780        20
48.800         7
48.820        20
48.840        13
48.860         7
48.880        20
48.900        20
48.920        20
48.940         7
48.960         0
48.980        33
49.000         7
49.020        20
49.040        20
49.060        33
49.080        27
49.100        33
49.120        40
49.140        27
49.160         0
49.180        13
49.200         7
49.220        33
49.240        27
49.260        27
49.280        27
49.300        20
49.320        33
49.340        40
49.360        40
49.380        27
49.400         7
49.420        33
49.440        13
49.460        33
49.480        53
49.500         7
49.520        27
49.540         7
49.560         7
49.580        33
49.600        20
49.620        20
49.640        40
49.660         7
49.680        20
49.700         7
49.720        13
49.740        27
49.760        27
49.780         7
49.800         7
49.820        13
49.840        20
49.860        33
49.880        13
49.900         7
49.920        27
49.940         7
49.960        40
49.980        33
50.000        20
50.020        20
50.040        47
50.060        20
50.080        20
50.100        27
50.120         7
50.140         7
50.160        20
50.180        27
50.200        20
50.220        20
50.240         7
50.260        40
50.280        20
50.300        40
50.320        13
50.340        27
50.360        13
50.380         7
50.400        13
50.420        40
50.440         7
50.460        13
50.480        20
50.500        13
50.520        33
50.540        13
50.560        27
50.580        33
50.600        13
50.620        13
50.640        13
50.660        47
50.680        20
50.700        13
50.720        27
50.740        33
50.760         7
50.780         0
50.800        20
50.820        40
50.840        13
50.860        47
50.880        27
50.900        13
50.920        13
50.940        33
50.960        20
50.980        47
51.000        13
51.020        20
51.040         7
51.060        20
51.080        13
51.100        33
51.120        33
51.140        13
51.160        13
51.180        27
51.200        47
51.220        20
51.240         7
51.260        13
51.280        27
51.300        13
51.320        13
51.340        47
51.360         7
51.380         0
51.400        13
51.420        13
51.440        13
51.460        20
51.480        13
51.500        27
51.520        33
51.540        40
51.560        27
51.580        27
51.600        47
51.620        27
51.640        47
51.660        20
51.680        13
51.700        40
51.720        27
51.740         0
51.760         7
51.780        40
51.800        13
51.820         7
51.840        40
51.860        20
51.880        20
51.900        60
51.920        33
51.940        13
51.960        20
51.980        27
52.000        13
52.020        40
52.040        27
52.060        40
52.080        13
52.100        20
52.120        20
52.140        13
52.160         7
52.180        13
52.200        40
52.220        33
52.240         7
52.260        20
52.280        27
52.300        20
52.320        27
52.340        20
52.360         7
52.380        33
52.400        40
52.420         7
52.440        20
52.460        40
52.480        13
52.500        40
52.520        27
52.540        40
52.560        53
52.580        80
52.600        27
52.620        47
52.640        60
52.660        27
52.680        67
52.700        40
52.720        20
52.740        27
52.760        27
52.780        27
52.800        33
52.820        40
52.840        13
52.860         0
52.880        13
52.900        27
52.920        13
52.940        20
52.960        13
52.980         7
53.000         7
53.020         7
53.040        47
53.060        13
53.080        20
53.100        13
53.120        20
53.140        13
53.160         0
53.180        20
53.200        27
53.220         0
53.240        27
53.260        40
53.280        33
53.300        33
53.320        27
53.340        27
53.360        20
53.380        33
53.400        13
53.420        47
53.440        20
53.460        13
53.480         7
53.500        20
53.520        27
53.540        47
53.560        13
53.580         7
53.600        33
53.620         7
53.640        20
53.660        47
53.680        27
53.700        20
53.720        40
53.740        13
53.760        27
53.780        13
53.800        33
53.820         7
53.840        13
53.860        27
53.880        20
53.900         7
53.920         7
53.940        20
53.960        20
53.980        33
54.000        27
54.020        20
54.040        13
54.060        27
54.080        13
54.100        13
54.120        33
54.140        33
54.160         7
54.180        47
54.200        13
54.220        27
54.240        13
54.260        13
54.280        40
54.300        27
54.320         0
54.340        27
54.360        13
54.380         7
54.400        67
54.420         7
54.440        13
54.460        13
54.480        20
54.500        20
54.520        33
54.540         0
54.560        20
54.580        13
54.600        13
54.620        20
54.640        20
54.660        20
54.680        40
54.700        40
54.720         7
54.740        33
54.760        53
54.780        33
54.800         7
54.820        40
54.840         0
54.860        27
54.880        40
54.900        20
54.920        13
54.940        40
54.960        33
54.980        27
55.000        13
55.020         0
55.040        20
55.060        27
55.080        13
55.100        40
55.120        13
55.140        53
55.160        20
55.180        33
55.200        27
55.220        40
55.240        20
55.260        33
55.280        47
55.300        73
55.320        73
55.340        73
55.360       107
55.380       153
55.400       147
55.420       240
55.440       260
55.460       280
55.480       300
55.500       400
55.520       280
55.540       273
55.560       280
55.580       280
55.600       327
55.620       300
55.640       207
55.660       253
55.680       300
55.700       207
55.720       173
55.740       107
55.760        80
55.780        60
55.800        40
55.820        60
55.840        53
55.860        33
55.880        13
55.900        20
55.920        13
55.940        27
55.960        27
55.980        53
56.000        20
56.020        27
56.040         0
56.060         0
56.080        27
56.100        20
56.120        27
56.140         7
56.160        33
56.180        20
56.200        13
56.220        13
56.240        40
56.260        20
56.280        27
56.300        47
56.320        13
56.340         7
56.360        13
56.380        33
56.400        47
56.420         7
56.440         7
56.460        20
56.480        33
56.500        27
56.520        33
56.540        33
56.560        27
56.580        33
56.600        13
56.620        13
56.640        27
56.660        13
56.680        27
56.700        13
56.720        13
56.740        13
56.760        27
56.780        27
56.800        27
56.820        27
56.840        20
56.860        33
56.880        27
56.900        40
56.920         0
56.940         7
56.960        13
56.980        27
57.000        40
57.020        27
57.040        40
57.060        27
57.080        40
57.100        13
57.120        40
57.140        33
57.160        33
57.180        33
57.200        33
57.220        20
57.240        13
57.260        13
57.280        20
57.300         7
57.320        40
57.340        27
57.360        27
57.380        27
57.400         7
57.420        20
57.440        20
57.460         0
57.480        20
57.500        20
57.520         7
57.540        27
57.560        20
57.580        13
57.600        13
57.620        27
57.640        13
57.660        13
57.680        13
57.700        33
57.720        20
57.740        20
57.760        27
57.780        13
57.800         7
57.820        27
57.840        20
57.860        47
57.880         7
57.900        27
57.920        13
57.940        20
57.960         0
57.980        20
58.000        20
58.020        27
58.040        33
58.060        33
58.080        20
58.100         0
58.120        13
58.140        33
58.160         0
58.180        20
58.200        20
58.220        27
58.240        13
58.260        33
58.280        27
58.300        27
58.320        40
58.340         7
58.360         0
58.380         7
58.400        20
58.420        13
58.440        20
58.460         7
58.480        13
58.500        13
58.520         7
58.540        13
58.560        20
58.580        13
58.600        40
58.620        20
58.640        13
58.660         0
58.680        20
58.700        27
58.720        13
58.740        20
58.760        27
58.780        13
58.800        20
58.820        13
58.840         0
58.860         0
58.880         7
58.900        20
58.920         7
58.940        13
58.960         7
58.980        13
59.000        13
59.020        20
59.040        27
59.060        20
59.080         0
59.100         0
59.120        13
59.140        20
59.160        13
59.180         0
59.200        20
59.220         7
59.240        33
59.260        20
59.280         7
59.300        40
59.320        27
59.340         0
59.360         0
59.380        27
59.400         7
59.420        13
59.440        40
59.460        20
59.480        53
59.500        13
59.520         0
59.540         0
59.560         0
59.580         0
59.600         0
59.620         0
59.640         0
59.660         0
59.680         0
59.700         0
59.720         7
59.740         0
59.760         0
59.780         0
59.800         0
59.820         7
59.840         0
59.860         0
59.880         0
59.900         0
59.920         0
59.940         0
59.960         0
59.980         0
60.000         0
