20.000       616
20.020       700
20.040       600
20.060       660
20.080       633
20.100       613
20.120       653
20.140       663
20.160       710
20.180       686
20.200       690
20.220       610
20.240       693
20.260       613
20.280       666
20.300       690
20.320       660
20.340       703
20.360       643
20.380       670
20.400       643
20.420       643
20.440       583
20.460       583
20.480       760
20.500       653
20.520       636
20.540       686
20.560       563
20.580       813
20.600       690
20.620       676
20.640       746
20.660       816
20.680       686
20.700       613
20.720       723
20.740       716
20.760       740
20.780       740
20.800       640
20.820       780
20.840       733
20.860       643
20.880       653
20.900       713
20.920       710
20.940       610
20.960       763
20.980       693
21.000       690
21.020       736
21.040       756
21.060       650
21.080       686
21.100       663
21.120       770
21.140       600
21.160       663
21.180       723
21.200       583
21.220       693
21.240       710
21.260       676
21.280       676
21.300       703
21.320       670
21.340       560
21.360       573
21.380       610
21.400       683
21.420       640
21.440       696
21.460       613
21.480       640
21.500       656
21.520       516
21.540       600
21.560       580
21.580       613
21.600       676
21.620       586
21.640       650
21.660       676
21.680       623
21.700       673
21.720       566
21.740       546
21.760       603
21.780       596
21.800       613
21.820       620
21.840       550
21.860       600
21.880       580
21.900       596
21.920       593
21.940       543
21.960       600
21.980       523
22.000       533
22.020       626
22.040       580
22.060       553
22.080       583
22.100       563
22.120       536
22.140       503
22.160       603
22.180       540
22.200       656
22.220       550
22.240       563
22.260       636
22.280       543
22.300       643
22.320       526
22.340       590
22.360       593
22.380       550
22.400       570
22.420       540
22.440       640
22.460       626
22.480       550
22.500       560
22.520       590
22.540       570
22.560       510
22.580       500
22.600       630
22.620       646
22.640       576
22.660       603
22.680       533
22.700       550
22.720       583
22.740       496
22.760       510
22.780       510
22.800       530
22.820       520
22.840       653
22.860       566
22.880       576
22.900       513
22.920       550
22.940       516
22.960       496
22.980       510
23.000       440
23.020       490
23.040       483
23.060       426
23.080       546
23.100       580
23.120       536
23.140       493
23.160       620
23.180       576
23.200       470
23.220       456
23.240       536
23.260       486
23.280       486
23.300       486
23.320       606
23.340       550
23.360       526
23.380       466
23.400       516
23.420       583
23.440       523
23.460       486
23.480       446
23.500       513
23.520       606
23.540       443
23.560       470
23.580       536
23.600       546
23.620       530
23.640       503
23.660       540
23.680       526
23.700       493
23.720       520
23.740       566
23.760       520
23.780       530
23.800       563
23.820       560
23.840       493
23.860       583
23.880       523
23.900       476
23.920       460
23.940       466
23.960       486
23.980       470
24.000       476
24.020       486
24.040       510
24.060       483
24.080       503
24.100       470
24.120       530
24.140       526
24.160       513
24.180       443
24.200       453
24.220       573
24.240       476
24.260       436
24.280       516
24.300       450
24.320       466
24.340       460
24.360       466
24.380       493
24.400       496
24.420       576
24.440       563
24.460       560
24.480       486
24.500       533
24.520       480
24.540       640
24.560       523
24.580       536
24.600       503
24.620       540
24.640       560
24.660       523
24.680       410
24.700       480
24.720       513
24.740       533
24.760       490
24.780       413
24.800       546
24.820       410
24.840       423
24.860       446
24.880       440
24.900       423
24.920       476
24.940       493
24.960       466
24.980       377
25.000       413
25.020       493
25.040       433
25.060       510
25.080       400
25.100       460
25.120       446
25.140       480
25.160       393
25.180       420
25.200       543
25.220       400
25.240       423
25.260       440
25.280       383
25.300       453
25.320       446
25.340       436
25.360       460
25.380       493
25.400       490
25.420       520
25.440       460
25.460       410
25.480       387
25.500       443
25.520       490
25.540       473
25.560       453
25.580       413
25.600       400
25.620       463
25.640       483
25.660       523
25.680       456
25.700       490
25.720       426
25.740       430
25.760       390
25.780       380
25.800       466
25.820       403
25.840       413
25.860       430
25.880       363
25.900       470
25.920       473
25.940       423
25.960       410
25.980       506
26.000       403
26.020       440
26.040       453
26.060       433
26.080       426
26.100       373
26.120       413
26.140       433
26.160       340
26.180       413
26.200       483
26.220       453
26.240       446
26.260       360
26.280       473
26.300       510
26.320       417
26.340       433
26.360       450
26.380       440
26.400       513
26.420       473
26.440       403
26.460       476
26.480       380
26.500       383
26.520       446
26.540       463
26.560       383
26.580       360
26.600       476
26.620       433
26.640       523
26.660       473
26.680       433
26.700       536
26.720       476
26.740       500
26.760       440
26.780       407
26.800       476
26.820       426
26.840       436
26.860       460
26.880       380
26.900       476
26.920       387
26.940       403
26.960       393
26.980       390
27.000       410
27.020       456
27.040       450
27.060       513
27.080       413
27.100       330
27.120       426
27.140       353
27.160       443
27.180       453
27.200       403
27.220       473
27.240       417
27.260       323
27.280       523
27.300       383
27.320       377
27.340       357
27.360       387
27.380       500
27.400       420
27.420       490
27.440       407
27.460       360
27.480       400
27.500       387
27.520       373
27.540       436
27.560       360
27.580       430
27.600       390
27.620       393
27.640       340
27.660       410
27.680       440
27.700       407
27.720       380
27.740       417
27.760       397
27.780       407
27.800       373
27.820       443
27.840       420
27.860       423
27.880       393
27.900       410
27.920       430
27.940       443
27.960       407
27.980       353
28.000       380
28.020       436
28.040       400
28.060       450
28.080       383
28.100       373
28.120       443
28.140       466
28.160       473
28.180       407
28.200       390
28.220       383
28.240       430
28.260       380
28.280       430
28.300       413
28.320       413
28.340       383
28.360       313
28.380       327
28.400       380
28.420       360
28.440       367
28.460       347
28.480       333
28.500       410
28.520       413
28.540       370
28.560       363
28.580       387
28.600       496
28.620       410
28.640       390
28.660       397
28.680       390
28.700       493
28.720       496
28.740       460
28.760       410
28.780       503
28.800       466
28.820       400
28.840       476
28.860       516
28.880       560
28.900       576
28.920       563
28.940       566
28.960       596
28.980       550
29.000       606
29.020       713
29.040       616
29.060       626
29.080       650
29.100       623
29.120       653
29.140       630
29.160       643
29.180       603
29.200       613
29.220       590
29.240       430
29.260       463
29.280       450
29.300       490
29.320       426
29.340       410
29.360       343
29.380       483
29.400       343
29.420       430
29.440       433
29.460       410
29.480       360
29.500       486
29.520       310
29.540       350
29.560       380
29.580       443
29.600       397
29.620       397
29.640       413
29.660       370
29.680       360
29.700       417
29.720       430
29.740       370
29.760       400
29.780       400
29.800       400
29.820       453
29.840       360
29.860       357
29.880       370
29.900       387
29.920       327
29.940       353
29.960       390
29.980       327
30.000       430
30.020       383
30.040       420
30.060       410
30.080       353
30.100       340
30.120       436
30.140       363
30.160       456
30.180       380
30.200       363
30.220       320
30.240       367
30.260       407
30.280       420
30.300       407
30.320       483
30.340       390
30.360       417
30.380       410
30.400       400
30.420       380
30.440       333
30.460       390
30.480       407
30.500       443
30.520       407
30.540       420
30.560       367
30.580       363
30.600       387
30.620       390
30.640       426
30.660       483
30.680       466
30.700       436
30.720       503
30.740       540
30.760       506
30.780       513
30.800       640
30.820       590
30.840       503
30.860       723
30.880       606
30.900       606
30.920       786
30.940       690
30.960       666
30.980       543
31.000       606
31.020       516
31.040       473
31.060       556
31.080       473
31.100       397
31.120       377
31.140       520
31.160       417
31.180       426
31.200       493
31.220       363
31.240       453
31.260       347
31.280       423
31.300       347
31.320       450
31.340       373
31.360       347
31.380       387
31.400       400
31.420       357
31.440       423
31.460       333
31.480       360
31.500       360
31.520       360
31.540       393
31.560       373
31.580       403
31.600       400
31.620       353
31.640       420
31.660       383
31.680       390
31.700       393
31.720       357
31.740       350
31.760       327
31.780       436
31.800       400
31.820       350
31.840       410
31.860       407
31.880       377
31.900       360
31.920       387
31.940       393
31.960       400
31.980       430
32.000       317
32.020       400
32.040       393
32.060       390
32.080       357
32.100       330
32.120       440
32.140       417
32.160       327
32.180       363
32.200       310
32.220       387
32.240       390
32.260       343
32.280       343
32.300       370
32.320       367
32.340       347
32.360       360
32.380       373
32.400       413
32.420       387
32.440       360
32.460       456
32.480       333
32.500       357
32.520       363
32.540       363
32.560       367
32.580       456
32.600       377
32.620       403
32.640       400
32.660       400
32.680       403
32.700       347
32.720       397
32.740       360
32.760       377
32.780       363
32.800       377
32.820       446
32.840       347
32.860       387
32.880       313
32.900       387
32.920       397
32.940       343
32.960       337
32.980       420
33.000       307
33.020       340
33.040       460
33.060       367
33.080       357
33.100       363
33.120       413
33.140       347
33.160       353
33.180       337
33.200       320
33.220       343
33.240       363
33.260       417
33.280       343
33.300       367
33.320       303
33.340       337
33.360       357
33.380       330
33.400       293
33.420       390
33.440       307
33.460       377
33.480       373
33.500       390
33.520       413
33.540       413
33.560       400
33.580       370
33.600       463
33.620       370
33.640       353
33.660       317
33.680       363
33.700       347
33.720       343
33.740       350
33.760       363
33.780       323
33.800       323
33.820       387
33.840       347
33.860       310
33.880       293
33.900       357
33.920       357
33.940       333
33.960       343
33.980       323
34.000       397
34.020       403
34.040       343
34.060       436
34.080       390
34.100       353
34.120       317
34.140       367
34.160       330
34.180       360
34.200       436
34.220       367
34.240       357
34.260       293
34.280       347
34.300       363
34.320       343
34.340       403
34.360       410
34.380       370
34.400       373
34.420       343
34.440       347
34.460       393
34.480       357
34.500       397
34.520       443
34.540       410
34.560       400
34.580       333
34.600       410
34.620       387
34.640       390
34.660       443
34.680       383
34.700       403
34.720       373
34.740       300
34.760       377
34.780       390
34.800       343
34.820       357
34.840       423
34.860       323
34.880       446
34.900       380
34.920       350
34.940       456
34.960       383
34.980       383
35.000       387
35.020       393
35.040       380
35.060       373
35.080       450
35.100       343
35.120       367
35.140       353
35.160       377
35.180       456
35.200       333
35.220       410
35.240       333
35.260       430
35.280       443
35.300       407
35.320       373
35.340       373
35.360       466
35.380       390
35.400       400
35.420       443
35.440       446
35.460       446
35.480       436
35.500       453
35.520       493
35.540       433
35.560       490
35.580       596
35.600       653
35.620       510
35.640       613
35.660       593
35.680       500
35.700       513
35.720       460
35.740       413
35.760       470
35.780       400
35.800       433
35.820       480
35.840       450
35.860       400
35.880       397
35.900       363
35.920       373
35.940       436
35.960       420
35.980       387
36.000       413
36.020       410
36.040       360
36.060       417
36.080       363
36.100       317
36.120       440
36.140       373
36.160       347
36.180       367
36.200       337
36.220       323
36.240       440
36.260       407
36.280       403
36.300       290
36.320       333
36.340       453
36.360       426
36.380       383
36.400       397
36.420       373
36.440       410
36.460       370
36.480       330
36.500       353
36.520       343
36.540       456
36.560       357
36.580       413
36.600       340
36.620       420
36.640       403
36.660       390
36.680       377
36.700       410
36.720       353
36.740       390
36.760       370
36.780       460
36.800       337
36.820       380
36.840       480
36.860       400
36.880       373
36.900       353
36.920       347
36.940       380
36.960       380
36.980       446
37.000       347
37.020       380
37.040       347
37.060       320
37.080       420
37.100       373
37.120       377
37.140       446
37.160       397
37.180       367
37.200       350
37.220       347
37.240       340
37.260       383
37.280       463
37.300       340
37.320       436
37.340       393
37.360       456
37.380       407
37.400       403
37.420       417
37.440       436
37.460       343
37.480       397
37.500       397
37.520       393
37.540       370
37.560       393
37.580       400
37.600       403
37.620       413
37.640       436
37.660       423
37.680       403
37.700       383
37.720       393
37.740       466
37.760       383
37.780       417
37.800       496
37.820       500
37.840       503
37.860       606
37.880       583
37.900       793
37.920       766
37.940       853
37.960       953
37.980      1140
38.000      1309
38.020      1309
38.040      1746
38.060      1756
38.080      1963
38.100      2126
38.120      1986
38.140      2169
38.160      1973
38.180      1746
38.200      1486
38.220      1469
38.240      1409
38.260      1113
38.280       943
38.300       733
38.320       703
38.340       620
38.360       600
38.380       446
38.400       440
38.420       417
38.440       453
38.460       417
38.480       417
38.500       500
38.520       370
38.540       503
38.560       343
38.580       417
38.600       403
38.620       440
38.640       413
38.660       357
38.680       383
38.700       363
38.720       377
38.740       426
38.760       400
38.780       430
38.800       453
38.820       390
38.840       417
38.860       483
38.880       426
38.900       496
38.920       410
38.940       463
38.960       383
38.980       433
39.000       480
39.020       433
39.040       456
39.060       397
39.080       570
39.100       500
39.120       510
39.140       473
39.160       446
39.180       456
39.200       460
39.220       476
39.240       363
39.260       446
39.280       453
39.300       426
39.320       373
39.340       393
39.360       400
39.380       387
39.400       506
39.420       363
39.440       390
39.460       367
39.480       410
39.500       460
39.520       403
39.540       403
39.560       357
39.580       340
39.600       373
39.620       353
39.640       397
39.660       290
39.680       383
39.700       363
39.720       373
39.740       363
39.760       426
39.780       460
39.800       380
39.820       456
39.840       370
39.860       373
39.880       383
39.900       470
39.920       403
39.940       393
39.960       420
39.980       350
40.000       446
40.020       353
40.040       417
40.060       400
40.080       373
40.100       360
40.120       393
40.140       403
40.160       327
40.180       420
40.200       353
40.220       357
40.240       383
40.260       363
40.280       446
40.300       407
40.320       430
40.340       373
40.360       357
40.380       400
40.400       413
40.420       410
40.440       380
40.460       383
40.480       400
40.500       420
40.520       383
40.540       373
40.560       410
40.580       363
40.600       360
40.620       367
40.640       337
40.660       380
40.680       343
40.700       363
40.720       397
40.740       397
40.760       360
40.780       347
40.800       430
40.820       397
40.840       417
40.860       360
40.880       377
40.900       360
40.920       397
40.940       393
40.960       367
40.980       370
41.000       360
41.020       370
41.040       333
41.060       413
41.080       400
41.100       403
41.120       340
41.140       400
41.160       343
41.180       367
41.200       363
41.220       466
41.240       407
41.260       417
41.280       400
41.300       370
41.320       403
41.340       400
41.360       407
41.380       403
41.400       370
41.420       370
41.440       420
41.460       417
41.480       400
41.500       430
41.520       403
41.540       440
41.560       413
41.580       350
41.600       436
41.620       420
41.640       357
41.660       413
41.680       413
41.700       403
41.720       420
41.740       440
41.760       423
41.780       373
41.800       410
41.820       360
41.840       360
41.860       433
41.880       417
41.900       420
41.920       443
41.940       373
41.960       420
41.980       397
42.000       397
42.020       433
42.040       343
42.060       373
42.080       360
42.100       387
42.120       423
42.140       360
42.160       446
42.180       383
42.200       397
42.220       390
42.240       426
42.260       393
42.280       337
42.300       407
42.320       350
42.340       367
42.360       403
42.380       367
42.400       407
42.420       433
42.440       330
42.460       390
42.480       373
42.500       440
42.520       417
42.540       370
42.560       387
42.580       463
42.600       423
42.620       410
42.640       470
42.660       436
42.680       413
42.700       400
42.720       367
42.740       460
42.760       500
42.780       417
42.800       476
42.820       463
42.840       500
42.860       500
42.880       380
42.900       413
42.920       493
42.940       483
42.960       470
42.980       470
43.000       510
43.020       466
43.040       377
43.060       443
43.080       440
43.100       430
43.120       363
43.140       350
43.160       407
43.180       320
43.200       430
43.220       397
43.240       413
43.260       420
43.280       373
43.300       387
43.320       433
43.340       377
43.360       417
43.380       446
43.400       380
43.420       430
43.440       380
43.460       400
43.480       387
43.500       390
43.520       323
43.540       380
43.560       363
43.580       337
43.600       440
43.620       363
43.640       393
43.660       410
43.680       440
43.700       410
43.720       340
43.740       380
43.760       410
43.780       400
43.800       347
43.820       387
43.840       400
43.860       343
43.880       367
43.900       387
43.920       353
43.940       357
43.960       293
43.980       443
44.000       407
44.020       410
44.040       410
44.060       313
44.080       443
44.100       423
44.120       420
44.140       493
44.160       500
44.180       360
44.200       520
44.220       473
44.240       526
44.260       486
44.280       530
44.300       520
44.320       436
44.340       443
44.360       513
44.380       530
44.400       536
44.420       450
44.440       413
44.460       387
44.480       373
44.500       446
44.520       380
44.540       393
44.560       337
44.580       410
44.600       403
44.620       466
44.640       387
44.660       417
44.680       397
44.700       317
44.720       393
44.740       436
44.760       317
44.780       410
44.800       397
44.820       397
44.840       403
44.860       340
44.880       390
44.900       417
44.920       353
44.940       443
44.960       407
44.980       440
45.000       407
45.020       380
45.040       426
45.060       443
45.080       340
45.100       360
45.120       390
45.140       353
45.160       317
45.180       407
45.200       417
45.220       363
45.240       397
45.260       423
45.280       410
45.300       453
45.320       433
45.340       370
45.360       340
45.380       390
45.400       480
45.420       327
45.440       387
45.460       393
45.480       370
45.500       413
45.520       413
45.540       343
45.560       337
45.580       337
45.600       380
45.620       353
45.640       410
45.660       373
45.680       370
45.700       413
45.720       390
45.740       317
45.760       407
45.780       350
45.800       353
45.820       390
45.840       340
45.860       417
45.880       400
45.900       370
45.920       367
45.940       317
45.960       363
45.980       407
46.000       333
46.020       397
46.040       460
46.060       393
46.080       363
46.100       377
46.120       407
46.140       337
46.160       436
46.180       340
46.200       330
46.220       403
46.240       370
46.260       350
46.280       410
46.300       370
46.320       353
46.340       390
46.360       400
46.380       456
46.400       300
46.420       413
46.440       363
46.460       400
46.480       353
46.500       383
46.520       380
46.540       370
46.560       446
46.580       390
46.600       426
46.620       360
46.640       410
46.660       363
46.680       327
46.700       433
46.720       360
46.740       413
46.760       443
46.780       443
46.800       360
46.820       373
46.840       407
46.860       433
46.880       460
46.900       387
46.920       387
46.940       360
46.960       420
46.980       480
47.000       446
47.020       430
47.040       513
47.060       413
47.080       546
47.100       460
47.120       543
47.140       456
47.160       516
47.180       496
47.200       486
47.220       500
47.240       576
47.260       516
47.280       536
47.300       563
47.320       563
47.340       480
47.360       393
47.380       493
47.400       483
47.420       486
47.440       407
47.460       463
47.480       357
47.500       400
47.520       343
47.540       400
47.560       390
47.580       353
47.600       353
47.620       350
47.640       313
47.660       390
47.680       330
47.700       337
47.720       400
47.740       410
47.760       367
47.780       373
47.800       320
47.820       357
47.840       403
47.860       353
47.880       357
47.900       340
47.920       403
47.940       383
47.960       403
47.980       350
48.000       397
48.020       456
48.040       357
48.060       407
48.080       400
48.100       450
48.120       410
48.140       470
48.160       473
48.180       470
48.200       563
48.220       426
48.240       476
48.260       570
48.280       560
48.300       480
48.320       453
48.340       470
48.360       450
48.380       433
48.400       390
48.420       367
48.440       410
48.460       403
48.480       370
48.500       333
48.520       410
48.540       423
48.560       360
48.580       313
48.600       337
48.620       347
48.640       333
48.660       373
48.680       337
48.700       340
48.720       307
48.740       423
48.760       323
48.780       333
48.800       357
48.820       373
48.840       347
48.860       333
48.880       347
48.900       330
48.920       370
48.940       353
48.960       270
48.980       340
49.000       360
49.020       420
49.040       373
49.060       373
49.080       333
49.100       397
49.120       300
49.140       367
49.160       337
49.180       330
49.200       393
49.220       387
49.240       340
49.260       440
49.280       333
49.300       363
49.320       307
49.340       330
49.360       343
49.380       333
49.400       357
49.420       333
49.440       387
49.460       397
49.480       410
49.500       340
49.520       360
49.540       310
49.560       353
49.580       357
49.600       393
49.620       400
49.640       340
49.660       280
49.680       327
49.700       387
49.720       320
49.740       390
49.760       337
49.780       373
49.800       373
49.820       357
49.840       277
49.860       357
49.880       367
49.900       400
49.920       397
49.940       337
49.960       423
49.980       333
50.000       323
50.020       337
50.040       300
50.060       383
50.080       377
50.100       327
50.120       407
50.140       327
50.160       390
50.180       363
50.200       343
50.220       307
50.240       320
50.260       350
50.280       320
50.300       347
50.320       353
50.340       350
50.360       287
50.380       360
50.400       287
50.420       393
50.440       327
50.460       360
50.480       340
50.500       370
50.520       327
50.540       370
50.560       330
50.580       357
50.600       347
50.620       417
50.640       317
50.660       323
50.680       313
50.700       360
50.720       363
50.740       350
50.760       327
50.780       397
50.800       343
50.820       343
50.840       390
50.860       337
50.880       307
50.900       287
50.920       310
50.940       337
50.960       393
50.980       290
51.000       363
51.020       333
51.040       333
51.060       283
51.080       337
51.100       313
51.120       417
51.140       287
51.160       283
51.180       297
51.200       317
51.220       280
51.240       327
51.260       310
51.280       330
51.300       303
51.320       360
51.340       350
51.360       323
51.380       353
51.400       337
51.420       280
51.440       333
51.460       367
51.480       360
51.500       307
51.520       330
51.540       300
51.560       337
51.580       303
51.600       333
51.620       293
51.640       377
51.660       340
51.680       313
51.700       280
51.720       293
51.740       357
51.760       297
51.780       323
51.800       353
51.820       403
51.840       337
51.860       350
51.880       310
51.900       293
51.920       290
51.940       343
51.960       350
51.980       377
52.000       260
52.020       273
52.040       313
52.060       350
52.080       337
52.100       230
52.120       333
52.140       277
52.160       293
52.180       320
52.200       317
52.220       390
52.240       247
52.260       313
52.280       327
52.300       280
52.320       317
52.340       330
52.360       317
52.380       303
52.400       273
52.420       327
52.440       343
52.460       333
52.480       337
52.500       283
52.520       290
52.540       337
52.560       250
52.580       317
52.600       343
52.620       370
52.640       330
52.660       307
52.680       367
52.700       310
52.720       303
52.740       297
52.760       283
52.780       333
52.800       303
52.820       383
52.840       360
52.860       333
52.880       320
52.900       320
52.920       333
52.940       280
52.960       357
52.980       303
53.000       343
53.020       307
53.040       257
53.060       277
53.080       363
53.100       330
53.120       357
53.140       383
53.160       350
53.180       363
53.200       347
53.220       410
53.240       333
53.260       367
53.280       340
53.300       313
53.320       323
53.340       320
53.360       410
53.380       337
53.400       307
53.420       277
53.440       370
53.460       320
53.480       370
53.500       313
53.520       307
53.540       303
53.560       297
53.580       403
53.600       353
53.620       323
53.640       363
53.660       323
53.680       370
53.700       393
53.720       323
53.740       413
53.760       380
53.780       363
53.800       347
53.820       340
53.840       367
53.860       353
53.880       367
53.900       363
53.920       323
53.940       350
53.960       360
53.980       360
54.000       293
54.020       373
54.040       397
54.060       390
54.080       363
54.100       397
54.120       357
54.140       423
54.160       400
54.180       423
54.200       333
54.220       323
54.240       407
54.260       353
54.280       423
54.300       440
54.320       373
54.340       417
54.360       393
54.380       347
54.400       446
54.420       380
54.440       340
54.460       417
54.480       387
54.500       407
54.520       466
54.540       413
54.560       397
54.580       476
54.600       513
54.620       523
54.640       653
54.660       670
54.680       700
54.700       790
54.720       873
54.740      1050
54.760      1276
54.780      1429
54.800      1803
54.820      2219
54.840      2472
54.860      2876
54.880      3369
54.900      3812
54.920      4345
54.940      4332
54.960      4508
54.980      4878
55.000      4995
55.020      4785
55.040      4482
55.060      4262
55.080      4092
55.100      3729
55.120      3585
55.140      3315
55.160      2772
55.180      2419
55.200      2146
55.220      1779
55.240      1569
55.260      1403
55.280      1073
55.300       953
55.320       870
55.340       756
55.360       656
55.380       606
55.400       550
55.420       520
55.440       496
55.460       490
55.480       483
55.500       480
55.520       420
55.540       400
55.560       367
55.580       383
55.600       426
55.620       460
55.640       397
55.660       337
55.680       420
55.700       353
55.720       403
55.740       410
55.760       413
55.780       383
55.800       353
55.820       380
55.840       383
55.860       373
55.880       323
55.900       310
55.920       377
55.940       313
55.960       343
55.980       367
56.000       323
56.020       357
56.040       360
56.060       340
56.080       370
56.100       380
56.120       340
56.140       353
56.160       327
56.180       410
56.200       367
56.220       330
56.240       357
56.260       333
56.280       453
56.300       423
56.320       330
56.340       410
56.360       387
56.380       420
56.400       330
56.420       383
56.440       397
56.460       410
56.480       390
56.500       423
56.520       397
56.540       327
56.560       377
56.580       367
56.600       323
56.620       317
56.640       317
56.660       377
56.680       410
56.700       460
56.720       360
56.740       360
56.760       340
56.780       327
56.800       327
56.820       320
56.840       410
56.860       330
56.880       353
56.900       357
56.920       350
56.940       347
56.960       393
56.980       347
57.000       337
57.020       363
57.040       380
57.060       343
57.080       360
57.100       456
57.120       460
57.140       413
57.160       383
57.180       433
57.200       470
57.220       393
57.240       407
57.260       400
57.280       377
57.300       343
57.320       357
57.340       377
57.360       320
57.380       327
57.400       257
57.420       373
57.440       320
57.460       333
57.480       367
57.500       293
57.520       377
57.540       320
57.560       320
57.580       313
57.600       393
57.620       293
57.640       310
57.660       320
57.680       400
57.700       310
57.720       293
57.740       360
57.760       303
57.780       367
57.800       310
57.820       330
57.840       320
57.860       360
57.880       343
57.900       323
57.920       320
57.940       293
57.960       357
57.980       303
58.000       343
58.020       340
58.040       313
58.060       323
58.080       337
58.100       340
58.120       340
58.140       287
58.160       300
58.180       310
58.200       333
58.220       310
58.240       303
58.260       343
58.280       277
58.300       347
58.320       297
58.340       253
58.360       353
58.380       280
58.400       373
58.420       317
58.440       300
58.460       303
58.480       317
58.500       337
58.520       290
58.540       313
58.560       277
58.580       300
58.600       340
58.620       300
58.640       300
58.660       333
58.680       323
58.700       340
58.720       317
58.740       297
58.760       307
58.780       387
58.800       267
58.820       337
58.840       327
58.860       320
58.880       310
58.900       290
58.920       290
58.940       290
58.960       320
58.980       280
59.000       290
59.020       337
59.040       330
59.060       287
59.080       270
59.100       313
59.120       277
59.140       353
59.160       340
59.180       283
59.200       390
59.220       287
59.240       373
59.260       280
59.280       347
59.300       340
59.320       310
59.340       297
59.360       243
59.380       333
59.400       333
59.420       343
59.440       333
59.460       310
59.480       337
59.500       330
59.520       267
59.540       330
59.560       290
59.580       293
59.600       280
59.620       360
59.640       243
59.660       307
59.680       277
59.700       273
59.720       357
59.740       353
59.760       290
59.780       303
59.800       290
59.820       317
59.840       320
59.860       367
59.880       277
59.900       383
59.920       363
59.940       283
59.960        37
59.980         0
60.000         0
