20.000        53
20.020        70
20.040        83
20.060        63
20.080        80
20.100        60
20.120        53
20.140        70
20.160        70
20.180        60
20.200        87
20.220        80
20.240        77
20.260        77
20.280        57
20.300        80
20.320        53
20.340        67
20.360        93
20.380        57
20.400        47
20.420        77
20.440        80
20.460        70
20.480        57
20.500        60
20.520        80
20.540        90
20.560        83
20.580       100
20.600        77
20.620        47
20.640        63
20.660        53
20.680        63
20.700        57
20.720        70
20.740        97
20.760        63
20.780        97
20.800        33
20.820        60
20.840        73
20.860        67
20.880       103
20.900        60
20.920        93
20.940        73
20.960        87
20.980        50
21.000        83
21.020        80
21.040        90
21.060        57
21.080        57
21.100        63
21.120        73
21.140        70
21.160        90
21.180        77
21.200        60
21.220        93
21.240        70
21.260        93
21.280        70
21.300        63
21.320       110
21.340        80
21.360        77
21.380       113
21.400        80
21.420        80
21.440        97
21.460        90
21.480        77
21.500        83
21.520        83
21.540        90
21.560        70
21.580        90
21.600        70
21.620        50
21.640        53
21.660       117
21.680        83
21.700        80
21.720        57
21.740        50
21.760        57
21.780        50
21.800        70
21.820        40
21.840        53
21.860        50
21.880        70
21.900        57
21.920        83
21.940        40
21.960        57
21.980        67
22.000        30
22.020        57
22.040        73
22.060        90
22.080       103
22.100        77
22.120        70
22.140        93
22.160        70
22.180        87
22.200        87
22.220        53
22.240        63
22.260        90
22.280        50
22.300       120
22.320        70
22.340        67
22.360        57
22.380        73
22.400        53
22.420       103
22.440        53
22.460       107
22.480       110
22.500        63
22.520        90
22.540        63
22.560        70
22.580        67
22.600        87
22.620        87
22.640       113
22.660        60
22.680        43
22.700        63
22.720       113
22.740        77
22.760       100
22.780        77
22.800        80
22.820        73
22.840        77
22.860       103
22.880        80
22.900        87
22.920       100
22.940        87
22.960        77
22.980       137
23.000       130
23.020       140
23.040       120
23.060       113
23.080       143
23.100       157
23.120       167
23.140       187
23.160       130
23.180       140
23.200        90
23.220       120
23.240        63
23.260       107
23.280       103
23.300       120
23.320        77
23.340        57
23.360        67
23.380       107
23.400       103
23.420       123
23.440       123
23.460       117
23.480        90
23.500        97
23.520        87
23.540       100
23.560        97
23.580       103
23.600        93
23.620        97
23.640       103
23.660       113
23.680       117
23.700       137
23.720       130
23.740       100
23.760        93
23.780       117
23.800        70
23.820        97
23.840       133
23.860       120
23.880       107
23.900       133
23.920       147
23.940       100
23.960        87
23.980       110
24.000       117
24.020       130
24.040       107
24.060       137
24.080        80
24.100        83
24.120       127
24.140       143
24.160       110
24.180       137
24.200       137
24.220       133
24.240       160
24.260       130
24.280       120
24.300        90
24.320       150
24.340       107
24.360       180
24.380       133
24.400       143
24.420       117
24.440       137
24.460       137
24.480       107
24.500       157
24.520       107
24.540       150
24.560       123
24.580       153
24.600       173
24.620       113
24.640       167
24.660       140
24.680       177
24.700       170
24.720       190
24.740       240
24.760       200
24.780       303
24.800       307
24.820       280
24.840       310
24.860       247
24.880       333
24.900       320
24.920       363
24.940       297
24.960       277
24.980       187
25.000       180
25.020       147
25.040       157
25.060       180
25.080       230
25.100       130
25.120       200
25.140       173
25.160       177
25.180       157
25.200       187
25.220       173
25.240       190
25.260       180
25.280       197
25.300       197
25.320       237
25.340       237
25.360       303
25.380       440
25.400       596
25.420       740
25.440       826
25.460      1030
25.480      1289
25.500      1379
25.520      1449
25.540      1589
25.560      2389
25.580      5295
25.600      9406
25.620     13238
25.640     13874
25.660      8940
25.680      6821
25.700      6734
25.720      3932
25.740      1116
25.760       363
25.780       393
25.800       240
25.820       247
25.840       243
25.860       223
25.880       213
25.900       170
25.920       163
25.940       167
25.960       137
25.980       207
26.000       137
26.020       167
26.040       170
26.060       197
26.080       200
26.100       147
26.120       193
26.140       163
26.160       157
26.180       173
26.200       170
26.220       157
26.240       187
26.260       123
26.280       160
26.300       190
26.320       163
26.340       143
26.360       133
26.380       150
26.400       180
26.420       180
26.440       160
26.460       183
26.480       130
26.500       167
26.520       153
26.540       163
26.560       173
26.580       240
26.600       137
26.620       203
26.640       173
26.660       200
26.680       147
26.700       167
26.720       187
26.740       147
26.760       157
26.780       233
26.800       173
26.820       133
26.840       150
26.860       147
26.880       127
26.900       180
26.920       177
26.940       163
26.960       183
26.980       130
27.000       213
27.020       153
27.040       147
27.060       127
27.080       190
27.100       153
27.120       163
27.140       173
27.160       133
27.180       167
27.200       170
27.220       143
27.240       147
27.260       160
27.280       160
27.300       187
27.320       180
27.340       180
27.360       153
27.380       130
27.400       153
27.420       200
27.440       153
27.460       177
27.480       193
27.500       147
27.520       160
27.540       150
27.560       167
27.580       197
27.600       127
27.620       157
27.640       150
27.660       147
27.680       183
27.700       150
27.720       163
27.740       170
27.760       153
27.780       153
27.800       160
27.820       150
27.840       150
27.860       193
27.880       187
27.900       147
27.920       170
27.940       203
27.960       177
27.980       187
28.000       147
28.020       207
28.040       170
28.060       173
28.080       153
28.100       167
28.120       193
28.140       127
28.160       177
28.180       137
28.200       157
28.220       173
28.240       187
28.260       203
28.280       117
28.300       163
28.320       197
28.340       200
28.360       180
28.380       157
28.400       180
28.420       170
28.440       173
28.460       170
28.480       150
28.500       140
28.520       177
28.540       140
28.560       200
28.580       180
28.600       200
28.620       163
28.640       180
28.660       170
28.680       200
28.700       163
28.720       183
28.740       143
28.760       143
28.780       163
28.800       167
28.820       140
28.840       187
28.860       173
28.880       147
28.900       187
28.920       160
28.940       163
28.960       237
28.980       187
29.000       160
29.020       167
29.040       177
29.060       190
29.080       217
29.100       167
29.120       177
29.140       173
29.160       203
29.180       183
29.200       183
29.220       183
29.240       163
29.260       203
29.280       240
29.300       260
29.320       320
29.340       343
29.360       470
29.380       563
29.400       533
29.420       476
29.440       466
29.460       413
29.480       323
29.500       320
29.520       230
29.540       173
29.560       190
29.580       150
29.600       157
29.620       137
29.640       160
29.660       140
29.680       137
29.700       133
29.720       113
29.740       153
29.760       150
29.780       143
29.800       133
29.820       197
29.840       140
29.860       117
29.880       137
29.900       197
29.920       107
29.940       153
29.960       147
29.980       177
30.000       153
30.020       123
30.040       157
30.060       193
30.080       110
30.100       150
30.120       120
30.140       143
30.160       147
30.180       130
30.200       167
30.220       157
30.240       137
30.260       153
30.280       157
30.300       167
30.320       137
30.340       143
30.360       170
30.380       173
30.400       153
30.420       117
30.440       140
30.460       123
30.480       160
30.500       127
30.520       157
30.540       123
30.560       147
30.580       150
30.600       120
30.620       137
30.640       167
30.660       150
30.680       177
30.700       173
30.720       113
30.740       127
30.760       137
30.780       163
30.800       140
30.820       150
30.840       173
30.860       113
30.880       103
30.900       127
30.920       130
30.940       133
30.960       140
30.980       143
31.000       147
31.020       163
31.040       153
31.060       130
31.080       140
31.100       157
31.120       137
31.140       153
31.160       113
31.180       153
31.200        80
31.220       140
31.240       133
31.260       143
31.280       130
31.300       120
31.320       133
31.340       133
31.360        87
31.380       120
31.400       103
31.420       123
31.440       120
31.460       147
31.480       183
31.500       127
31.520        93
31.540       130
31.560       137
31.580       123
31.600       150
31.620       137
31.640       123
31.660        70
31.680       103
31.700       147
31.720       127
31.740       120
31.760       123
31.780       107
31.800       163
31.820       103
31.840       120
31.860        90
31.880       133
31.900       133
31.920       103
31.940       130
31.960       107
31.980       113
32.000       103
32.020       117
32.040        90
32.060       130
32.080       113
32.100       103
32.120       107
32.140       113
32.160       130
32.180       140
32.200       133
32.220       107
32.240       137
32.260       100
32.280       140
32.300       100
32.320       117
32.340       120
32.360       123
32.380        97
32.400       150
32.420       130
32.440       103
32.460       117
32.480       110
32.500       100
32.520       120
32.540       140
32.560       127
32.580       107
32.600        90
32.620       120
32.640       107
32.660        87
32.680        97
32.700       107
32.720        90
32.740       123
32.760       103
32.780        87
32.800       110
32.820        83
32.840       100
32.860       110
32.880       130
32.900       123
32.920       100
32.940       160
32.960       117
32.980        90
33.000        83
33.020        93
33.040        87
33.060       120
33.080        93
33.100        83
33.120       140
33.140       110
33.160        93
33.180       130
33.200        80
33.220       137
33.240        93
33.260        87
33.280       123
33.300        83
33.320       100
33.340        70
33.360        77
33.380        80
33.400       117
33.420        97
33.440       123
33.460       117
33.480        87
33.500       113
33.520        87
33.540       123
33.560       100
33.580       123
33.600        93
33.620        90
33.640        93
33.660       100
33.680        97
33.700        73
33.720       133
33.740       100
33.760        93
33.780       127
33.800        77
33.820        87
33.840        93
33.860        80
33.880        93
33.900       120
33.920        80
33.940       100
33.960        90
33.980        83
34.000       107
34.020       110
34.040        53
34.060        90
34.080        93
34.100       130
34.120       123
34.140        57
34.160        77
34.180        97
34.200        80
34.220       100
34.240       107
34.260        80
34.280       110
34.300       110
34.320        93
34.340       103
34.360        80
34.380        63
34.400        97
34.420       110
34.440        80
34.460        80
34.480       103
34.500       117
34.520        90
34.540        90
34.560       113
34.580        63
34.600        87
34.620       110
34.640        97
34.660        87
34.680        73
34.700       107
34.720        70
34.740        73
34.760        63
34.780       113
34.800        73
34.820        63
34.840       110
34.860        77
34.880        97
34.900       100
34.920        73
34.940        80
34.960       117
34.980        80
35.000        63
35.020        80
35.040        87
35.060        50
35.080        87
35.100        87
35.120       100
35.140        73
35.160        83
35.180       100
35.200       117
35.220        73
35.240        70
35.260        80
35.280       100
35.300        73
35.320       117
35.340        83
35.360       107
35.380        83
35.400        90
35.420       103
35.440        63
35.460        77
35.480        83
35.500        63
35.520       107
35.540        60
35.560       103
35.580       103
35.600        87
35.620        77
35.640        70
35.660        80
35.680        80
35.700        63
35.720       113
35.740        80
35.760       130
35.780        93
35.800       100
35.820       130
35.840        90
35.860       120
35.880        97
35.900       130
35.920       123
35.940       113
35.960       137
35.980       123
36.000       130
36.020       150
36.040        97
36.060        50
36.080        97
36.100        77
36.120        93
36.140        77
36.160        67
36.180        77
36.200        70
36.220        87
36.240        57
36.260        83
36.280        87
36.300        93
36.320        60
36.340        53
36.360        63
36.380        77
36.400        83
36.420        80
36.440        57
36.460        90
36.480        60
36.500        77
36.520        53
36.540        80
36.560        67
36.580        63
36.600        40
36.620        77
36.640        77
36.660        67
36.680       100
36.700        70
36.720        93
36.740        90
36.760        40
36.780        73
36.800        73
36.820        60
36.840        87
36.860        60
36.880       100
36.900        83
36.920        43
36.940        77
36.960        83
36.980        83
37.000        67
37.020        57
37.040        47
37.060        97
37.080        30
37.100        50
37.120        83
37.140        73
37.160        80
37.180        63
37.200        60
37.220        77
37.240        97
37.260        47
37.280        67
37.300        73
37.320        57
37.340        37
37.360        53
37.380        57
37.400        90
37.420        77
37.440        63
37.460        97
37.480        73
37.500        50
37.520        60
37.540        97
37.560        87
37.580        67
37.600        70
37.620        70
37.640        63
37.660        83
37.680       103
37.700        87
37.720        80
37.740        73
37.760        90
37.780        57
37.800        70
37.820        70
37.840        90
37.860        63
37.880        57
37.900        73
37.920        57
37.940       113
37.960        73
37.980        83
38.000        77
38.020        87
38.040        97
38.060        80
38.080       113
38.100       140
38.120       140
38.140       213
38.160       233
38.180       300
38.200       313
38.220       333
38.240       217
38.260       197
38.280       243
38.300       237
38.320       187
38.340       197
38.360       130
38.380        77
38.400       120
38.420        90
38.440        70
38.460       107
38.480        43
38.500        50
38.520        97
38.540       117
38.560        70
38.580        63
38.600        73
38.620        67
38.640        63
38.660        77
38.680        93
38.700        57
38.720        77
38.740        73
38.760        53
38.780        77
38.800        47
38.820        77
38.840        73
38.860        70
38.880        47
38.900        50
38.920        77
38.940        67
38.960        30
38.980        57
39.000        43
39.020        67
39.040        67
39.060        73
39.080        73
39.100        90
39.120        73
39.140        47
39.160        47
39.180        93
39.200        57
39.220        83
39.240        80
39.260        80
39.280        77
39.300       107
39.320        90
39.340        73
39.360       110
39.380       123
39.400       127
39.420        93
39.440       107
39.460       107
39.480       103
39.500        93
39.520       113
39.540        73
39.560        77
39.580        77
39.600        67
39.620        77
39.640        70
39.660        87
39.680        60
39.700        60
39.720        57
39.740        83
39.760        57
39.780        57
39.800        40
39.820        40
39.840        47
39.860        43
39.880        40
39.900        47
39.920        47
39.940        33
39.960        60
39.980        57
40.000        70
40.020        43
40.040        40
40.060        73
40.080        20
40.100        70
40.120        70
40.140        70
40.160        43
40.180        40
40.200        47
40.220        63
40.240        37
40.260        33
40.280        37
40.300        60
40.320        47
40.340        63
40.360        57
40.380        60
40.400        50
40.420        47
40.440        43
40.460        47
40.480        50
40.500        60
40.520        57
40.540        63
40.560        43
40.580        37
40.600        57
40.620        67
40.640        67
40.660        33
40.680        33
40.700        30
40.720        43
40.740        33
40.760        30
40.780        47
40.800        47
40.820        80
40.840        33
40.860        53
40.880        40
40.900        53
40.920        47
40.940        47
40.960        60
40.980        43
41.000        43
41.020        57
41.040        80
41.060        67
41.080        37
41.100        43
41.120        70
41.140        47
41.160        50
41.180        53
41.200        27
41.220        57
41.240        40
41.260        60
41.280        43
41.300        30
41.320        37
41.340        27
41.360        53
41.380        33
41.400        40
41.420        53
41.440        30
41.460        27
41.480        47
41.500        43
41.520        53
41.540        73
41.560        27
41.580        40
41.600        57
41.620        40
41.640        23
41.660        40
41.680        40
41.700        63
41.720        53
41.740        37
41.760        43
41.780        33
41.800        43
41.820        60
41.840        47
41.860        43
41.880        33
41.900        47
41.920        47
41.940        23
41.960        83
41.980        50
42.000        60
42.020        60
42.040        47
42.060        47
42.080        43
42.100        70
42.120        37
42.140        40
42.160        60
42.180        53
42.200        60
42.220        53
42.240        33
42.260        40
42.280        60
42.300        63
42.320        27
42.340        47
42.360        37
42.380        73
42.400        37
42.420        50
42.440        33
42.460        53
42.480        73
42.500        53
42.520        63
42.540        73
42.560        73
42.580        43
42.600        57
42.620        83
42.640        70
42.660        57
42.680        30
42.700        53
42.720        50
42.740        60
42.760        50
42.780        53
42.800        47
42.820        70
42.840        60
42.860        43
42.880        47
42.900        77
42.920        67
42.940        47
42.960        67
42.980        60
43.000        50
43.020        67
43.040        73
43.060        97
43.080        83
43.100        80
43.120       100
43.140       137
43.160       143
43.180       110
43.200       130
43.220       160
43.240       133
43.260       143
43.280       157
43.300       160
43.320       193
43.340       170
43.360       310
43.380       317
43.400       250
43.420       250
43.440       217
43.460       223
43.480       207
43.500       217
43.520       153
43.540       150
43.560       180
43.580       113
43.600        87
43.620        53
43.640        80
43.660        53
43.680        90
43.700        70
43.720        37
43.740        63
43.760        43
43.780        73
43.800        90
43.820        40
43.840        57
43.860        57
43.880        47
43.900        47
43.920        30
43.940        47
43.960        60
43.980        47
44.000        57
44.020        43
44.040        30
44.060        60
44.080        70
44.100        50
44.120        67
44.140        37
44.160        43
44.180        37
44.200        57
44.220        60
44.240        60
44.260        77
44.280        60
44.300        67
44.320        47
44.340        57
44.360        63
44.380        63
44.400        63
44.420        37
44.440        50
44.460        43
44.480        37
44.500        53
44.520        80
44.540        53
44.560        67
44.580        37
44.600        33
44.620        50
44.640        37
44.660        40
44.680        10
44.700        50
44.720        37
44.740        43
44.760        33
44.780        53
44.800        43
44.820        50
44.840        37
44.860        37
44.880        30
44.900        20
44.920        27
44.940        40
44.960        53
44.980        60
45.000        27
45.020        33
45.040        70
45.060        33
45.080        33
45.100        60
45.120        17
45.140        60
45.160        67
45.180        20
45.200        57
45.220        47
45.240        60
45.260        50
45.280        57
45.300        43
45.320        50
45.340        40
45.360        40
45.380        50
45.400        47
45.420        30
45.440        67
45.460        33
45.480        40
45.500        40
45.520        60
45.540        60
45.560        33
45.580        60
45.600        27
45.620        50
45.640        47
45.660        67
45.680        33
45.700        37
45.720        57
45.740        53
45.760        33
45.780        43
45.800        43
45.820        57
45.840        60
45.860        40
45.880        43
45.900        37
45.920        37
45.940        40
45.960        57
45.980        27
46.000        47
46.020        30
46.040        37
46.060        37
46.080        50
46.100        47
46.120        43
46.140        33
46.160        43
46.180        50
46.200        40
46.220        47
46.240        40
46.260        33
46.280        43
46.300        40
46.320        20
46.340        50
46.360        30
46.380        67
46.400        73
46.420        60
46.440        40
46.460        47
46.480        23
46.500        53
46.520        43
46.540        40
46.560        40
46.580        40
46.600        50
46.620        50
46.640        83
46.660        60
46.680        53
46.700        43
46.720        67
46.740        57
46.760        77
46.780        53
46.800        87
46.820        80
46.840        70
46.860        80
46.880        57
46.900        70
46.920        60
46.940        63
46.960        80
46.980        80
47.000        63
47.020       103
47.040       107
47.060       130
47.080       133
47.100       157
47.120       220
47.140       260
47.160       586
47.180       856
47.200       916
47.220       786
47.240       480
47.260       250
47.280       133
47.300       137
47.320       123
47.340       110
47.360       110
47.380        93
47.400        97
47.420       133
47.440       140
47.460       183
47.480       130
47.500       103
47.520       103
47.540       123
47.560       130
47.580       163
47.600        73
47.620       127
47.640       103
47.660        87
47.680        50
47.700        97
47.720        67
47.740        93
47.760        67
47.780        70
47.800        57
47.820        37
47.840        77
47.860        60
47.880        43
47.900        73
47.920        57
47.940        43
47.960        47
47.980        60
48.000        40
48.020        23
48.040        50
48.060        57
48.080        53
48.100        67
48.120        57
48.140        57
48.160        60
48.180        40
48.200        67
48.220        53
48.240        37
48.260        63
48.280        67
48.300        43
48.320        53
48.340        53
48.360        67
48.380        73
48.400        73
48.420        87
48.440       133
48.460        93
48.480        97
48.500       153
48.520       143
48.540       123
48.560       113
48.580       127
48.600       123
48.620       100
48.640        87
48.660        80
48.680        83
48.700        93
48.720        53
48.740        47
48.760        63
48.780        47
48.800        33
48.820        43
48.840        63
48.860        33
48.880        23
48.900        30
48.920        33
48.940        87
48.960        33
48.980        30
49.000        47
49.020        57
49.040        50
49.060        43
49.080        50
49.100        37
49.120        60
49.140        50
49.160        53
49.180        37
49.200        37
49.220        40
49.240        63
49.260        70
49.280        57
49.300        77
49.320        50
49.340        40
49.360        93
49.380        60
49.400        63
49.420        43
49.440        53
49.460        47
49.480        63
49.500        63
49.520        43
49.540        30
49.560        43
49.580        40
49.600        47
49.620        47
49.640        67
49.660        40
49.680        40
49.700        50
49.720        33
49.740        43
49.760        33
49.780        43
49.800        47
49.820        67
49.840        37
49.860        50
49.880        50
49.900        40
49.920        43
49.940        87
49.960        37
49.980        53
50.000        33
50.020        67
50.040        47
50.060        27
50.080        43
50.100        50
50.120        67
50.140        23
50.160        63
50.180        67
50.200        73
50.220        63
50.240        63
50.260        57
50.280        47
50.300        40
50.320        53
50.340        63
50.360        50
50.380        87
50.400        80
50.420        67
50.440        80
50.460        87
50.480        93
50.500       113
50.520       117
50.540       107
50.560       113
50.580        93
50.600        87
50.620       110
50.640       130
50.660       197
50.680       220
50.700       230
50.720       267
50.740       217
50.760       247
50.780       227
50.800       227
50.820       263
50.840       287
50.860       263
50.880       187
50.900       257
50.920       237
50.940       257
50.960       167
50.980       223
51.000       180
51.020       200
51.040       283
51.060       183
51.080       243
51.100       240
51.120       233
51.140       227
51.160       193
51.180       163
51.200       213
51.220       230
51.240       237
51.260       263
51.280       207
51.300       173
51.320       163
51.340       213
51.360       227
51.380       207
51.400       250
51.420       227
51.440       223
51.460       190
51.480       230
51.500       157
51.520       203
51.540       233
51.560       257
51.580       270
51.600       213
51.620       197
51.640       220
51.660       250
51.680       223
51.700       160
51.720       247
51.740       230
51.760       197
51.780       207
51.800       287
51.820       233
51.840       203
51.860       253
51.880       250
51.900       250
51.920       243
51.940       253
51.960       290
51.980       263
52.000       223
52.020       327
52.040       263
52.060       330
52.080       273
52.100       320
52.120       367
52.140       400
52.160       423
52.180       440
52.200       506
52.220       506
52.240       606
52.260       646
52.280       850
52.300      1090
52.320      1476
52.340      1913
52.360      2506
52.380      2992
52.400      3572
52.420      3848
52.440      4392
52.460      5175
52.480      5814
52.500      8407
52.520     13305
52.540     32327
52.560     65567
52.580     89238
52.600     91713
52.620     69722
52.640     35682
52.660     18443
52.680     21152
52.700     36729
52.720     47937
52.740     48840
52.760     36872
52.780     18206
52.800      7817
52.820      3975
52.840      2662
52.860      2083
52.880      1473
52.900      1240
52.920       970
52.940       883
52.960       723
52.980       620
53.000       543
53.020       490
53.040       450
53.060       460
53.080       350
53.100       430
53.120       377
53.140       400
53.160       330
53.180       297
53.200       313
53.220       327
53.240       303
53.260       333
53.280       297
53.300       290
53.320       273
53.340       273
53.360       240
53.380       267
53.400       210
53.420       253
53.440       240
53.460       190
53.480       180
53.500       193
53.520       243
53.540       203
53.560       200
53.580       230
53.600       183
53.620       213
53.640       187
53.660       183
53.680       187
53.700       210
53.720       143
53.740       200
53.760       197
53.780       170
53.800       200
53.820       183
53.840       240
53.860       150
53.880       123
53.900       167
53.920       153
53.940       197
53.960       183
53.980       167
54.000       183
54.020       140
54.040       143
54.060       160
54.080       160
54.100       123
54.120       180
54.140       193
54.160       147
54.180       203
54.200       193
54.220       153
54.240       153
54.260       153
54.280       150
54.300       160
54.320       140
54.340       120
54.360       170
54.380       133
54.400       150
54.420       143
54.440       137
54.460       110
54.480       130
54.500       157
54.520       163
54.540       197
54.560       120
54.580       150
54.600       140
54.620       143
54.640       173
54.660       160
54.680       160
54.700       147
54.720       143
54.740       127
54.760       117
54.780       137
54.800       193
54.820       207
54.840       207
54.860       210
54.880       170
54.900       190
54.920       280
54.940       253
54.960       363
54.980       350
55.000       470
55.020       383
55.040       490
55.060       586
55.080       583
55.100       496
55.120       566
55.140       476
55.160       470
55.180       480
55.200       360
55.220       390
55.240       393
55.260       317
55.280       293
55.300       260
55.320       230
55.340       243
55.360       177
55.380       163
55.400       213
55.420       157
55.440       140
55.460       123
55.480       113
55.500       120
55.520       123
55.540       153
55.560       117
55.580       123
55.600       140
55.620       130
55.640       113
55.660       120
55.680       153
55.700       130
55.720        93
55.740       163
55.760       103
55.780       133
55.800       153
55.820       143
55.840       110
55.860       127
55.880        77
55.900       147
55.920       120
55.940       137
55.960       113
55.980       107
56.000       100
56.020        87
56.040       120
56.060       113
56.080       127
56.100       117
56.120       107
56.140       133
56.160        73
56.180       117
56.200        87
56.220       113
56.240        90
56.260       127
56.280        77
56.300       137
56.320       127
56.340        97
56.360       100
56.380       133
56.400        80
56.420       113
56.440        70
56.460       127
56.480       107
56.500       103
56.520       133
56.540       143
56.560       117
56.580       133
56.600        90
56.620        97
56.640       117
56.660        70
56.680       163
56.700       110
56.720        97
56.740       127
56.760       130
56.780        90
56.800        90
56.820       103
56.840       107
56.860       107
56.880       107
56.900       123
56.920       130
56.940        97
56.960        83
56.980        93
57.000       100
57.020       103
57.040       120
57.060       107
57.080        73
57.100        87
57.120        70
57.140        90
57.160       103
57.180       107
57.200       100
57.220       103
57.240        90
57.260       113
57.280       107
57.300       120
57.320       133
57.340       120
57.360       113
57.380       103
57.400       117
57.420        97
57.440       103
57.460       130
57.480       113
57.500       117
57.520       140
57.540        87
57.560       110
57.580       110
57.600       103
57.620        83
57.640        93
57.660        73
57.680        77
57.700        93
57.720       100
57.740       107
57.760        97
57.780        87
57.800        70
57.820        70
57.840        90
57.860        70
57.880        67
57.900        53
57.920        90
57.940        90
57.960        90
57.980        90
58.000        87
58.020        63
58.040        50
58.060        83
58.080        77
58.100        83
58.120        70
58.140        70
58.160        90
58.180        80
58.200        57
58.220        77
58.240        97
58.260        70
58.280        70
58.300        87
58.320        80
58.340        87
58.360       117
58.380        90
58.400        70
58.420        93
58.440        87
58.460       100
58.480        60
58.500        53
58.520        80
58.540        67
58.560        83
58.580       120
58.600        67
58.620        63
58.640        80
58.660        77
58.680        77
58.700        77
58.720        50
58.740        63
58.760        63
58.780        67
58.800        97
58.820        80
58.840        97
58.860        60
58.880        87
58.900        87
58.920        73
58.940        73
58.960        73
58.980        57
59.000        40
59.020        90
59.040        90
59.060        73
59.080        73
59.100        63
59.120        97
59.140        77
59.160        80
59.180        73
59.200        53
59.220        60
59.240        73
59.260        83
59.280        47
59.300        37
59.320        73
59.340       103
59.360        60
59.380        57
59.400        37
59.420        60
59.440        90
59.460        73
59.480        77
59.500        67
59.520        57
59.540        77
59.560        60
59.580       103
59.600        50
59.620        57
59.640        53
59.660        63
59.680        70
59.700        63
59.720       107
59.740        77
59.760        60
59.780        73
59.800        67
59.820        50
59.840        97
59.860        80
59.880        67
59.900        67
59.920        60
59.940       117
59.960        77
59.980         7
60.000         7
