20.000       693
20.020       710
20.040       726
20.060       783
20.080       770
20.100       663
20.120       716
20.140       876
20.160       753
20.180       740
20.200       703
20.220       613
20.240       720
20.260       666
20.280       743
20.300       726
20.320       783
20.340       656
20.360       723
20.380       626
20.400       730
20.420       696
20.440       790
20.460       663
20.480       706
20.500       640
20.520       683
20.540       656
20.560       696
20.580       680
20.600       726
20.620       716
20.640       656
20.660       653
20.680       640
20.700       770
20.720       620
20.740       613
20.760       670
20.780       666
20.800       630
20.820       703
20.840       716
20.860       670
20.880       703
20.900       713
20.920       676
20.940       670
20.960       726
20.980       750
21.000       723
21.020       803
21.040       670
21.060       696
21.080       750
21.100       803
21.120       700
21.140       850
21.160       796
21.180       800
21.200       790
21.220       723
21.240       686
21.260       763
21.280       616
21.300       700
21.320       636
21.340       753
21.360       653
21.380       670
21.400       633
21.420       543
21.440       656
21.460       656
21.480       686
21.500       690
21.520       636
21.540       700
21.560       640
21.580       726
21.600       626
21.620       643
21.640       573
21.660       643
21.680       653
21.700       606
21.720       586
21.740       646
21.760       570
21.780       643
21.800       593
21.820       590
21.840       603
21.860       656
21.880       630
21.900       573
21.920       596
21.940       643
21.960       616
21.980       593
22.000       603
22.020       613
22.040       506
22.060       600
22.080       623
22.100       573
22.120       683
22.140       553
22.160       573
22.180       626
22.200       603
22.220       613
22.240       573
22.260       536
22.280       706
22.300       560
22.320       540
22.340       523
22.360       576
22.380       620
22.400       543
22.420       686
22.440       510
22.460       546
22.480       546
22.500       630
22.520       543
22.540       626
22.560       620
22.580       650
22.600       570
22.620       530
22.640       626
22.660       563
22.680       553
22.700       593
22.720       570
22.740       633
22.760       626
22.780       653
22.800       586
22.820       676
22.840       650
22.860       610
22.880       650
22.900       563
22.920       573
22.940       600
22.960       500
22.980       560
23.000       560
23.020       540
23.040       560
23.060       550
23.080       470
23.100       580
23.120       526
23.140       503
23.160       543
23.180       476
23.200       533
23.220       540
23.240       560
23.260       620
23.280       523
23.300       493
23.320       443
23.340       560
23.360       520
23.380       566
23.400       476
23.420       560
23.440       636
23.460       536
23.480       550
23.500       570
23.520       520
23.540       593
23.560       520
23.580       510
23.600       563
23.620       623
23.640       486
23.660       530
23.680       443
23.700       553
23.720       510
23.740       520
23.760       490
23.780       530
23.800       580
23.820       503
23.840       533
23.860       450
23.880       526
23.900       513
23.920       553
23.940       533
23.960       543
23.980       453
24.000       480
24.020       646
24.040       500
24.060       540
24.080       530
24.100       473
24.120       456
24.140       516
24.160       606
24.180       550
24.200       496
24.220       486
24.240       586
24.260       546
24.280       543
24.300       506
24.320       536
24.340       540
24.360       526
24.380       523
24.400       546
24.420       583
24.440       686
24.460       636
24.480       640
24.500       680
24.520       753
24.540       960
24.560       856
24.580       930
24.600       896
24.620      1030
24.640       996
24.660       943
24.680       940
24.700       853
24.720       850
24.740       790
24.760       633
24.780       586
24.800       620
24.820       590
24.840       513
24.860       540
24.880       533
24.900       446
24.920       443
24.940       466
24.960       516
24.980       446
25.000       520
25.020       513
25.040       503
25.060       503
25.080       470
25.100       440
25.120       417
25.140       493
25.160       436
25.180       496
25.200       473
25.220       536
25.240       520
25.260       493
25.280       476
25.300       510
25.320       530
25.340       516
25.360       480
25.380       483
25.400       456
25.420       530
25.440       400
25.460       436
25.480       506
25.500       456
25.520       503
25.540       410
25.560       446
25.580       417
25.600       476
25.620       453
25.640       513
25.660       483
25.680       466
25.700       450
25.720       446
25.740       516
25.760       426
25.780       470
25.800       466
25.820       466
25.840       453
25.860       486
25.880       443
25.900       460
25.920       420
25.940       460
25.960       440
25.980       423
26.000       476
26.020       387
26.040       463
26.060       443
26.080       483
26.100       493
26.120       520
26.140       486
26.160       490
26.180       513
26.200       450
26.220       536
26.240       433
26.260       456
26.280       443
26.300       520
26.320       413
26.340       540
26.360       476
26.380       510
26.400       516
26.420       516
26.440       563
26.460       643
26.480       610
26.500       463
26.520       520
26.540       496
26.560       506
26.580       413
26.600       503
26.620       466
26.640       440
26.660       413
26.680       380
26.700       450
26.720       430
26.740       473
26.760       380
26.780       410
26.800       390
26.820       453
26.840       470
26.860       393
26.880       390
26.900       420
26.920       436
26.940       453
26.960       443
26.980       446
27.000       417
27.020       390
27.040       390
27.060       480
27.080       403
27.100       473
27.120       370
27.140       436
27.160       513
27.180       373
27.200       393
27.220       403
27.240       420
27.260       436
27.280       403
27.300       397
27.320       470
27.340       347
27.360       423
27.380       480
27.400       360
27.420       410
27.440       480
27.460       460
27.480       400
27.500       430
27.520       473
27.540       377
27.560       403
27.580       400
27.600       440
27.620       407
27.640       413
27.660       410
27.680       453
27.700       453
27.720       420
27.740       476
27.760       410
27.780       483
27.800       426
27.820       450
27.840       436
27.860       370
27.880       430
27.900       496
27.920       420
27.940       390
27.960       483
27.980       420
28.000       370
28.020       410
28.040       403
28.060       456
28.080       407
28.100       393
28.120       390
28.140       407
28.160       476
28.180       383
28.200       400
28.220       353
28.240       407
28.260       420
28.280       377
28.300       417
28.320       480
28.340       400
28.360       423
28.380       510
28.400       400
28.420       413
28.440       446
28.460       407
28.480       397
28.500       473
28.520       463
28.540       476
28.560       410
28.580       423
28.600       367
28.620       353
28.640       420
28.660       383
28.680       383
28.700       393
28.720       390
28.740       476
28.760       373
28.780       480
28.800       446
28.820       400
28.840       496
28.860       463
28.880       513
28.900       516
28.920       573
28.940       593
28.960       623
28.980       716
29.000       786
29.020       850
29.040       940
29.060      1080
29.080      1240
29.100      1383
29.120      1386
29.140      1479
29.160      1456
29.180      1463
29.200      1216
29.220      1186
29.240       996
29.260       800
29.280       686
29.300       576
29.320       563
29.340       526
29.360       440
29.380       426
29.400       393
29.420       407
29.440       413
29.460       433
29.480       413
29.500       433
29.520       417
29.540       436
29.560       463
29.580       400
29.600       433
29.620       423
29.640       513
29.660       443
29.680       450
29.700       433
29.720       436
29.740       347
29.760       436
29.780       430
29.800       383
29.820       430
29.840       413
29.860       387
29.880       390
29.900       420
29.920       400
29.940       363
29.960       347
29.980       436
30.000       410
30.020       347
30.040       430
30.060       423
30.080       373
30.100       473
30.120       407
30.140       423
30.160       407
30.180       357
30.200       317
30.220       453
30.240       420
30.260       387
30.280       420
30.300       433
30.320       353
30.340       410
30.360       370
30.380       410
30.400       370
30.420       377
30.440       353
30.460       383
30.480       367
30.500       443
30.520       426
30.540       426
30.560       403
30.580       430
30.600       436
30.620       357
30.640       430
30.660       340
30.680       453
30.700       446
30.720       410
30.740       443
30.760       426
30.780       407
30.800       476
30.820       473
30.840       470
30.860       456
30.880       523
30.900       550
30.920       486
30.940       520
30.960       560
30.980       413
31.000       520
31.020       483
31.040       453
31.060       480
31.080       506
31.100       436
31.120       417
31.140       473
31.160       403
31.180       390
31.200       377
31.220       430
31.240       420
31.260       410
31.280       453
31.300       363
31.320       347
31.340       446
31.360       410
31.380       407
31.400       380
31.420       423
31.440       390
31.460       377
31.480       317
31.500       393
31.520       353
31.540       393
31.560       333
31.580       436
31.600       350
31.620       323
31.640       400
31.660       370
31.680       310
31.700       370
31.720       373
31.740       400
31.760       463
31.780       353
31.800       373
31.820       407
31.840       433
31.860       380
31.880       420
31.900       387
31.920       360
31.940       363
31.960       350
31.980       357
32.000       417
32.020       273
32.040       410
32.060       357
32.080       327
32.100       330
32.120       393
32.140       380
32.160       383
32.180       417
32.200       340
32.220       417
32.240       393
32.260       327
32.280       436
32.300       347
32.320       387
32.340       393
32.360       430
32.380       377
32.400       360
32.420       397
32.440       373
32.460       380
32.480       357
32.500       367
32.520       407
32.540       363
32.560       397
32.580       400
32.600       383
32.620       417
32.640       417
32.660       337
32.680       400
32.700       343
32.720       407
32.740       363
32.760       400
32.780       410
32.800       450
32.820       360
32.840       290
32.860       357
32.880       360
32.900       390
32.920       407
32.940       453
32.960       370
32.980       380
33.000       350
33.020       350
33.040       400
33.060       393
33.080       433
33.100       387
33.120       363
33.140       387
33.160       383
33.180       423
33.200       350
33.220       430
33.240       367
33.260       393
33.280       350
33.300       340
33.320       403
33.340       340
33.360       420
33.380       367
33.400       370
33.420       400
33.440       363
33.460       426
33.480       323
33.500       420
33.520       367
33.540       387
33.560       357
33.580       373
33.600       357
33.620       367
33.640       343
33.660       383
33.680       397
33.700       377
33.720       393
33.740       383
33.760       383
33.780       413
33.800       423
33.820       373
33.840       350
33.860       390
33.880       363
33.900       383
33.920       350
33.940       327
33.960       360
33.980       380
34.000       417
34.020       387
34.040       367
34.060       290
34.080       350
34.100       397
34.120       373
34.140       426
34.160       363
34.180       337
34.200       400
34.220       353
34.240       333
34.260       420
34.280       347
34.300       400
34.320       410
34.340       410
34.360       393
34.380       343
34.400       407
34.420       403
34.440       393
34.460       360
34.480       400
34.500       423
34.520       393
34.540       450
34.560       426
34.580       347
34.600       383
34.620       450
34.640       410
34.660       387
34.680       460
34.700       383
34.720       440
34.740       433
34.760       350
34.780       313
34.800       407
34.820       380
34.840       370
34.860       403
34.880       353
34.900       410
34.920       420
34.940       387
34.960       403
34.980       357
35.000       397
35.020       390
35.040       407
35.060       367
35.080       377
35.100       430
35.120       403
35.140       420
35.160       430
35.180       470
35.200       370
35.220       363
35.240       443
35.260       377
35.280       393
35.300       357
35.320       363
35.340       450
35.360       423
35.380       403
35.400       420
35.420       440
35.440       476
35.460       423
35.480       417
35.500       430
35.520       550
35.540       450
35.560       480
35.580       476
35.600       470
35.620       546
35.640       630
35.660       570
35.680       650
35.700       650
35.720       513
35.740       640
35.760       610
35.780       560
35.800       523
35.820       486
35.840       556
35.860       460
35.880       463
35.900       403
35.920       463
35.940       350
35.960       407
35.980       387
36.000       383
36.020       367
36.040       466
36.060       377
36.080       387
36.100       350
36.120       360
36.140       373
36.160       377
36.180       440
36.200       380
36.220       357
36.240       400
36.260       407
36.280       380
36.300       393
36.320       370
36.340       397
36.360       377
36.380       353
36.400       347
36.420       456
36.440       420
36.460       353
36.480       383
36.500       420
36.520       360
36.540       363
36.560       387
36.580       417
36.600       407
36.620       370
36.640       430
36.660       380
36.680       453
36.700       333
36.720       397
36.740       393
36.760       423
36.780       337
36.800       380
36.820       353
36.840       323
36.860       403
36.880       400
36.900       317
36.920       400
36.940       367
36.960       387
36.980       387
37.000       387
37.020       436
37.040       310
37.060       370
37.080       340
37.100       353
37.120       390
37.140       463
37.160       380
37.180       390
37.200       363
37.220       450
37.240       440
37.260       440
37.280       420
37.300       470
37.320       516
37.340       423
37.360       486
37.380       480
37.400       440
37.420       490
37.440       450
37.460       513
37.480       460
37.500       393
37.520       456
37.540       573
37.560       440
37.580       500
37.600       473
37.620       423
37.640       466
37.660       423
37.680       463
37.700       453
37.720       413
37.740       380
37.760       466
37.780       430
37.800       446
37.820       490
37.840       523
37.860       513
37.880       520
37.900       573
37.920       676
37.940       723
37.960       750
37.980       943
38.000      1140
38.020      1216
38.040      1419
38.060      1546
38.080      1843
38.100      2102
38.120      2236
38.140      2439
38.160      2229
38.180      2202
38.200      2132
38.220      1843
38.240      1606
38.260      1546
38.280      1196
38.300      1063
38.320       873
38.340       716
38.360       676
38.380       663
38.400       533
38.420       563
38.440       543
38.460       446
38.480       503
38.500       430
38.520       480
38.540       443
38.560       476
38.580       383
38.600       407
38.620       436
38.640       413
38.660       413
38.680       480
38.700       410
38.720       390
38.740       433
38.760       450
38.780       463
38.800       387
38.820       440
38.840       546
38.860       407
38.880       493
38.900       513
38.920       543
38.940       486
38.960       580
38.980       583
39.000       560
39.020       690
39.040       596
39.060       696
39.080       660
39.100       646
39.120       696
39.140       680
39.160       663
39.180       590
39.200       743
39.220       626
39.240       583
39.260       566
39.280       583
39.300       466
39.320       506
39.340       390
39.360       510
39.380       383
39.400       350
39.420       403
39.440       393
39.460       473
39.480       387
39.500       393
39.520       383
39.540       397
39.560       440
39.580       480
39.600       430
39.620       400
39.640       363
39.660       450
39.680       360
39.700       367
39.720       373
39.740       370
39.760       400
39.780       410
39.800       400
39.820       377
39.840       330
39.860       357
39.880       393
39.900       403
39.920       383
39.940       370
39.960       450
39.980       430
40.000       410
40.020       380
40.040       420
40.060       360
40.080       453
40.100       327
40.120       333
40.140       420
40.160       363
40.180       383
40.200       506
40.220       390
40.240       433
40.260       377
40.280       463
40.300       430
40.320       410
40.340       443
40.360       387
40.380       380
40.400       413
40.420       453
40.440       410
40.460       413
40.480       410
40.500       403
40.520       496
40.540       373
40.560       460
40.580       426
40.600       343
40.620       380
40.640       500
40.660       450
40.680       417
40.700       363
40.720       470
40.740       480
40.760       397
40.780       426
40.800       373
40.820       390
40.840       430
40.860       423
40.880       390
40.900       440
40.920       390
40.940       417
40.960       417
40.980       413
41.000       470
41.020       323
41.040       407
41.060       413
41.080       450
41.100       360
41.120       493
41.140       430
41.160       430
41.180       407
41.200       383
41.220       417
41.240       357
41.260       423
41.280       436
41.300       360
41.320       393
41.340       426
41.360       410
41.380       387
41.400       387
41.420       433
41.440       450
41.460       410
41.480       403
41.500       393
41.520       526
41.540       460
41.560       410
41.580       420
41.600       440
41.620       363
41.640       417
41.660       303
41.680       363
41.700       377
41.720       443
41.740       393
41.760       347
41.780       403
41.800       443
41.820       413
41.840       480
41.860       413
41.880       470
41.900       436
41.920       400
41.940       400
41.960       420
41.980       407
42.000       436
42.020       417
42.040       340
42.060       430
42.080       446
42.100       347
42.120       423
42.140       430
42.160       433
42.180       387
42.200       367
42.220       446
42.240       387
42.260       493
42.280       486
42.300       380
42.320       436
42.340       503
42.360       446
42.380       400
42.400       390
42.420       400
42.440       456
42.460       373
42.480       413
42.500       453
42.520       466
42.540       506
42.560       476
42.580       420
42.600       456
42.620       387
42.640       436
42.660       483
42.680       410
42.700       453
42.720       443
42.740       530
42.760       570
42.780       516
42.800       520
42.820       590
42.840       613
42.860       660
42.880       713
42.900       663
42.920       670
42.940       673
42.960       646
42.980       670
43.000       566
43.020       503
43.040       553
43.060       503
43.080       470
43.100       473
43.120       387
43.140       486
43.160       453
43.180       393
43.200       413
43.220       400
43.240       446
43.260       417
43.280       423
43.300       423
43.320       440
43.340       423
43.360       436
43.380       413
43.400       393
43.420       393
43.440       400
43.460       323
43.480       397
43.500       333
43.520       373
43.540       390
43.560       360
43.580       413
43.600       456
43.620       380
43.640       360
43.660       480
43.680       397
43.700       383
43.720       443
43.740       330
43.760       373
43.780       436
43.800       377
43.820       423
43.840       363
43.860       380
43.880       370
43.900       403
43.920       420
43.940       397
43.960       423
43.980       367
44.000       420
44.020       410
44.040       407
44.060       410
44.080       466
44.100       433
44.120       430
44.140       446
44.160       413
44.180       426
44.200       417
44.220       440
44.240       460
44.260       503
44.280       523
44.300       486
44.320       480
44.340       470
44.360       493
44.380       526
44.400       470
44.420       407
44.440       420
44.460       496
44.480       450
44.500       470
44.520       423
44.540       430
44.560       426
44.580       463
44.600       407
44.620       350
44.640       373
44.660       476
44.680       393
44.700       443
44.720       383
44.740       307
44.760       433
44.780       353
44.800       320
44.820       370
44.840       383
44.860       383
44.880       480
44.900       380
44.920       390
44.940       420
44.960       480
44.980       403
45.000       390
45.020       456
45.040       403
45.060       456
45.080       476
45.100       450
45.120       486
45.140       420
45.160       370
45.180       446
45.200       446
45.220       387
45.240       423
45.260       387
45.280       426
45.300       383
45.320       446
45.340       460
45.360       480
45.380       460
45.400       373
45.420       360
45.440       453
45.460       363
45.480       420
45.500       393
45.520       367
45.540       297
45.560       420
45.580       436
45.600       423
45.620       387
45.640       397
45.660       390
45.680       400
45.700       390
45.720       380
45.740       463
45.760       410
45.780       337
45.800       407
45.820       387
45.840       360
45.860       337
45.880       400
45.900       393
45.920       426
45.940       410
45.960       347
45.980       380
46.000       423
46.020       367
46.040       403
46.060       323
46.080       390
46.100       430
46.120       390
46.140       363
46.160       363
46.180       387
46.200       410
46.220       400
46.240       370
46.260       450
46.280       363
46.300       456
46.320       413
46.340       440
46.360       433
46.380       443
46.400       433
46.420       417
46.440       407
46.460       327
46.480       360
46.500       387
46.520       480
46.540       426
46.560       456
46.580       446
46.600       360
46.620       363
46.640       413
46.660       443
46.680       426
46.700       490
46.720       510
46.740       456
46.760       443
46.780       456
46.800       510
46.820       496
46.840       546
46.860       580
46.880       476
46.900       486
46.920       463
46.940       463
46.960       533
46.980       560
47.000       410
47.020       560
47.040       483
47.060       503
47.080       543
47.100       603
47.120       610
47.140       566
47.160       633
47.180       700
47.200       760
47.220       866
47.240       770
47.260       833
47.280       713
47.300       746
47.320       733
47.340       650
47.360       603
47.380       626
47.400       530
47.420       506
47.440       616
47.460       456
47.480       470
47.500       446
47.520       397
47.540       413
47.560       443
47.580       360
47.600       367
47.620       400
47.640       407
47.660       397
47.680       400
47.700       367
47.720       513
47.740       403
47.760       327
47.780       340
47.800       383
47.820       446
47.840       350
47.860       373
47.880       407
47.900       347
47.920       403
47.940       420
47.960       426
47.980       440
48.000       407
48.020       440
48.040       486
48.060       383
48.080       506
48.100       520
48.120       596
48.140       516
48.160       616
48.180       750
48.200       693
48.220       703
48.240       753
48.260       826
48.280       753
48.300       713
48.320       650
48.340       663
48.360       713
48.380       583
48.400       576
48.420       540
48.440       536
48.460       423
48.480       433
48.500       413
48.520       387
48.540       387
48.560       350
48.580       377
48.600       353
48.620       343
48.640       370
48.660       330
48.680       410
48.700       380
48.720       357
48.740       347
48.760       337
48.780       420
48.800       410
48.820       403
48.840       407
48.860       327
48.880       287
48.900       383
48.920       367
48.940       347
48.960       373
48.980       377
49.000       360
49.020       420
49.040       357
49.060       397
49.080       360
49.100       327
49.120       380
49.140       337
49.160       390
49.180       436
49.200       423
49.220       430
49.240       350
49.260       393
49.280       373
49.300       387
49.320       317
49.340       373
49.360       370
49.380       390
49.400       417
49.420       327
49.440       347
49.460       337
49.480       390
49.500       320
49.520       377
49.540       393
49.560       353
49.580       410
49.600       323
49.620       357
49.640       313
49.660       370
49.680       340
49.700       310
49.720       383
49.740       330
49.760       413
49.780       387
49.800       380
49.820       373
49.840       460
49.860       360
49.880       363
49.900       330
49.920       460
49.940       377
49.960       377
49.980       380
50.000       387
50.020       323
50.040       420
50.060       393
50.080       323
50.100       360
50.120       350
50.140       343
50.160       360
50.180       343
50.200       380
50.220       343
50.240       303
50.260       380
50.280       383
50.300       367
50.320       413
50.340       383
50.360       380
50.380       377
50.400       353
50.420       400
50.440       360
50.460       363
50.480       363
50.500       347
50.520       330
50.540       333
50.560       423
50.580       410
50.600       387
50.620       367
50.640       367
50.660       383
50.680       357
50.700       323
50.720       446
50.740       380
50.760       393
50.780       363
50.800       357
50.820       363
50.840       410
50.860       453
50.880       463
50.900       413
50.920       403
50.940       446
50.960       377
50.980       337
51.000       420
51.020       400
51.040       323
51.060       403
51.080       357
51.100       363
51.120       300
51.140       373
51.160       413
51.180       343
51.200       350
51.220       347
51.240       317
51.260       330
51.280       297
51.300       320
51.320       337
51.340       317
51.360       307
51.380       320
51.400       350
51.420       260
51.440       360
51.460       347
51.480       290
51.500       307
51.520       350
51.540       380
51.560       283
51.580       320
51.600       340
51.620       293
51.640       337
51.660       353
51.680       330
51.700       353
51.720       323
51.740       270
51.760       340
51.780       260
51.800       343
51.820       347
51.840       367
51.860       350
51.880       327
51.900       340
51.920       283
51.940       343
51.960       317
51.980       280
52.000       373
52.020       360
52.040       297
52.060       267
52.080       317
52.100       363
52.120       377
52.140       380
52.160       373
52.180       293
52.200       317
52.220       370
52.240       317
52.260       360
52.280       360
52.300       333
52.320       317
52.340       330
52.360       373
52.380       347
52.400       367
52.420       380
52.440       373
52.460       353
52.480       330
52.500       373
52.520       390
52.540       360
52.560       360
52.580       327
52.600       340
52.620       373
52.640       300
52.660       363
52.680       333
52.700       390
52.720       357
52.740       320
52.760       267
52.780       293
52.800       330
52.820       317
52.840       320
52.860       387
52.880       310
52.900       290
52.920       426
52.940       353
52.960       293
52.980       350
53.000       393
53.020       350
53.040       310
53.060       347
53.080       300
53.100       380
53.120       370
53.140       333
53.160       287
53.180       380
53.200       413
53.220       347
53.240       373
53.260       377
53.280       373
53.300       360
53.320       337
53.340       343
53.360       370
53.380       357
53.400       347
53.420       297
53.440       313
53.460       373
53.480       350
53.500       380
53.520       420
53.540       297
53.560       397
53.580       330
53.600       347
53.620       340
53.640       413
53.660       363
53.680       420
53.700       353
53.720       360
53.740       357
53.760       370
53.780       377
53.800       370
53.820       330
53.840       320
53.860       380
53.880       393
53.900       360
53.920       360
53.940       333
53.960       340
53.980       367
54.000       380
54.020       307
54.040       307
54.060       300
54.080       330
54.100       330
54.120       323
54.140       446
54.160       413
54.180       456
54.200       420
54.220       466
54.240       353
54.260       410
54.280       347
54.300       400
54.320       403
54.340       377
54.360       443
54.380       446
54.400       440
54.420       390
54.440       397
54.460       373
54.480       430
54.500       486
54.520       430
54.540       453
54.560       420
54.580       383
54.600       423
54.620       413
54.640       490
54.660       436
54.680       483
54.700       513
54.720       580
54.740       696
54.760       643
54.780       770
54.800       923
54.820       986
54.840      1296
54.860      1439
54.880      1806
54.900      2006
54.920      2419
54.940      2846
54.960      3205
54.980      3565
55.000      3749
55.020      3908
55.040      4065
55.060      3948
55.080      3782
55.100      3655
55.120      3412
55.140      3189
55.160      3169
55.180      2812
55.200      2422
55.220      2202
55.240      1926
55.260      1576
55.280      1579
55.300      1186
55.320      1173
55.340       903
55.360       796
55.380       666
55.400       686
55.420       543
55.440       543
55.460       486
55.480       513
55.500       453
55.520       470
55.540       466
55.560       420
55.580       400
55.600       390
55.620       413
55.640       453
55.660       410
55.680       383
55.700       403
55.720       393
55.740       373
55.760       390
55.780       390
55.800       320
55.820       403
55.840       466
55.860       337
55.880       397
55.900       387
55.920       360
55.940       397
55.960       377
55.980       397
56.000       337
56.020       403
56.040       390
56.060       360
56.080       360
56.100       393
56.120       363
56.140       417
56.160       480
56.180       383
56.200       413
56.220       443
56.240       407
56.260       403
56.280       463
56.300       446
56.320       377
56.340       433
56.360       383
56.380       450
56.400       473
56.420       450
56.440       433
56.460       480
56.480       466
56.500       456
56.520       407
56.540       383
56.560       410
56.580       420
56.600       393
56.620       430
56.640       410
56.660       350
56.680       327
56.700       320
56.720       423
56.740       370
56.760       403
56.780       337
56.800       407
56.820       377
56.840       350
56.860       397
56.880       393
56.900       373
56.920       413
56.940       403
56.960       423
56.980       506
57.000       496
57.020       446
57.040       496
57.060       463
57.080       546
57.100       486
57.120       500
57.140       533
57.160       453
57.180       483
57.200       500
57.220       446
57.240       523
57.260       426
57.280       436
57.300       466
57.320       483
57.340       377
57.360       413
57.380       443
57.400       450
57.420       363
57.440       370
57.460       337
57.480       330
57.500       407
57.520       340
57.540       340
57.560       400
57.580       327
57.600       397
57.620       343
57.640       340
57.660       360
57.680       283
57.700       377
57.720       310
57.740       370
57.760       317
57.780       330
57.800       327
57.820       360
57.840       387
57.860       340
57.880       320
57.900       347
57.920       440
57.940       363
57.960       370
57.980       337
58.000       323
58.020       363
58.040       297
58.060       340
58.080       333
58.100       357
58.120       340
58.140       300
58.160       313
58.180       337
58.200       373
58.220       327
58.240       313
58.260       313
58.280       363
58.300       283
58.320       327
58.340       343
58.360       290
58.380       293
58.400       310
58.420       323
58.440       310
58.460       287
58.480       320
58.500       313
58.520       343
58.540       363
58.560       343
58.580       303
58.600       330
58.620       307
58.640       283
58.660       360
58.680       423
58.700       303
58.720       357
58.740       383
58.760       323
58.780       380
58.800       233
58.820       280
58.840       343
58.860       280
58.880       360
58.900       340
58.920       360
58.940       320
58.960       367
58.980       333
59.000       293
59.020       357
59.040       320
59.060       340
59.080       333
59.100       273
59.120       283
59.140       300
59.160       273
59.180       297
59.200       377
59.220       340
59.240       273
59.260       313
59.280       310
59.300       313
59.320       290
59.340       277
59.360       363
59.380       297
59.400       307
59.420       290
59.440       323
59.460       290
59.480       333
59.500       300
59.520       267
59.540       343
59.560       367
59.580       333
59.600       380
59.620       337
59.640       390
59.660       407
59.680       317
59.700       330
59.720       383
59.740       370
59.760       357
59.780       367
59.800       293
59.820       360
59.840       363
59.860       340
59.880       330
59.900       343
59.920       297
59.940       343
59.960        77
59.980         3
60.000         3
