20.000        53
20.020        33
20.040        53
20.060        47
20.080        43
20.100        33
20.120        37
20.140        50
20.160        43
20.180        43
20.200        53
20.220        20
20.240        53
20.260        50
20.280        57
20.300        47
20.320        53
20.340        63
20.360        47
20.380        33
20.400        33
20.420        20
20.440        37
20.460        60
20.480        47
20.500        43
20.520        53
20.540        43
20.560        37
20.580        47
20.600        23
20.620        37
20.640        57
20.660        43
20.680        47
20.700        40
20.720        47
20.740        27
20.760        57
20.780        50
20.800        40
20.820        43
20.840        23
20.860        17
20.880        40
20.900        53
20.920        57
20.940        33
20.960        50
20.980        30
21.000        57
21.020        33
21.040        33
21.060        33
21.080        30
21.100        53
21.120        37
21.140        60
21.160        60
21.180        30
21.200        30
21.220        63
21.240        40
21.260        90
21.280        40
21.300        37
21.320        37
21.340        63
21.360        33
21.380        50
21.400        50
21.420        53
21.440        37
21.460        27
21.480        33
21.500        43
21.520        33
21.540        53
21.560        63
21.580        57
21.600        43
21.620        27
21.640        47
21.660        40
21.680        57
21.700        43
21.720        17
21.740        40
21.760        20
21.780        37
21.800        30
21.820        30
21.840        40
21.860        40
21.880        50
21.900        37
21.920        50
21.940        50
21.960        40
21.980        33
22.000        27
22.020        30
22.040        40
22.060        33
22.080        27
22.100        40
22.120        33
22.140        30
22.160        40
22.180        33
22.200        37
22.220        30
22.240        50
22.260        40
22.280        40
22.300        20
22.320        20
22.340        47
22.360        23
22.380        10
22.400        30
22.420        27
22.440        20
22.460        57
22.480        20
22.500        30
22.520        17
22.540        30
22.560        17
22.580        30
22.600        47
22.620        37
22.640        43
22.660        40
22.680        20
22.700        40
22.720        40
22.740        30
22.760        23
22.780        33
22.800        13
22.820        43
22.840        37
22.860        47
22.880        43
22.900        33
22.920        27
22.940        43
22.960        50
22.980        27
23.000        40
23.020        30
23.040        20
23.060        13
23.080        20
23.100        23
23.120        27
23.140        47
23.160        33
23.180        37
23.200        37
23.220        27
23.240        40
23.260        43
23.280        20
23.300        33
23.320        30
23.340        20
23.360        30
23.380        47
23.400        37
23.420        33
23.440        13
23.460        40
23.480        43
23.500        27
23.520        30
23.540        43
23.560        43
23.580        33
23.600        30
23.620        47
23.640        43
23.660        33
23.680        37
23.700        33
23.720        33
23.740        23
23.760        33
23.780        33
23.800        53
23.820        43
23.840        37
23.860        30
23.880        27
23.900        37
23.920        17
23.940        30
23.960        33
23.980        23
24.000        30
24.020        30
24.040        33
24.060        37
24.080        40
24.100        40
24.120        23
24.140        67
24.160        37
24.180        13
24.200        33
24.220        47
24.240        23
24.260        27
24.280        23
24.300        30
24.320        20
24.340        10
24.360        23
24.380        23
24.400        67
24.420        33
24.440        33
24.460        30
24.480        33
24.500        47
24.520        40
24.540        23
24.560        43
24.580        33
24.600        37
24.620        30
24.640        40
24.660        23
24.680        60
24.700        47
24.720        43
24.740        27
24.760        47
24.780        53
24.800        37
24.820        40
24.840        47
24.860        50
24.880        77
24.900        43
24.920        43
24.940        30
24.960        40
24.980        30
25.000        53
25.020        27
25.040        50
25.060        23
25.080        40
25.100        20
25.120        40
25.140        30
25.160        17
25.180        30
25.200        17
25.220        40
25.240        33
25.260        10
25.280        17
25.300        20
25.320        43
25.340        20
25.360        27
25.380        23
25.400        47
25.420        20
25.440        20
25.460        20
25.480        27
25.500        27
25.520        33
25.540        50
25.560        20
25.580        60
25.600        80
25.620        40
25.640        50
25.660        40
25.680        37
25.700        60
25.720        53
25.740        40
25.760        37
25.780        27
25.800        23
25.820        17
25.840        23
25.860        30
25.880        43
25.900        33
25.920        37
25.940        37
25.960        27
25.980        20
26.000        13
26.020        33
26.040        20
26.060        27
26.080        37
26.100        40
26.120        33
26.140        27
26.160        17
26.180        40
26.200        23
26.220        37
26.240        40
26.260        37
26.280        30
26.300        33
26.320        23
26.340        20
26.360        37
26.380        23
26.400        13
26.420        17
26.440        33
26.460        30
26.480        23
26.500        33
26.520        30
26.540        23
26.560        37
26.580        23
26.600        50
26.620        33
26.640        37
26.660        20
26.680        50
26.700        17
26.720        27
26.740        37
26.760        13
26.780        20
26.800        20
26.820        27
26.840        20
26.860        10
26.880        40
26.900        30
26.920        23
26.940        37
26.960        30
26.980        43
27.000        27
27.020        37
27.040        30
27.060        40
27.080        43
27.100        20
27.120        23
27.140        23
27.160        10
27.180        17
27.200        30
27.220        40
27.240        23
27.260        17
27.280        30
27.300        37
27.320        17
27.340        43
27.360        47
27.380        20
27.400        47
27.420        10
27.440        47
27.460        13
27.480        27
27.500        30
27.520        33
27.540        40
27.560        33
27.580        43
27.600        13
27.620        20
27.640        20
27.660        40
27.680        47
27.700        23
27.720        27
27.740        20
27.760        23
27.780        27
27.800        20
27.820        27
27.840        30
27.860        13
27.880        37
27.900        23
27.920        10
27.940        20
27.960        27
27.980        23
28.000        23
28.020        27
28.040        30
28.060        23
28.080        43
28.100        20
28.120        17
28.140        37
28.160        23
28.180        17
28.200        13
28.220        33
28.240        23
28.260        20
28.280        27
28.300        23
28.320        33
28.340        17
28.360        20
28.380        30
28.400        37
28.420        23
28.440        47
28.460        27
28.480        17
28.500        30
28.520        23
28.540        10
28.560        10
28.580        33
28.600        27
28.620        23
28.640        37
28.660        27
28.680        17
28.700        30
28.720        30
28.740        40
28.760        27
28.780        27
28.800        23
28.820        37
28.840        27
28.860        10
28.880        43
28.900        20
28.920         7
28.940        47
28.960        47
28.980        10
29.000        30
29.020        20
29.040        20
29.060        20
29.080        33
29.100        17
29.120        37
29.140        33
29.160        60
29.180        43
29.200        37
29.220        50
29.240        57
29.260        53
29.280        60
29.300        57
29.320        67
29.340        60
29.360        53
29.380        63
29.400        93
29.420        40
29.440        30
29.460        37
29.480        40
29.500        33
29.520        17
29.540        30
29.560        23
29.580        13
29.600        13
29.620        23
29.640        20
29.660        27
29.680        43
29.700        13
29.720        27
29.740        10
29.760        30
29.780        23
29.800        27
29.820        33
29.840        27
29.860        23
29.880        33
29.900        13
29.920        40
29.940        37
29.960        43
29.980         3
30.000        17
30.020        20
30.040        27
30.060        20
30.080        47
30.100        37
30.120        30
30.140        10
30.160        20
30.180        20
30.200        30
30.220        17
30.240        17
30.260         7
30.280         7
30.300        23
30.320        47
30.340        17
30.360        20
30.380         3
30.400        27
30.420        17
30.440        10
30.460        33
30.480        30
30.500        20
30.520        33
30.540        17
30.560        30
30.580        37
30.600        20
30.620        27
30.640        20
30.660        20
30.680        13
30.700        10
30.720        23
30.740        17
30.760        17
30.780        17
30.800        23
30.820        13
30.840        17
30.860        20
30.880        30
30.900        43
30.920        27
30.940        13
30.960        43
30.980        37
31.000        17
31.020        40
31.040        20
31.060         3
31.080        23
31.100        37
31.120        33
31.140        47
31.160        60
31.180        23
31.200        33
31.220        40
31.240        47
31.260        33
31.280        23
31.300        17
31.320        40
31.340        23
31.360        40
31.380        13
31.400        40
31.420        13
31.440        17
31.460        17
31.480        27
31.500        17
31.520        43
31.540        20
31.560        27
31.580        27
31.600        17
31.620        27
31.640        10
31.660        30
31.680        33
31.700        33
31.720        13
31.740        20
31.760        33
31.780        37
31.800        17
31.820        30
31.840        27
31.860        13
31.880        17
31.900        27
31.920        30
31.940        33
31.960        10
31.980        10
32.000        30
32.020        30
32.040        17
32.060        20
32.080        10
32.100        17
32.120        20
32.140        17
32.160        23
32.180        23
32.200        30
32.220        27
32.240        23
32.260        20
32.280        17
32.300        20
32.320        23
32.340        33
32.360        23
32.380        30
32.400        13
32.420        20
32.440        13
32.460        20
32.480        30
32.500         7
32.520        17
32.540        20
32.560        30
32.580        43
32.600        13
32.620        17
32.640        27
32.660        30
32.680        17
32.700        33
32.720        47
32.740        37
32.760        20
32.780        37
32.800        20
32.820        20
32.840        13
32.860        30
32.880        23
32.900        23
32.920        20
32.940        30
32.960        37
32.980        23
33.000        27
33.020        23
33.040        23
33.060        37
33.080         7
33.100        33
33.120        33
33.140        30
33.160        33
33.180        23
33.200        23
33.220         7
33.240        27
33.260        37
33.280        23
33.300        20
33.320        13
33.340        43
33.360        33
33.380        23
33.400        17
33.420        27
33.440        23
33.460        30
33.480        37
33.500         7
33.520        13
33.540        20
33.560        30
33.580        27
33.600         3
33.620        20
33.640        33
33.660        27
33.680        17
33.700        37
33.720        27
33.740         3
33.760        17
33.780        13
33.800        27
33.820        17
33.840        20
33.860        17
33.880        33
33.900        23
33.920        23
33.940        23
33.960        40
33.980        37
34.000        30
34.020        43
34.040        40
34.060        30
34.080        43
34.100        20
34.120        23
34.140        33
34.160        30
34.180        53
34.200        37
34.220        47
34.240        23
34.260        30
34.280        40
34.300        10
34.320        27
34.340        37
34.360        23
34.380        13
34.400        27
34.420        37
34.440        13
34.460         3
34.480        13
34.500        10
34.520        17
34.540        20
34.560        37
34.580        33
34.600        27
34.620        37
34.640        13
34.660        30
34.680        10
34.700        20
34.720        47
34.740        23
34.760        10
34.780        17
34.800        10
34.820        13
34.840        23
34.860        27
34.880        27
34.900        33
34.920        17
34.940        20
34.960         7
34.980        20
35.000        27
35.020        20
35.040        23
35.060        13
35.080        20
35.100        20
35.120        13
35.140        20
35.160        30
35.180        27
35.200        33
35.220        33
35.240        20
35.260        17
35.280        10
35.300        13
35.320        10
35.340        33
35.360        20
35.380        33
35.400        13
35.420        33
35.440        23
35.460        17
35.480        27
35.500        17
35.520        43
35.540        13
35.560        10
35.580        20
35.600        13
35.620        17
35.640        20
35.660        10
35.680        20
35.700        43
35.720        47
35.740        23
35.760        27
35.780        17
35.800        13
35.820        37
35.840        23
35.860        17
35.880        27
35.900        43
35.920        37
35.940        33
35.960        13
35.980        23
36.000        27
36.020        17
36.040        20
36.060        13
36.080        10
36.100        20
36.120        20
36.140        10
36.160         7
36.180         7
36.200        13
36.220        17
36.240        30
36.260        13
36.280        23
36.300        17
36.320        40
36.340        30
36.360        27
36.380        33
36.400        13
36.420        20
36.440        13
36.460        17
36.480        47
36.500        40
36.520        23
36.540        27
36.560        10
36.580        20
36.600        20
36.620        20
36.640        20
36.660        37
36.680        13
36.700        13
36.720        33
36.740        23
36.760        33
36.780         7
36.800        27
36.820        13
36.840        10
36.860        13
36.880        20
36.900        23
36.920        17
36.940        17
36.960        20
36.980        10
37.000        43
37.020        20
37.040        20
37.060        37
37.080        17
37.100        17
37.120        27
37.140        20
37.160        23
37.180        37
37.200        20
37.220        27
37.240        10
37.260        23
37.280        17
37.300        27
37.320        33
37.340        20
37.360        23
37.380        20
37.400        37
37.420        20
37.440        13
37.460        33
37.480        17
37.500        43
37.520         7
37.540        27
37.560        27
37.580        37
37.600        40
37.620        30
37.640        17
37.660        27
37.680        40
37.700        30
37.720        27
37.740        23
37.760        30
37.780        10
37.800        23
37.820        20
37.840        27
37.860         3
37.880        23
37.900        30
37.920        23
37.940        37
37.960        30
37.980        40
38.000        20
38.020        30
38.040        33
38.060        27
38.080        23
38.100        30
38.120        17
38.140        23
38.160        43
38.180        47
38.200        53
38.220        43
38.240        63
38.260        80
38.280        93
38.300        67
38.320       133
38.340       153
38.360       173
38.380       247
38.400       280
38.420       423
38.440       440
38.460       536
38.480       510
38.500       543
38.520       433
38.540       373
38.560       277
38.580       363
38.600       217
38.620       163
38.640       153
38.660        67
38.680        60
38.700        53
38.720        13
38.740        53
38.760        47
38.780        33
38.800        33
38.820        30
38.840        20
38.860        30
38.880        33
38.900        43
38.920        17
38.940        13
38.960        17
38.980        13
39.000        40
39.020        33
39.040        17
39.060        30
39.080        33
39.100        13
39.120        13
39.140        37
39.160        20
39.180        43
39.200        37
39.220        37
39.240        47
39.260        43
39.280        33
39.300        43
39.320        37
39.340        37
39.360        30
39.380        40
39.400        40
39.420        43
39.440        30
39.460        30
39.480        67
39.500        30
39.520        30
39.540        17
39.560        23
39.580        40
39.600        23
39.620        27
39.640        33
39.660        20
39.680        20
39.700        40
39.720        20
39.740        30
39.760        17
39.780        30
39.800        27
39.820        10
39.840        23
39.860        33
39.880        27
39.900        17
39.920        30
39.940        30
39.960        17
39.980        13
40.000        27
40.020        13
40.040        27
40.060        20
40.080        20
40.100        13
40.120        23
40.140        13
40.160        20
40.180        17
40.200        33
40.220        10
40.240        17
40.260        20
40.280        17
40.300        27
40.320        23
40.340        33
40.360        17
40.380        23
40.400        27
40.420        27
40.440        20
40.460        20
40.480        20
40.500        27
40.520        30
40.540        17
40.560        10
40.580        13
40.600        17
40.620        23
40.640        23
40.660        27
40.680        13
40.700        37
40.720        23
40.740        20
40.760         7
40.780        47
40.800        20
40.820        17
40.840        27
40.860        27
40.880        23
40.900        23
40.920        17
40.940        23
40.960        17
40.980        33
41.000         7
41.020        23
41.040        27
41.060         7
41.080        23
41.100        20
41.120         7
41.140        27
41.160        30
41.180        10
41.200        23
41.220        20
41.240        30
41.260        10
41.280        47
41.300        30
41.320        23
41.340        17
41.360        13
41.380        27
41.400        23
41.420        50
41.440        17
41.460         7
41.480        17
41.500        17
41.520        20
41.540        33
41.560        33
41.580        17
41.600        10
41.620        23
41.640        27
41.660        20
41.680        23
41.700        17
41.720        43
41.740        37
41.760        40
41.780        27
41.800        30
41.820        23
41.840         7
41.860        20
41.880        17
41.900        30
41.920        33
41.940        10
41.960        10
41.980        27
42.000        23
42.020        30
42.040        23
42.060        30
42.080        20
42.100        27
42.120        23
42.140        47
42.160        20
42.180        17
42.200        20
42.220        17
42.240        13
42.260        23
42.280        10
42.300        23
42.320        20
42.340        40
42.360        27
42.380        20
42.400        20
42.420        37
42.440        23
42.460         3
42.480        13
42.500        23
42.520        33
42.540        27
42.560        40
42.580        23
42.600        13
42.620        30
42.640        20
42.660        30
42.680        50
42.700        13
42.720        30
42.740        30
42.760        17
42.780        13
42.800        20
42.820        20
42.840        20
42.860        20
42.880        13
42.900        23
42.920        23
42.940        23
42.960        33
42.980        27
43.000        30
43.020        37
43.040        40
43.060        40
43.080        33
43.100        27
43.120        40
43.140        40
43.160        37
43.180        27
43.200        27
43.220        23
43.240        20
43.260        27
43.280        17
43.300        40
43.320        30
43.340        23
43.360        13
43.380        33
43.400        23
43.420        20
43.440        33
43.460        23
43.480        13
43.500        37
43.520        23
43.540        17
43.560        33
43.580         7
43.600        23
43.620        17
43.640        17
43.660        13
43.680        10
43.700        23
43.720        23
43.740        23
43.760        40
43.780        23
43.800        27
43.820        10
43.840        13
43.860        30
43.880        10
43.900        13
43.920        27
43.940        20
43.960        23
43.980        17
44.000        27
44.020        10
44.040        27
44.060        23
44.080        37
44.100        33
44.120        20
44.140        13
44.160        20
44.180        17
44.200        27
44.220        23
44.240        37
44.260        20
44.280        27
44.300        33
44.320        47
44.340        17
44.360        47
44.380        10
44.400        33
44.420        27
44.440        20
44.460        27
44.480         7
44.500        27
44.520         0
44.540        10
44.560        30
44.580        27
44.600        23
44.620        30
44.640        17
44.660        23
44.680        23
44.700        20
44.720        40
44.740        20
44.760        27
44.780        57
44.800        20
44.820        10
44.840        20
44.860        33
44.880        27
44.900        23
44.920        20
44.940        23
44.960        43
44.980        33
45.000         7
45.020        40
45.040        30
45.060        33
45.080        23
45.100        13
45.120        17
45.140        20
45.160        20
45.180        20
45.200        27
45.220        13
45.240        10
45.260        13
45.280         7
45.300        13
45.320        20
45.340         7
45.360        20
45.380        23
45.400        17
45.420        20
45.440        17
45.460        13
45.480        10
45.500        13
45.520        27
45.540        30
45.560        30
45.580        17
45.600        10
45.620        27
45.640        10
45.660        33
45.680        23
45.700        10
45.720        20
45.740        13
45.760        30
45.780        23
45.800        17
45.820        30
45.840        13
45.860        10
45.880        17
45.900        13
45.920        10
45.940         3
45.960        20
45.980        23
46.000        37
46.020        13
46.040        23
46.060        20
46.080        10
46.100        23
46.120        13
46.140        23
46.160        20
46.180        37
46.200        17
46.220        33
46.240        30
46.260        33
46.280        17
46.300        17
46.320        20
46.340        27
46.360        23
46.380        33
46.400        27
46.420        13
46.440        27
46.460        17
46.480        20
46.500        10
46.520        13
46.540        37
46.560        20
46.580        20
46.600         0
46.620        33
46.640        27
46.660        20
46.680        23
46.700        30
46.720        13
46.740        17
46.760        13
46.780        20
46.800         7
46.820        23
46.840        20
46.860        37
46.880        23
46.900        20
46.920        37
46.940        33
46.960        27
46.980        23
47.000        13
47.020        43
47.040        30
47.060        40
47.080        17
47.100        23
47.120        30
47.140        30
47.160        33
47.180        27
47.200        17
47.220        23
47.240        37
47.260        17
47.280        23
47.300        20
47.320        40
47.340        43
47.360        40
47.380        40
47.400        63
47.420        50
47.440        23
47.460        40
47.480        37
47.500        30
47.520        27
47.540        30
47.560        33
47.580        37
47.600        37
47.620        40
47.640        40
47.660        17
47.680        40
47.700        17
47.720        10
47.740        27
47.760        13
47.780        23
47.800        10
47.820        13
47.840        13
47.860        17
47.880        10
47.900        17
47.920        20
47.940        37
47.960        40
47.980        37
48.000        20
48.020        30
48.040        13
48.060        27
48.080        20
48.100        20
48.120        17
48.140         0
48.160        33
48.180        17
48.200        20
48.220        17
48.240        13
48.260        10
48.280        40
48.300        40
48.320        17
48.340        33
48.360        40
48.380        30
48.400        60
48.420        27
48.440        40
48.460        60
48.480        20
48.500        23
48.520        30
48.540        23
48.560        13
48.580        27
48.600        40
48.620        23
48.640        33
48.660        10
48.680        17
48.700        30
48.720        20
48.740        20
48.760        33
48.780        30
48.800        30
48.820        20
48.840        30
48.860        17
48.880        23
48.900        17
48.920        30
48.940        17
48.960        27
48.980        27
49.000        17
49.020        17
49.040        27
49.060        17
49.080        13
49.100        43
49.120        27
49.140        23
49.160        27
49.180        17
49.200        27
49.220        13
49.240        23
49.260        17
49.280        23
49.300        10
49.320        23
49.340        17
49.360        20
49.380        10
49.400        27
49.420        17
49.440        17
49.460        17
49.480        17
49.500        23
49.520        10
49.540        17
49.560        17
49.580        20
49.600        30
49.620        10
49.640        37
49.660        27
49.680        27
49.700        20
49.720        30
49.740        17
49.760        20
49.780        13
49.800        30
49.820        17
49.840        27
49.860        13
49.880        30
49.900        30
49.920        17
49.940        33
49.960        37
49.980        27
50.000        10
50.020        17
50.040        10
50.060        13
50.080         3
50.100        13
50.120        10
50.140        20
50.160        27
50.180        10
50.200        23
50.220        33
50.240        20
50.260        33
50.280        30
50.300        23
50.320        13
50.340         7
50.360        23
50.380        20
50.400        13
50.420        17
50.440        27
50.460        23
50.480         7
50.500        20
50.520        23
50.540        23
50.560        23
50.580        27
50.600        17
50.620        23
50.640        13
50.660        17
50.680        30
50.700        13
50.720        20
50.740        17
50.760        20
50.780        23
50.800        17
50.820        27
50.840        17
50.860        40
50.880        13
50.900        37
50.920        17
50.940        23
50.960        17
50.980        13
51.000        17
51.020        27
51.040        10
51.060        20
51.080        20
51.100        13
51.120        30
51.140        13
51.160        13
51.180        10
51.200        13
51.220        20
51.240        17
51.260        10
51.280        23
51.300        17
51.320        37
51.340        10
51.360        20
51.380        17
51.400        27
51.420        17
51.440        23
51.460        37
51.480        17
51.500        17
51.520        23
51.540        17
51.560        23
51.580         7
51.600        17
51.620        13
51.640        17
51.660        20
51.680        33
51.700        27
51.720        17
51.740        10
51.760        20
51.780        17
51.800        20
51.820        30
51.840        10
51.860        40
51.880        20
51.900        30
51.920        20
51.940        27
51.960        13
51.980        20
52.000        20
52.020         3
52.040        40
52.060        20
52.080        13
52.100        27
52.120        23
52.140         0
52.160        23
52.180        30
52.200        37
52.220        13
52.240        20
52.260        23
52.280        20
52.300        23
52.320        37
52.340        37
52.360        40
52.380        43
52.400        33
52.420        27
52.440        27
52.460        20
52.480        27
52.500        37
52.520        40
52.540        50
52.560        63
52.580        80
52.600        33
52.620        77
52.640        27
52.660        50
52.680        47
52.700        57
52.720        40
52.740        43
52.760        30
52.780        20
52.800        43
52.820        30
52.840        13
52.860        37
52.880        23
52.900        30
52.920        10
52.940        23
52.960        27
52.980        17
53.000        13
53.020        37
53.040        10
53.060        20
53.080        17
53.100        17
53.120        23
53.140        37
53.160        13
53.180        20
53.200        33
53.220        23
53.240        17
53.260        17
53.280        30
53.300        13
53.320        30
53.340        17
53.360        27
53.380        17
53.400        33
53.420        17
53.440        23
53.460        13
53.480        10
53.500        17
53.520        33
53.540        30
53.560        13
53.580         7
53.600        50
53.620        33
53.640        23
53.660        23
53.680        33
53.700        23
53.720        27
53.740        13
53.760        23
53.780         7
53.800        20
53.820        30
53.840        30
53.860        23
53.880        17
53.900        17
53.920        37
53.940        30
53.960        23
53.980        17
54.000        13
54.020        27
54.040        23
54.060        23
54.080        13
54.100        10
54.120        13
54.140        23
54.160        20
54.180        20
54.200        13
54.220        13
54.240        23
54.260        27
54.280        23
54.300        17
54.320        17
54.340        13
54.360        13
54.380        10
54.400        57
54.420        43
54.440        23
54.460        13
54.480        27
54.500        10
54.520        33
54.540        10
54.560        30
54.580        27
54.600        37
54.620        27
54.640         3
54.660        13
54.680        23
54.700        17
54.720        20
54.740        30
54.760        10
54.780        23
54.800        33
54.820        43
54.840        17
54.860         7
54.880        23
54.900        30
54.920        10
54.940        17
54.960        20
54.980        17
55.000        40
55.020        40
55.040        13
55.060        13
55.080        30
55.100        33
55.120        20
55.140        23
55.160        20
55.180        43
55.200        53
55.220        53
55.240        30
55.260        27
55.280        50
55.300        53
55.320        67
55.340        60
55.360       133
55.380       157
55.400       153
55.420       207
55.440       217
55.460       313
55.480       423
55.500       387
55.520       397
55.540       360
55.560       393
55.580       426
55.600       320
55.620       277
55.640       253
55.660       250
55.680       213
55.700       220
55.720       190
55.740       123
55.760        93
55.780        77
55.800        63
55.820        77
55.840        60
55.860        47
55.880        33
55.900        27
55.920        47
55.940        37
55.960        27
55.980        37
56.000        20
56.020        17
56.040        27
56.060        33
56.080        30
56.100        17
56.120        20
56.140        23
56.160        17
56.180        17
56.200        10
56.220        37
56.240        13
56.260        23
56.280        10
56.300        27
56.320         7
56.340        27
56.360        20
56.380         7
56.400        10
56.420         7
56.440        23
56.460         7
56.480        27
56.500        27
56.520        40
56.540        20
56.560        40
56.580        20
56.600         7
56.620        23
56.640         7
56.660        23
56.680        30
56.700        10
56.720        17
56.740        10
56.760        30
56.780        23
56.800        17
56.820        13
56.840        10
56.860        37
56.880        17
56.900        23
56.920        17
56.940        20
56.960        13
56.980         7
57.000        23
57.020        30
57.040        20
57.060        30
57.080        20
57.100        13
57.120        20
57.140        27
57.160        17
57.180        30
57.200        27
57.220        17
57.240        23
57.260        30
57.280        47
57.300        17
57.320        13
57.340        30
57.360        30
57.380        20
57.400        13
57.420        33
57.440         3
57.460        30
57.480        13
57.500        27
57.520        27
57.540        10
57.560        13
57.580        27
57.600         3
57.620         7
57.640        23
57.660        27
57.680        23
57.700        17
57.720        10
57.740        30
57.760        23
57.780        23
57.800        10
57.820        13
57.840        13
57.860        13
57.880        13
57.900        17
57.920        33
57.940        30
57.960        40
57.980         7
58.000        10
58.020         7
58.040        17
58.060         7
58.080        33
58.100        17
58.120        23
58.140        23
58.160        10
58.180        20
58.200        13
58.220        17
58.240        13
58.260        17
58.280        13
58.300        27
58.320        23
58.340        10
58.360        30
58.380        13
58.400        13
58.420        37
58.440         7
58.460        27
58.480        20
58.500         3
58.520         7
58.540        20
58.560        27
58.580        13
58.600        10
58.620        17
58.640        27
58.660        27
58.680        23
58.700        23
58.720        23
58.740        27
58.760        17
58.780        13
58.800         7
58.820        13
58.840        20
58.860        10
58.880        13
58.900         7
58.920        17
58.940        27
58.960        10
58.980         3
59.000        23
59.020        20
59.040        17
59.060        17
59.080        17
59.100        30
59.120        30
59.140        13
59.160        20
59.180        10
59.200         7
59.220        23
59.240         7
59.260        17
59.280        13
59.300        27
59.320        27
59.340        20
59.360        20
59.380        20
59.400        20
59.420        10
59.440        17
59.460        17
59.480        13
59.500        23
59.520        47
59.540        17
59.560        20
59.580        17
59.600         7
59.620        37
59.640        10
59.660         7
59.680        20
59.700         7
59.720        27
59.740        13
59.760        17
59.780        13
59.800        13
59.820        13
59.840        20
59.860        10
59.880        20
59.900        20
59.920        10
59.940        20
59.960        13
59.980         0
60.000         0
