20.000        60
20.020        53
20.040        30
20.060        93
20.080        67
20.100        53
20.120        37
20.140        63
20.160        37
20.180        50
20.200        57
20.220        80
20.240        67
20.260        73
20.280        63
20.300        73
20.320        37
20.340        63
20.360        43
20.380        57
20.400        77
20.420        80
20.440        67
20.460        57
20.480        63
20.500        50
20.520        33
20.540        53
20.560        63
20.580        40
20.600        57
20.620        47
20.640        33
20.660        47
20.680        33
20.700        60
20.720        83
20.740        87
20.760        63
20.780        70
20.800        60
20.820        53
20.840        80
20.860        63
20.880        67
20.900        57
20.920        43
20.940        60
20.960        67
20.980        67
21.000        50
21.020        43
21.040        50
21.060        47
21.080        57
21.100        57
21.120        40
21.140        50
21.160        57
21.180        60
21.200        77
21.220        47
21.240        47
21.260        93
21.280        70
21.300        77
21.320        83
21.340        63
21.360        93
21.380       100
21.400        80
21.420        97
21.440        73
21.460       100
21.480        63
21.500        70
21.520        93
21.540        47
21.560        50
21.580        40
21.600        50
21.620        57
21.640        40
21.660        90
21.680        50
21.700        37
21.720        67
21.740        73
21.760        50
21.780        40
21.800        47
21.820        57
21.840        50
21.860        73
21.880        43
21.900        53
21.920        43
21.940        63
21.960        70
21.980        30
22.000        47
22.020        47
22.040        53
22.060        57
22.080        40
22.100        33
22.120        73
22.140        47
22.160        33
22.180        30
22.200        43
22.220        57
22.240        70
22.260        50
22.280        50
22.300        50
22.320        57
22.340        57
22.360        50
22.380        67
22.400        50
22.420        47
22.440        67
22.460        40
22.480        43
22.500        43
22.520        43
22.540        73
22.560        50
22.580        60
22.600        47
22.620        33
22.640        60
22.660        47
22.680        50
22.700        43
22.720        50
22.740        50
22.760        27
22.780        47
22.800        33
22.820        40
22.840        43
22.860        37
22.880        43
22.900        50
22.920        43
22.940        33
22.960        67
22.980        67
23.000        77
23.020        80
23.040        83
23.060        57
23.080        87
23.100        47
23.120        70
23.140        47
23.160        53
23.180        40
23.200        57
23.220        50
23.240        40
23.260        33
23.280        47
23.300        47
23.320        57
23.340        43
23.360        20
23.380        47
23.400        63
23.420        50
23.440        57
23.460        60
23.480        50
23.500        27
23.520        47
23.540        23
23.560        37
23.580        50
23.600        63
23.620        67
23.640        63
23.660        63
23.680        47
23.700        47
23.720        33
23.740        40
23.760        40
23.780        63
23.800        63
23.820        77
23.840        57
23.860        30
23.880        63
23.900        67
23.920        33
23.940        57
23.960        67
23.980        50
24.000        57
24.020        53
24.040        53
24.060        40
24.080        40
24.100        60
24.120        37
24.140        27
24.160        33
24.180        47
24.200        47
24.220        40
24.240        63
24.260        27
24.280        53
24.300        37
24.320        70
24.340        57
24.360        57
24.380        63
24.400        50
24.420        37
24.440        63
24.460        60
24.480        33
24.500        50
24.520        50
24.540        67
24.560        47
24.580        30
24.600        73
24.620        70
24.640        73
24.660        60
24.680        63
24.700        67
24.720        67
24.740       137
24.760       137
24.780       220
24.800       243
24.820       240
24.840       233
24.860       333
24.880       303
24.900       310
24.920       340
24.940       247
24.960       207
24.980       140
25.000       147
25.020        83
25.040        97
25.060        70
25.080        77
25.100        47
25.120        77
25.140        63
25.160        33
25.180        70
25.200        50
25.220        60
25.240        57
25.260        60
25.280        60
25.300        43
25.320        47
25.340        50
25.360        63
25.380        63
25.400        70
25.420        47
25.440        37
25.460        50
25.480        40
25.500        50
25.520        57
25.540        83
25.560        43
25.580        63
25.600        57
25.620        83
25.640        80
25.660        80
25.680        70
25.700        40
25.720        73
25.740        30
25.760        47
25.780        67
25.800        60
25.820        60
25.840        40
25.860        40
25.880        50
25.900        30
25.920        47
25.940        60
25.960        60
25.980        53
26.000        27
26.020        33
26.040        37
26.060        20
26.080        60
26.100        37
26.120        33
26.140        47
26.160        53
26.180        37
26.200        43
26.220        23
26.240        50
26.260        27
26.280        50
26.300        77
26.320        67
26.340        33
26.360        37
26.380        37
26.400        50
26.420        37
26.440        13
26.460        40
26.480        33
26.500        23
26.520        40
26.540        80
26.560        53
26.580        60
26.600        43
26.620        60
26.640        53
26.660        40
26.680        27
26.700        40
26.720        40
26.740        50
26.760        27
26.780        73
26.800        80
26.820        47
26.840        40
26.860        47
26.880        47
26.900        40
26.920        37
26.940        70
26.960        73
26.980        33
27.000        50
27.020        43
27.040        47
27.060        50
27.080        53
27.100        17
27.120        63
27.140        57
27.160        50
27.180        37
27.200        57
27.220        37
27.240        33
27.260        37
27.280        37
27.300        40
27.320        47
27.340        47
27.360        37
27.380        43
27.400        27
27.420        27
27.440        43
27.460        37
27.480        47
27.500        27
27.520        40
27.540        57
27.560        70
27.580        30
27.600        33
27.620        17
27.640        57
27.660        47
27.680        47
27.700        33
27.720        40
27.740        60
27.760        23
27.780        47
27.800        50
27.820        63
27.840        40
27.860        30
27.880        13
27.900        50
27.920        20
27.940        20
27.960        23
27.980        20
28.000        37
28.020        50
28.040        33
28.060        30
28.080        30
28.100        27
28.120        63
28.140        40
28.160        50
28.180        43
28.200        23
28.220        60
28.240        30
28.260        57
28.280        43
28.300        43
28.320        53
28.340        43
28.360        30
28.380        23
28.400        40
28.420        40
28.440        40
28.460        37
28.480        23
28.500        23
28.520        47
28.540        60
28.560        53
28.580        47
28.600        40
28.620        40
28.640        37
28.660        37
28.680        50
28.700        43
28.720        43
28.740        27
28.760        33
28.780        60
28.800        30
28.820        37
28.840        37
28.860        60
28.880        60
28.900        43
28.920        30
28.940        40
28.960        53
28.980        33
29.000        27
29.020        37
29.040        43
29.060        47
29.080        37
29.100        30
29.120        27
29.140        47
29.160        53
29.180        77
29.200        73
29.220        53
29.240       127
29.260       137
29.280       140
29.300       197
29.320       247
29.340       343
29.360       417
29.380       450
29.400       443
29.420       393
29.440       393
29.460       297
29.480       280
29.500       173
29.520       130
29.540       133
29.560        83
29.580        73
29.600        53
29.620        73
29.640        63
29.660        30
29.680        30
29.700        23
29.720        33
29.740        50
29.760        23
29.780        43
29.800        20
29.820        47
29.840        20
29.860        23
29.880        33
29.900        37
29.920        27
29.940        33
29.960        57
29.980        30
30.000        30
30.020        50
30.040        57
30.060        47
30.080        43
30.100        20
30.120        63
30.140        33
30.160        33
30.180        30
30.200        23
30.220        30
30.240        37
30.260        47
30.280        40
30.300        20
30.320        20
30.340        50
30.360        33
30.380        40
30.400        23
30.420        47
30.440        30
30.460        40
30.480        23
30.500        33
30.520        47
30.540        33
30.560        37
30.580        50
30.600        60
30.620        47
30.640        27
30.660        40
30.680        33
30.700        27
30.720        40
30.740        23
30.760        37
30.780        27
30.800        50
30.820        43
30.840        50
30.860        37
30.880        20
30.900        20
30.920        43
30.940        47
30.960        30
30.980        50
31.000        37
31.020        47
31.040        50
31.060        33
31.080        27
31.100        33
31.120        30
31.140        53
31.160        30
31.180        53
31.200        27
31.220        40
31.240        23
31.260        33
31.280        37
31.300        33
31.320        37
31.340        67
31.360        23
31.380        47
31.400        40
31.420        47
31.440        73
31.460        53
31.480        63
31.500        50
31.520        23
31.540        33
31.560        17
31.580        37
31.600        37
31.620        17
31.640        27
31.660        33
31.680        47
31.700        43
31.720        40
31.740        33
31.760        27
31.780        47
31.800        40
31.820        40
31.840        27
31.860        23
31.880        23
31.900        37
31.920        33
31.940        40
31.960        30
31.980        27
32.000        27
32.020        40
32.040        33
32.060        43
32.080        47
32.100        23
32.120        43
32.140        30
32.160        30
32.180        17
32.200        50
32.220        40
32.240        23
32.260        33
32.280        47
32.300        17
32.320        40
32.340        17
32.360        33
32.380        23
32.400        27
32.420        50
32.440        33
32.460        30
32.480        40
32.500        30
32.520        40
32.540        27
32.560        30
32.580        40
32.600        33
32.620        37
32.640        43
32.660        50
32.680        40
32.700        50
32.720        33
32.740        43
32.760        40
32.780        43
32.800        40
32.820        23
32.840        50
32.860        37
32.880        17
32.900        33
32.920        17
32.940        37
32.960        50
32.980        17
33.000        33
33.020        47
33.040        17
33.060        27
33.080        30
33.100        33
33.120        40
33.140        23
33.160        37
33.180        50
33.200        43
33.220        27
33.240        60
33.260        27
33.280        27
33.300        57
33.320        33
33.340        37
33.360        27
33.380        37
33.400        37
33.420        23
33.440        27
33.460        27
33.480        30
33.500        10
33.520        20
33.540        43
33.560        13
33.580         7
33.600        20
33.620        53
33.640        30
33.660        30
33.680        27
33.700        33
33.720        20
33.740        37
33.760        50
33.780        40
33.800        23
33.820        43
33.840        23
33.860        53
33.880        23
33.900        47
33.920        40
33.940        40
33.960        17
33.980        37
34.000        47
34.020        43
34.040        47
34.060        10
34.080        27
34.100        60
34.120        47
34.140        33
34.160        27
34.180        23
34.200        37
34.220        43
34.240        37
34.260        30
34.280        27
34.300        27
34.320        33
34.340        33
34.360        33
34.380        30
34.400        40
34.420        60
34.440        23
34.460        17
34.480        40
34.500        27
34.520        23
34.540        30
34.560        40
34.580        13
34.600        40
34.620        23
34.640        40
34.660        37
34.680        37
34.700        23
34.720        33
34.740        27
34.760        23
34.780        33
34.800        23
34.820        23
34.840        30
34.860        43
34.880        27
34.900        23
34.920        50
34.940        30
34.960        37
34.980        43
35.000        10
35.020        47
35.040        43
35.060        33
35.080        40
35.100        30
35.120        30
35.140        50
35.160        40
35.180        30
35.200        30
35.220        63
35.240        40
35.260        33
35.280        50
35.300        37
35.320        30
35.340        43
35.360        53
35.380        30
35.400        50
35.420        37
35.440        50
35.460        47
35.480        67
35.500        43
35.520        27
35.540        57
35.560        20
35.580        47
35.600        50
35.620        43
35.640        40
35.660        40
35.680        27
35.700        23
35.720        37
35.740        30
35.760        40
35.780        33
35.800        60
35.820        33
35.840        47
35.860        40
35.880        80
35.900        63
35.920        83
35.940        70
35.960       117
35.980        63
36.000        73
36.020        93
36.040       103
36.060        67
36.080        97
36.100        73
36.120        47
36.140        70
36.160        47
36.180        33
36.200        43
36.220        37
36.240        30
36.260        37
36.280        20
36.300        33
36.320        33
36.340        27
36.360        50
36.380        37
36.400        50
36.420        27
36.440        40
36.460        23
36.480        27
36.500        33
36.520        33
36.540        47
36.560        30
36.580        37
36.600        47
36.620        20
36.640        20
36.660        30
36.680        27
36.700        23
36.720        43
36.740        30
36.760        43
36.780        33
36.800        23
36.820        37
36.840        43
36.860        30
36.880        50
36.900        33
36.920        47
36.940        27
36.960        37
36.980        23
37.000        33
37.020        23
37.040        47
37.060        27
37.080        23
37.100        23
37.120        20
37.140        20
37.160        30
37.180        37
37.200        27
37.220        40
37.240        40
37.260        43
37.280        27
37.300        37
37.320        33
37.340        37
37.360        37
37.380        23
37.400        43
37.420        57
37.440        37
37.460        30
37.480        30
37.500        37
37.520        37
37.540        47
37.560        43
37.580        40
37.600        77
37.620        93
37.640        97
37.660        83
37.680        80
37.700        53
37.720        47
37.740        47
37.760        83
37.780        60
37.800       103
37.820        50
37.840        43
37.860        60
37.880        47
37.900        73
37.920        57
37.940        30
37.960        73
37.980        27
38.000        67
38.020        57
38.040        67
38.060        77
38.080        63
38.100        90
38.120       113
38.140       187
38.160       167
38.180       270
38.200       220
38.220       230
38.240       233
38.260       173
38.280       163
38.300       130
38.320       133
38.340        87
38.360        67
38.380        90
38.400        63
38.420        93
38.440        57
38.460        77
38.480        63
38.500        50
38.520        33
38.540        43
38.560        57
38.580        50
38.600        50
38.620        43
38.640        40
38.660        50
38.680        43
38.700        23
38.720        57
38.740        43
38.760        43
38.780        43
38.800        37
38.820        60
38.840        33
38.860        27
38.880        33
38.900        37
38.920        40
38.940        40
38.960        37
38.980        37
39.000        57
39.020        37
39.040        50
39.060        53
39.080        53
39.100        43
39.120        57
39.140        87
39.160        73
39.180        50
39.200        50
39.220        33
39.240        70
39.260        63
39.280        70
39.300        60
39.320       113
39.340        57
39.360        63
39.380       123
39.400        93
39.420       120
39.440       147
39.460        97
39.480        73
39.500       100
39.520        90
39.540        83
39.560        43
39.580        57
39.600        60
39.620        23
39.640        37
39.660        47
39.680        50
39.700        30
39.720        53
39.740        30
39.760        47
39.780        37
39.800        43
39.820        30
39.840        50
39.860        33
39.880        43
39.900        27
39.920        17
39.940        23
39.960        20
39.980        43
40.000        37
40.020        33
40.040        30
40.060        40
40.080        37
40.100        20
40.120        33
40.140        27
40.160        17
40.180        30
40.200        40
40.220        57
40.240        27
40.260        53
40.280        27
40.300        17
40.320        40
40.340        43
40.360        27
40.380        37
40.400        50
40.420        57
40.440        27
40.460        53
40.480        27
40.500        23
40.520        30
40.540        43
40.560        27
40.580        17
40.600        47
40.620        53
40.640        27
40.660        37
40.680        17
40.700        47
40.720        40
40.740        27
40.760        33
40.780        40
40.800        40
40.820        30
40.840        33
40.860        37
40.880        43
40.900        13
40.920        20
40.940        30
40.960        43
40.980        30
41.000        47
41.020        40
41.040        30
41.060        53
41.080        20
41.100        60
41.120        30
41.140        30
41.160        33
41.180        53
41.200        23
41.220        37
41.240        37
41.260        33
41.280        27
41.300        47
41.320        23
41.340        23
41.360        50
41.380        40
41.400        60
41.420        43
41.440        40
41.460        27
41.480        27
41.500        40
41.520        20
41.540        43
41.560        37
41.580        23
41.600        27
41.620        27
41.640         7
41.660        27
41.680        40
41.700        17
41.720        20
41.740        40
41.760        37
41.780        13
41.800        43
41.820        33
41.840        53
41.860        37
41.880        17
41.900        23
41.920        43
41.940        30
41.960        47
41.980        50
42.000        37
42.020        40
42.040        47
42.060        37
42.080        20
42.100        37
42.120        30
42.140        23
42.160        47
42.180        27
42.200        37
42.220        37
42.240        37
42.260        27
42.280        53
42.300        13
42.320        37
42.340        30
42.360        27
42.380        37
42.400        57
42.420        20
42.440        47
42.460        37
42.480        47
42.500        30
42.520        37
42.540        33
42.560        20
42.580        50
42.600        17
42.620        53
42.640        53
42.660        17
42.680        40
42.700        40
42.720        40
42.740        53
42.760        40
42.780        43
42.800        23
42.820        30
42.840        23
42.860        53
42.880        30
42.900        27
42.920        37
42.940        60
42.960        50
42.980        47
43.000        47
43.020        53
43.040        57
43.060        73
43.080        83
43.100        53
43.120       103
43.140       103
43.160       110
43.180       123
43.200       130
43.220       137
43.240       123
43.260       123
43.280       153
43.300       180
43.320       213
43.340       223
43.360       240
43.380       233
43.400       223
43.420       217
43.440       193
43.460       200
43.480       187
43.500       147
43.520       150
43.540        70
43.560        73
43.580        60
43.600        90
43.620        67
43.640        50
43.660        47
43.680        67
43.700        43
43.720        30
43.740        63
43.760        33
43.780        67
43.800        57
43.820        40
43.840        13
43.860        20
43.880        47
43.900        50
43.920        50
43.940        40
43.960        40
43.980        57
44.000        43
44.020        33
44.040        10
44.060        40
44.080        33
44.100        33
44.120        33
44.140        43
44.160        30
44.180        37
44.200        23
44.220        33
44.240        33
44.260        43
44.280        37
44.300        27
44.320        30
44.340        50
44.360        70
44.380        73
44.400        33
44.420        33
44.440        50
44.460        47
44.480        33
44.500        47
44.520        23
44.540        50
44.560        50
44.580        37
44.600        30
44.620        43
44.640        47
44.660        17
44.680        27
44.700        37
44.720        50
44.740        23
44.760        27
44.780        40
44.800        23
44.820        30
44.840        33
44.860        13
44.880        37
44.900        33
44.920        27
44.940        17
44.960        30
44.980        17
45.000        20
45.020        37
45.040        27
45.060        33
45.080        27
45.100        33
45.120        23
45.140        53
45.160        23
45.180        47
45.200        57
45.220        40
45.240        63
45.260        33
45.280        53
45.300        47
45.320        63
45.340        43
45.360        27
45.380        60
45.400        37
45.420        67
45.440        60
45.460        30
45.480        23
45.500        37
45.520        27
45.540        33
45.560        33
45.580        27
45.600        37
45.620        60
45.640        27
45.660        80
45.680        27
45.700        53
45.720        53
45.740        47
45.760        37
45.780        50
45.800        50
45.820        47
45.840        43
45.860        10
45.880        37
45.900        37
45.920        23
45.940        30
45.960        10
45.980        50
46.000        37
46.020        23
46.040        53
46.060        23
46.080        27
46.100        30
46.120        33
46.140        50
46.160        43
46.180        17
46.200        43
46.220        23
46.240        30
46.260        33
46.280        33
46.300        40
46.320        43
46.340        37
46.360        37
46.380        37
46.400        27
46.420        47
46.440        33
46.460        43
46.480        30
46.500        40
46.520        20
46.540        23
46.560        43
46.580        27
46.600        40
46.620        33
46.640        60
46.660        17
46.680        30
46.700        50
46.720        50
46.740        33
46.760        47
46.780        13
46.800        23
46.820        33
46.840        60
46.860        53
46.880        57
46.900        23
46.920        37
46.940        60
46.960        20
46.980        73
47.000        40
47.020        87
47.040        33
47.060        47
47.080        57
47.100        77
47.120        47
47.140        30
47.160        33
47.180        53
47.200       117
47.220        57
47.240        77
47.260        63
47.280        30
47.300        47
47.320        50
47.340        47
47.360        57
47.380        57
47.400        63
47.420       140
47.440       117
47.460       150
47.480       140
47.500       150
47.520       160
47.540       103
47.560        73
47.580       143
47.600       153
47.620        90
47.640       110
47.660        67
47.680        57
47.700        60
47.720        63
47.740        40
47.760        40
47.780        30
47.800        33
47.820        47
47.840        57
47.860        17
47.880        23
47.900        50
47.920        27
47.940        63
47.960        20
47.980        33
48.000        27
48.020        40
48.040        40
48.060        30
48.080        23
48.100        47
48.120        37
48.140        30
48.160        47
48.180        33
48.200        40
48.220        53
48.240        53
48.260        47
48.280        57
48.300        77
48.320        43
48.340        47
48.360        50
48.380        40
48.400        83
48.420        87
48.440        80
48.460       127
48.480       133
48.500        93
48.520       103
48.540       107
48.560        93
48.580        80
48.600        83
48.620        80
48.640        37
48.660        43
48.680        70
48.700        67
48.720        57
48.740        40
48.760        47
48.780        40
48.800        30
48.820        23
48.840        40
48.860        50
48.880        17
48.900        37
48.920        37
48.940        47
48.960        23
48.980        30
49.000        40
49.020        17
49.040        37
49.060        27
49.080        30
49.100        23
49.120        33
49.140        37
49.160        13
49.180        47
49.200        20
49.220        33
49.240        27
49.260        20
49.280        43
49.300        33
49.320        43
49.340        50
49.360        37
49.380        27
49.400        33
49.420        40
49.440        50
49.460        37
49.480        30
49.500        37
49.520        43
49.540        50
49.560        33
49.580        37
49.600        47
49.620        17
49.640        37
49.660        23
49.680        30
49.700        37
49.720        23
49.740        63
49.760        20
49.780        40
49.800        40
49.820        30
49.840        53
49.860        33
49.880        47
49.900        53
49.920        27
49.940        47
49.960        33
49.980        43
50.000        67
50.020        37
50.040        47
50.060        30
50.080        23
50.100        50
50.120        40
50.140        17
50.160        50
50.180        27
50.200        40
50.220        23
50.240        23
50.260        33
50.280        43
50.300        53
50.320        40
50.340        50
50.360        60
50.380        73
50.400        80
50.420        43
50.440        57
50.460        80
50.480        50
50.500        87
50.520        90
50.540        67
50.560        90
50.580        93
50.600        57
50.620        73
50.640        77
50.660        73
50.680        73
50.700        73
50.720        77
50.740        87
50.760        70
50.780        63
50.800        73
50.820        53
50.840        57
50.860        40
50.880        50
50.900        70
50.920        47
50.940        43
50.960        63
50.980        40
51.000        60
51.020        30
51.040        60
51.060        63
51.080        33
51.100        60
51.120        37
51.140        33
51.160        47
51.180        27
51.200        57
51.220        40
51.240        23
51.260        70
51.280        37
51.300        23
51.320        50
51.340        33
51.360        50
51.380        37
51.400        30
51.420        50
51.440        47
51.460        43
51.480        23
51.500        23
51.520        13
51.540        33
51.560        17
51.580        43
51.600        27
51.620        53
51.640        37
51.660        17
51.680        20
51.700        30
51.720        20
51.740        27
51.760        20
51.780        57
51.800        27
51.820        23
51.840        27
51.860        37
51.880        40
51.900        57
51.920        30
51.940        20
51.960        37
51.980        40
52.000        27
52.020        53
52.040        23
52.060        23
52.080        40
52.100        33
52.120        40
52.140        30
52.160        47
52.180        47
52.200        50
52.220        23
52.240        27
52.260        40
52.280        43
52.300        60
52.320        30
52.340        33
52.360        37
52.380        57
52.400        37
52.420        53
52.440        50
52.460        37
52.480        63
52.500        97
52.520       103
52.540       103
52.560       133
52.580       147
52.600       133
52.620       107
52.640       180
52.660       107
52.680       103
52.700        97
52.720       160
52.740        90
52.760       123
52.780        80
52.800        80
52.820        60
52.840        57
52.860        50
52.880        20
52.900        37
52.920        30
52.940        57
52.960        27
52.980        33
53.000        30
53.020        30
53.040        33
53.060        10
53.080        40
53.100        47
53.120        53
53.140        43
53.160        33
53.180        23
53.200        37
53.220        37
53.240        27
53.260        43
53.280        33
53.300        40
53.320        33
53.340        37
53.360         7
53.380        37
53.400        50
53.420        23
53.440        23
53.460        37
53.480        47
53.500        33
53.520        33
53.540        40
53.560        43
53.580        23
53.600        30
53.620        33
53.640        40
53.660        30
53.680        27
53.700        17
53.720        30
53.740        20
53.760        53
53.780        37
53.800        30
53.820        20
53.840        10
53.860        27
53.880        30
53.900        30
53.920        47
53.940        37
53.960        53
53.980        33
54.000        33
54.020        33
54.040        33
54.060        27
54.080        47
54.100        27
54.120        27
54.140        30
54.160        33
54.180        17
54.200        37
54.220        17
54.240        50
54.260        33
54.280        27
54.300        50
54.320        53
54.340        20
54.360        27
54.380        30
54.400        23
54.420        40
54.440        40
54.460        30
54.480        13
54.500        40
54.520        23
54.540        57
54.560        37
54.580        50
54.600        50
54.620        43
54.640        83
54.660        50
54.680        50
54.700        63
54.720        47
54.740        50
54.760        17
54.780        63
54.800        37
54.820        50
54.840        67
54.860        60
54.880       107
54.900       130
54.920       140
54.940       210
54.960       190
54.980       180
55.000       313
55.020       257
55.040       373
55.060       333
55.080       353
55.100       397
55.120       337
55.140       393
55.160       387
55.180       333
55.200       303
55.220       253
55.240       267
55.260       197
55.280       183
55.300       133
55.320       140
55.340       103
55.360        70
55.380        83
55.400        67
55.420        57
55.440        60
55.460        47
55.480        73
55.500        40
55.520        63
55.540        23
55.560        63
55.580        13
55.600        23
55.620        40
55.640        20
55.660        40
55.680        23
55.700        27
55.720        43
55.740        37
55.760        47
55.780        50
55.800        40
55.820        23
55.840        17
55.860        37
55.880        20
55.900        50
55.920        30
55.940        43
55.960        33
55.980        53
56.000        30
56.020        23
56.040        40
56.060        33
56.080        47
56.100        23
56.120        33
56.140        33
56.160        30
56.180        27
56.200        37
56.220        17
56.240        27
56.260        50
56.280        20
56.300        20
56.320        53
56.340        40
56.360        20
56.380        30
56.400        27
56.420        30
56.440        40
56.460        40
56.480        47
56.500        47
56.520        47
56.540        23
56.560        47
56.580        43
56.600        47
56.620        67
56.640        70
56.660        27
56.680        53
56.700        33
56.720        47
56.740        50
56.760        40
56.780        20
56.800        47
56.820        27
56.840        63
56.860        47
56.880        40
56.900        20
56.920        33
56.940        47
56.960        43
56.980        37
57.000        30
57.020        27
57.040        43
57.060        23
57.080        20
57.100        20
57.120        27
57.140        37
57.160        53
57.180        37
57.200        53
57.220        47
57.240        37
57.260        47
57.280        63
57.300        30
57.320        37
57.340        37
57.360        63
57.380        60
57.400        43
57.420        83
57.440        70
57.460        60
57.480        63
57.500        77
57.520        47
57.540        60
57.560        50
57.580        43
57.600        40
57.620        50
57.640        30
57.660        40
57.680        40
57.700        27
57.720        17
57.740        20
57.760        20
57.780        23
57.800        33
57.820        23
57.840        37
57.860        50
57.880        23
57.900        53
57.920        27
57.940        37
57.960        50
57.980        20
58.000        30
58.020        53
58.040        37
58.060        43
58.080        50
58.100        47
58.120        20
58.140        67
58.160        30
58.180        30
58.200        23
58.220        17
58.240        30
58.260        27
58.280        17
58.300        30
58.320        30
58.340        27
58.360        37
58.380        47
58.400        23
58.420        20
58.440        13
58.460        43
58.480        27
58.500        27
58.520        50
58.540        33
58.560        20
58.580        20
58.600        27
58.620        27
58.640        27
58.660        33
58.680        37
58.700        20
58.720        27
58.740        27
58.760        20
58.780        30
58.800        10
58.820        37
58.840        27
58.860        33
58.880        27
58.900        37
58.920        23
58.940        13
58.960        33
58.980        20
59.000        47
59.020        13
59.040        10
59.060        13
59.080        33
59.100        23
59.120        33
59.140        27
59.160        27
59.180        13
59.200        23
59.220        37
59.240        33
59.260        23
59.280        10
59.300        33
59.320        23
59.340        43
59.360        37
59.380        30
59.400        27
59.420        27
59.440        30
59.460        37
59.480        17
59.500        20
59.520        30
59.540        17
59.560        30
59.580        50
59.600        20
59.620        20
59.640        37
59.660        33
59.680        37
59.700        20
59.720        43
59.740        20
59.760        37
59.780        43
59.800        50
59.820        37
59.840        30
59.860        33
59.880        23
59.900        23
59.920        20
59.940        23
59.960        23
59.980        33
60.000        33
