20.000         0
20.020         0
20.040       600
20.060       776
20.080       620
20.100       663
20.120       626
20.140       593
20.160       593
20.180       733
20.200       710
20.220       696
20.240       713
20.260       730
20.280       650
20.300       630
20.320       596
20.340       676
20.360       656
20.380       716
20.400       660
20.420       773
20.440       670
20.460       620
20.480       610
20.500       686
20.520       686
20.540       636
20.560       616
20.580       666
20.600       673
20.620       676
20.640       646
20.660       626
20.680       753
20.700       613
20.720       720
20.740       656
20.760       663
20.780       750
20.800       623
20.820       573
20.840       673
20.860       623
20.880       746
20.900       613
20.920       693
20.940       673
20.960       710
20.980       626
21.000       673
21.020       676
21.040       656
21.060       670
21.080       600
21.100       666
21.120       630
21.140       656
21.160       673
21.180       703
21.200       610
21.220       600
21.240       643
21.260       650
21.280       636
21.300       706
21.320       786
21.340       683
21.360       536
21.380       636
21.400       600
21.420       570
21.440       680
21.460       636
21.480       666
21.500       600
21.520       566
21.540       576
21.560       533
21.580       620
21.600       616
21.620       626
21.640       663
21.660       590
21.680       620
21.700       640
21.720       653
21.740       613
21.760       666
21.780       623
21.800       593
21.820       533
21.840       556
21.860       643
21.880       576
21.900       570
21.920       600
21.940       670
21.960       626
21.980       673
22.000       540
22.020       580
22.040       570
22.060       530
22.080       626
22.100       600
22.120       570
22.140       633
22.160       543
22.180       636
22.200       636
22.220       513
22.240       543
22.260       590
22.280       516
22.300       606
22.320       563
22.340       553
22.360       543
22.380       563
22.400       593
22.420       550
22.440       613
22.460       566
22.480       583
22.500       580
22.520       533
22.540       523
22.560       540
22.580       606
22.600       590
22.620       530
22.640       603
22.660       576
22.680       606
22.700       513
22.720       570
22.740       500
22.760       596
22.780       580
22.800       573
22.820       566
22.840       593
22.860       533
22.880       510
22.900       600
22.920       526
22.940       530
22.960       533
22.980       520
23.000       516
23.020       510
23.040       550
23.060       593
23.080       526
23.100       483
23.120       566
23.140       583
23.160       466
23.180       510
23.200       556
23.220       493
23.240       540
23.260       516
23.280       570
23.300       546
23.320       543
23.340       516
23.360       490
23.380       493
23.400       466
23.420       523
23.440       576
23.460       470
23.480       516
23.500       573
23.520       486
23.540       536
23.560       570
23.580       493
23.600       403
23.620       540
23.640       546
23.660       543
23.680       610
23.700       480
23.720       476
23.740       430
23.760       443
23.780       463
23.800       503
23.820       430
23.840       526
23.860       490
23.880       500
23.900       586
23.920       520
23.940       566
23.960       463
23.980       523
24.000       417
24.020       536
24.040       506
24.060       513
24.080       440
24.100       526
24.120       526
24.140       470
24.160       506
24.180       433
24.200       493
24.220       506
24.240       367
24.260       473
24.280       486
24.300       536
24.320       480
24.340       510
24.360       516
24.380       573
24.400       493
24.420       540
24.440       536
24.460       606
24.480       523
24.500       536
24.520       613
24.540       643
24.560       656
24.580       630
24.600       590
24.620       600
24.640       500
24.660       593
24.680       566
24.700       540
24.720       566
24.740       590
24.760       543
24.780       493
24.800       513
24.820       493
24.840       540
24.860       530
24.880       483
24.900       430
24.920       536
24.940       483
24.960       480
24.980       387
25.000       463
25.020       500
25.040       440
25.060       456
25.080       440
25.100       430
25.120       473
25.140       480
25.160       456
25.180       436
25.200       470
25.220       500
25.240       397
25.260       456
25.280       506
25.300       463
25.320       496
25.340       473
25.360       533
25.380       506
25.400       520
25.420       503
25.440       530
25.460       590
25.480       516
25.500       603
25.520       543
25.540       550
25.560       573
25.580       533
25.600       566
25.620       473
25.640       546
25.660       566
25.680       523
25.700       486
25.720       440
25.740       453
25.760       593
25.780       523
25.800       387
25.820       466
25.840       403
25.860       453
25.880       513
25.900       483
25.920       436
25.940       476
25.960       490
25.980       470
26.000       433
26.020       543
26.040       436
26.060       483
26.080       460
26.100       453
26.120       480
26.140       446
26.160       433
26.180       397
26.200       480
26.220       436
26.240       466
26.260       500
26.280       526
26.300       413
26.320       463
26.340       486
26.360       476
26.380       516
26.400       470
26.420       486
26.440       463
26.460       377
26.480       403
26.500       450
26.520       506
26.540       496
26.560       433
26.580       473
26.600       463
26.620       443
26.640       550
26.660       430
26.680       503
26.700       483
26.720       450
26.740       490
26.760       426
26.780       423
26.800       456
26.820       430
26.840       400
26.860       456
26.880       430
26.900       463
26.920       397
26.940       417
26.960       436
26.980       383
27.000       483
27.020       463
27.040       400
27.060       473
27.080       426
27.100       446
27.120       446
27.140       370
27.160       453
27.180       367
27.200       403
27.220       456
27.240       400
27.260       410
27.280       407
27.300       397
27.320       433
27.340       446
27.360       476
27.380       407
27.400       410
27.420       476
27.440       433
27.460       443
27.480       390
27.500       466
27.520       470
27.540       470
27.560       420
27.580       417
27.600       460
27.620       390
27.640       470
27.660       350
27.680       423
27.700       453
27.720       390
27.740       433
27.760       463
27.780       480
27.800       503
27.820       476
27.840       393
27.860       363
27.880       496
27.900       480
27.920       403
27.940       430
27.960       456
27.980       393
28.000       433
28.020       417
28.040       383
28.060       403
28.080       436
28.100       426
28.120       407
28.140       450
28.160       440
28.180       393
28.200       420
28.220       367
28.240       493
28.260       410
28.280       443
28.300       426
28.320       370
28.340       403
28.360       393
28.380       410
28.400       400
28.420       370
28.440       340
28.460       470
28.480       363
28.500       420
28.520       407
28.540       466
28.560       407
28.580       436
28.600       423
28.620       370
28.640       436
28.660       417
28.680       403
28.700       417
28.720       420
28.740       450
28.760       446
28.780       446
28.800       417
28.820       476
28.840       463
28.860       453
28.880       520
28.900       550
28.920       410
28.940       610
28.960       546
28.980       670
29.000       603
29.020       570
29.040       750
29.060       706
29.080       710
29.100       746
29.120       720
29.140       763
29.160       716
29.180       746
29.200       693
29.220       550
29.240       586
29.260       480
29.280       423
29.300       450
29.320       493
29.340       403
29.360       390
29.380       387
29.400       436
29.420       423
29.440       400
29.460       423
29.480       413
29.500       363
29.520       410
29.540       426
29.560       397
29.580       387
29.600       417
29.620       393
29.640       473
29.660       400
29.680       380
29.700       397
29.720       443
29.740       460
29.760       370
29.780       317
29.800       390
29.820       400
29.840       470
29.860       393
29.880       393
29.900       463
29.920       383
29.940       443
29.960       433
29.980       436
30.000       483
30.020       373
30.040       456
30.060       377
30.080       440
30.100       377
30.120       413
30.140       327
30.160       410
30.180       403
30.200       387
30.220       410
30.240       393
30.260       420
30.280       383
30.300       363
30.320       387
30.340       433
30.360       420
30.380       417
30.400       413
30.420       363
30.440       453
30.460       373
30.480       390
30.500       460
30.520       446
30.540       380
30.560       433
30.580       526
30.600       443
30.620       440
30.640       407
30.660       440
30.680       383
30.700       423
30.720       407
30.740       417
30.760       400
30.780       526
30.800       400
30.820       490
30.840       433
30.860       553
30.880       500
30.900       476
30.920       543
30.940       593
30.960       543
30.980       616
31.000       556
31.020       530
31.040       480
31.060       496
31.080       493
31.100       490
31.120       510
31.140       420
31.160       486
31.180       493
31.200       446
31.220       426
31.240       400
31.260       353
31.280       397
31.300       380
31.320       413
31.340       470
31.360       400
31.380       367
31.400       367
31.420       390
31.440       320
31.460       370
31.480       400
31.500       397
31.520       417
31.540       423
31.560       440
31.580       390
31.600       413
31.620       387
31.640       387
31.660       373
31.680       387
31.700       347
31.720       373
31.740       436
31.760       397
31.780       380
31.800       413
31.820       407
31.840       357
31.860       417
31.880       390
31.900       420
31.920       373
31.940       393
31.960       357
31.980       417
32.000       353
32.020       380
32.040       390
32.060       393
32.080       433
32.100       426
32.120       367
32.140       407
32.160       417
32.180       393
32.200       353
32.220       380
32.240       353
32.260       330
32.280       340
32.300       403
32.320       456
32.340       363
32.360       360
32.380       390
32.400       436
32.420       380
32.440       387
32.460       403
32.480       400
32.500       377
32.520       436
32.540       420
32.560       426
32.580       367
32.600       393
32.620       410
32.640       387
32.660       380
32.680       373
32.700       367
32.720       353
32.740       380
32.760       403
32.780       387
32.800       407
32.820       353
32.840       456
32.860       363
32.880       373
32.900       420
32.920       343
32.940       393
32.960       353
32.980       357
33.000       397
33.020       453
33.040       330
33.060       370
33.080       400
33.100       347
33.120       313
33.140       317
33.160       393
33.180       410
33.200       357
33.220       473
33.240       397
33.260       380
33.280       387
33.300       446
33.320       380
33.340       407
33.360       420
33.380       367
33.400       436
33.420       347
33.440       357
33.460       373
33.480       410
33.500       373
33.520       370
33.540       350
33.560       440
33.580       400
33.600       320
33.620       446
33.640       417
33.660       446
33.680       370
33.700       330
33.720       373
33.740       397
33.760       340
33.780       387
33.800       407
33.820       403
33.840       413
33.860       353
33.880       407
33.900       373
33.920       367
33.940       337
33.960       380
33.980       387
34.000       370
34.020       353
34.040       367
34.060       446
34.080       470
34.100       400
34.120       393
34.140       397
34.160       377
34.180       377
34.200       353
34.220       370
34.240       410
34.260       390
34.280       397
34.300       433
34.320       460
34.340       360
34.360       367
34.380       446
34.400       393
34.420       360
34.440       357
34.460       453
34.480       337
34.500       363
34.520       353
34.540       353
34.560       313
34.580       410
34.600       436
34.620       397
34.640       387
34.660       446
34.680       350
34.700       403
34.720       413
34.740       377
34.760       407
34.780       426
34.800       377
34.820       400
34.840       413
34.860       347
34.880       373
34.900       377
34.920       340
34.940       360
34.960       367
34.980       413
35.000       370
35.020       363
35.040       373
35.060       393
35.080       390
35.100       373
35.120       293
35.140       417
35.160       333
35.180       370
35.200       423
35.220       470
35.240       460
35.260       343
35.280       327
35.300       390
35.320       387
35.340       383
35.360       393
35.380       343
35.400       460
35.420       403
35.440       410
35.460       373
35.480       323
35.500       397
35.520       436
35.540       393
35.560       407
35.580       360
35.600       370
35.620       463
35.640       456
35.660       367
35.680       446
35.700       393
35.720       397
35.740       453
35.760       403
35.780       393
35.800       337
35.820       403
35.840       413
35.860       400
35.880       407
35.900       417
35.920       323
35.940       350
35.960       413
35.980       367
36.000       323
36.020       360
36.040       353
36.060       403
36.080       460
36.100       390
36.120       397
36.140       340
36.160       363
36.180       363
36.200       303
36.220       363
36.240       397
36.260       360
36.280       380
36.300       363
36.320       343
36.340       357
36.360       373
36.380       363
36.400       373
36.420       367
36.440       330
36.460       400
36.480       436
36.500       400
36.520       360
36.540       420
36.560       383
36.580       387
36.600       300
36.620       303
36.640       420
36.660       337
36.680       453
36.700       397
36.720       363
36.740       383
36.760       440
36.780       333
36.800       370
36.820       313
36.840       340
36.860       420
36.880       347
36.900       377
36.920       440
36.940       367
36.960       360
36.980       377
37.000       393
37.020       423
37.040       446
37.060       417
37.080       387
37.100       377
37.120       353
37.140       410
37.160       367
37.180       390
37.200       433
37.220       383
37.240       436
37.260       380
37.280       383
37.300       363
37.320       426
37.340       513
37.360       440
37.380       407
37.400       483
37.420       486
37.440       407
37.460       496
37.480       357
37.500       407
37.520       476
37.540       423
37.560       436
37.580       373
37.600       377
37.620       433
37.640       360
37.660       430
37.680       433
37.700       407
37.720       400
37.740       397
37.760       400
37.780       473
37.800       446
37.820       423
37.840       476
37.860       546
37.880       603
37.900       640
37.920       806
37.940       843
37.960       906
37.980      1106
38.000      1313
38.020      1529
38.040      1966
38.060      2269
38.080      2729
38.100      3029
38.120      3342
38.140      3552
38.160      3565
38.180      3649
38.200      3459
38.220      3062
38.240      2582
38.260      2069
38.280      1913
38.300      1619
38.320      1336
38.340      1030
38.360       940
38.380       690
38.400       596
38.420       526
38.440       463
38.460       513
38.480       430
38.500       450
38.520       430
38.540       417
38.560       460
38.580       473
38.600       407
38.620       423
38.640       426
38.660       450
38.680       450
38.700       453
38.720       460
38.740       357
38.760       436
38.780       496
38.800       516
38.820       480
38.840       446
38.860       440
38.880       423
38.900       483
38.920       453
38.940       456
38.960       446
38.980       473
39.000       440
39.020       500
39.040       550
39.060       500
39.080       546
39.100       506
39.120       466
39.140       520
39.160       480
39.180       503
39.200       490
39.220       423
39.240       417
39.260       453
39.280       436
39.300       417
39.320       380
39.340       390
39.360       340
39.380       476
39.400       413
39.420       446
39.440       357
39.460       433
39.480       456
39.500       400
39.520       430
39.540       347
39.560       426
39.580       450
39.600       377
39.620       400
39.640       463
39.660       473
39.680       363
39.700       463
39.720       377
39.740       417
39.760       380
39.780       377
39.800       347
39.820       413
39.840       400
39.860       350
39.880       410
39.900       456
39.920       383
39.940       410
39.960       397
39.980       377
40.000       363
40.020       476
40.040       420
40.060       426
40.080       400
40.100       417
40.120       407
40.140       377
40.160       486
40.180       413
40.200       383
40.220       387
40.240       347
40.260       347
40.280       417
40.300       360
40.320       403
40.340       387
40.360       383
40.380       360
40.400       430
40.420       367
40.440       330
40.460       387
40.480       383
40.500       433
40.520       360
40.540       397
40.560       443
40.580       340
40.600       436
40.620       350
40.640       393
40.660       407
40.680       387
40.700       400
40.720       383
40.740       387
40.760       343
40.780       360
40.800       453
40.820       347
40.840       373
40.860       383
40.880       353
40.900       383
40.920       443
40.940       473
40.960       450
40.980       317
41.000       420
41.020       407
41.040       440
41.060       450
41.080       440
41.100       390
41.120       390
41.140       476
41.160       390
41.180       380
41.200       443
41.220       430
41.240       407
41.260       450
41.280       370
41.300       357
41.320       407
41.340       393
41.360       363
41.380       373
41.400       436
41.420       426
41.440       367
41.460       400
41.480       407
41.500       373
41.520       393
41.540       357
41.560       413
41.580       373
41.600       420
41.620       403
41.640       360
41.660       400
41.680       367
41.700       360
41.720       387
41.740       420
41.760       466
41.780       377
41.800       407
41.820       423
41.840       407
41.860       393
41.880       397
41.900       360
41.920       493
41.940       420
41.960       407
41.980       433
42.000       466
42.020       407
42.040       383
42.060       453
42.080       360
42.100       426
42.120       407
42.140       357
42.160       383
42.180       483
42.200       423
42.220       400
42.240       317
42.260       433
42.280       337
42.300       343
42.320       436
42.340       367
42.360       350
42.380       377
42.400       413
42.420       423
42.440       380
42.460       367
42.480       420
42.500       400
42.520       393
42.540       377
42.560       450
42.580       413
42.600       423
42.620       440
42.640       417
42.660       456
42.680       446
42.700       420
42.720       443
42.740       456
42.760       426
42.780       443
42.800       400
42.820       407
42.840       443
42.860       530
42.880       426
42.900       550
42.920       476
42.940       483
42.960       466
42.980       470
43.000       383
43.020       433
43.040       480
43.060       450
43.080       400
43.100       433
43.120       407
43.140       340
43.160       367
43.180       337
43.200       443
43.220       330
43.240       373
43.260       350
43.280       407
43.300       410
43.320       310
43.340       383
43.360       377
43.380       330
43.400       423
43.420       313
43.440       383
43.460       330
43.480       377
43.500       420
43.520       350
43.540       367
43.560       470
43.580       370
43.600       373
43.620       370
43.640       423
43.660       327
43.680       426
43.700       460
43.720       430
43.740       430
43.760       347
43.780       420
43.800       387
43.820       337
43.840       420
43.860       456
43.880       377
43.900       397
43.920       456
43.940       343
43.960       380
43.980       350
44.000       323
44.020       400
44.040       423
44.060       353
44.080       397
44.100       367
44.120       443
44.140       377
44.160       436
44.180       483
44.200       417
44.220       430
44.240       513
44.260       603
44.280       570
44.300       503
44.320       603
44.340       526
44.360       530
44.380       590
44.400       443
44.420       543
44.440       530
44.460       443
44.480       480
44.500       480
44.520       443
44.540       417
44.560       426
44.580       347
44.600       433
44.620       407
44.640       393
44.660       463
44.680       453
44.700       430
44.720       317
44.740       330
44.760       453
44.780       370
44.800       363
44.820       390
44.840       393
44.860       367
44.880       387
44.900       350
44.920       390
44.940       390
44.960       337
44.980       357
45.000       387
45.020       440
45.040       387
45.060       397
45.080       407
45.100       370
45.120       313
45.140       403
45.160       387
45.180       433
45.200       430
45.220       426
45.240       387
45.260       410
45.280       390
45.300       317
45.320       413
45.340       327
45.360       353
45.380       387
45.400       400
45.420       373
45.440       370
45.460       373
45.480       390
45.500       330
45.520       330
45.540       413
45.560       383
45.580       383
45.600       373
45.620       417
45.640       363
45.660       410
45.680       423
45.700       377
45.720       430
45.740       400
45.760       383
45.780       450
45.800       313
45.820       363
45.840       393
45.860       403
45.880       443
45.900       347
45.920       323
45.940       377
45.960       453
45.980       387
46.000       417
46.020       357
46.040       277
46.060       373
46.080       393
46.100       436
46.120       357
46.140       283
46.160       327
46.180       397
46.200       330
46.220       413
46.240       353
46.260       417
46.280       313
46.300       323
46.320       397
46.340       323
46.360       340
46.380       390
46.400       327
46.420       393
46.440       413
46.460       387
46.480       350
46.500       350
46.520       333
46.540       420
46.560       370
46.580       353
46.600       357
46.620       387
46.640       383
46.660       400
46.680       287
46.700       387
46.720       403
46.740       373
46.760       350
46.780       410
46.800       430
46.820       423
46.840       433
46.860       387
46.880       397
46.900       387
46.920       390
46.940       367
46.960       357
46.980       433
47.000       373
47.020       407
47.040       397
47.060       420
47.080       453
47.100       473
47.120       506
47.140       490
47.160       466
47.180       440
47.200       556
47.220       470
47.240       516
47.260       470
47.280       470
47.300       493
47.320       490
47.340       486
47.360       473
47.380       417
47.400       430
47.420       413
47.440       417
47.460       337
47.480       373
47.500       403
47.520       387
47.540       370
47.560       407
47.580       450
47.600       393
47.620       360
47.640       313
47.660       377
47.680       397
47.700       303
47.720       347
47.740       387
47.760       350
47.780       363
47.800       410
47.820       373
47.840       347
47.860       417
47.880       400
47.900       340
47.920       400
47.940       370
47.960       383
47.980       410
48.000       490
48.020       426
48.040       417
48.060       470
48.080       387
48.100       367
48.120       393
48.140       483
48.160       450
48.180       413
48.200       486
48.220       533
48.240       466
48.260       496
48.280       556
48.300       463
48.320       433
48.340       466
48.360       433
48.380       410
48.400       397
48.420       436
48.440       373
48.460       403
48.480       397
48.500       377
48.520       383
48.540       373
48.560       343
48.580       330
48.600       403
48.620       317
48.640       310
48.660       370
48.680       350
48.700       287
48.720       367
48.740       340
48.760       410
48.780       350
48.800       333
48.820       313
48.840       367
48.860       323
48.880       357
48.900       426
48.920       317
48.940       393
48.960       307
48.980       383
49.000       367
49.020       310
49.040       377
49.060       283
49.080       363
49.100       367
49.120       350
49.140       337
49.160       370
49.180       387
49.200       323
49.220       377
49.240       390
49.260       347
49.280       410
49.300       350
49.320       347
49.340       377
49.360       320
49.380       390
49.400       383
49.420       390
49.440       400
49.460       357
49.480       367
49.500       377
49.520       293
49.540       363
49.560       400
49.580       333
49.600       387
49.620       327
49.640       303
49.660       337
49.680       343
49.700       297
49.720       360
49.740       387
49.760       290
49.780       313
49.800       340
49.820       373
49.840       313
49.860       333
49.880       337
49.900       273
49.920       330
49.940       323
49.960       350
49.980       373
50.000       347
50.020       383
50.040       317
50.060       373
50.080       300
50.100       360
50.120       350
50.140       347
50.160       380
50.180       333
50.200       367
50.220       387
50.240       327
50.260       383
50.280       337
50.300       333
50.320       357
50.340       347
50.360       387
50.380       370
50.400       333
50.420       343
50.440       397
50.460       320
50.480       333
50.500       363
50.520       337
50.540       333
50.560       350
50.580       390
50.600       317
50.620       340
50.640       343
50.660       377
50.680       390
50.700       323
50.720       350
50.740       347
50.760       300
50.780       317
50.800       353
50.820       340
50.840       340
50.860       370
50.880       380
50.900       337
50.920       360
50.940       387
50.960       353
50.980       340
51.000       313
51.020       323
51.040       353
51.060       310
51.080       337
51.100       377
51.120       317
51.140       400
51.160       353
51.180       310
51.200       350
51.220       360
51.240       363
51.260       363
51.280       283
51.300       310
51.320       357
51.340       350
51.360       397
51.380       337
51.400       347
51.420       357
51.440       333
51.460       350
51.480       393
51.500       380
51.520       333
51.540       377
51.560       343
51.580       340
51.600       420
51.620       363
51.640       320
51.660       363
51.680       357
51.700       313
51.720       373
51.740       347
51.760       363
51.780       297
51.800       333
51.820       347
51.840       337
51.860       377
51.880       383
51.900       360
51.920       423
51.940       403
51.960       323
51.980       380
52.000       393
52.020       426
52.040       343
52.060       347
52.080       440
52.100       387
52.120       400
52.140       343
52.160       430
52.180       370
52.200       393
52.220       423
52.240       450
52.260       387
52.280       450
52.300       443
52.320       443
52.340       466
52.360       520
52.380       566
52.400       620
52.420       680
52.440       690
52.460       683
52.480       766
52.500       850
52.520       863
52.540       920
52.560       860
52.580       890
52.600       716
52.620       826
52.640       783
52.660       806
52.680       703
52.700       710
52.720       693
52.740       520
52.760       480
52.780       526
52.800       403
52.820       460
52.840       436
52.860       413
52.880       387
52.900       446
52.920       413
52.940       446
52.960       357
52.980       397
53.000       446
53.020       397
53.040       353
53.060       466
53.080       370
53.100       423
53.120       426
53.140       466
53.160       426
53.180       450
53.200       377
53.220       373
53.240       413
53.260       383
53.280       463
53.300       397
53.320       410
53.340       436
53.360       340
53.380       353
53.400       313
53.420       383
53.440       387
53.460       380
53.480       343
53.500       313
53.520       407
53.540       400
53.560       347
53.580       417
53.600       360
53.620       380
53.640       377
53.660       343
53.680       353
53.700       373
53.720       357
53.740       377
53.760       303
53.780       337
53.800       373
53.820       357
53.840       436
53.860       433
53.880       397
53.900       340
53.920       370
53.940       383
53.960       373
53.980       323
54.000       407
54.020       397
54.040       380
54.060       340
54.080       293
54.100       370
54.120       390
54.140       433
54.160       397
54.180       383
54.200       363
54.220       380
54.240       393
54.260       387
54.280       350
54.300       480
54.320       350
54.340       403
54.360       350
54.380       420
54.400       377
54.420       456
54.440       360
54.460       450
54.480       410
54.500       456
54.520       353
54.540       420
54.560       486
54.580       516
54.600       460
54.620       560
54.640       566
54.660       566
54.680       513
54.700       713
54.720       676
54.740       803
54.760       976
54.780      1086
54.800      1190
54.820      1273
54.840      1833
54.860      2212
54.880      2296
54.900      3239
54.920      3395
54.940      3932
54.960      4335
54.980      4951
55.000      5421
55.020      5434
55.040      5711
55.060      5431
55.080      5454
55.100      5315
55.120      5011
55.140      4705
55.160      4192
55.180      3742
55.200      3402
55.220      2982
55.240      2692
55.260      2316
55.280      1969
55.300      1633
55.320      1293
55.340      1170
55.360       910
55.380       900
55.400       830
55.420       606
55.440       680
55.460       660
55.480       540
55.500       496
55.520       556
55.540       463
55.560       430
55.580       403
55.600       377
55.620       423
55.640       390
55.660       377
55.680       353
55.700       417
55.720       417
55.740       426
55.760       353
55.780       433
55.800       360
55.820       446
55.840       393
55.860       360
55.880       337
55.900       370
55.920       390
55.940       410
55.960       330
55.980       380
56.000       380
56.020       320
56.040       413
56.060       387
56.080       367
56.100       353
56.120       367
56.140       407
56.160       367
56.180       390
56.200       360
56.220       370
56.240       400
56.260       413
56.280       367
56.300       456
56.320       400
56.340       410
56.360       410
56.380       417
56.400       360
56.420       367
56.440       333
56.460       383
56.480       363
56.500       397
56.520       387
56.540       413
56.560       426
56.580       290
56.600       333
56.620       347
56.640       323
56.660       410
56.680       380
56.700       423
56.720       400
56.740       400
56.760       380
56.780       313
56.800       393
56.820       410
56.840       297
56.860       323
56.880       313
56.900       353
56.920       377
56.940       360
56.960       423
56.980       403
57.000       413
57.020       363
57.040       436
57.060       380
57.080       377
57.100       410
57.120       417
57.140       500
57.160       430
57.180       393
57.200       407
57.220       430
57.240       357
57.260       313
57.280       460
57.300       330
57.320       390
57.340       357
57.360       323
57.380       397
57.400       310
57.420       390
57.440       350
57.460       333
57.480       310
57.500       297
57.520       343
57.540       357
57.560       303
57.580       320
57.600       340
57.620       320
57.640       350
57.660       340
57.680       330
57.700       353
57.720       347
57.740       373
57.760       387
57.780       297
57.800       300
57.820       377
57.840       367
57.860       387
57.880       327
57.900       293
57.920       290
57.940       287
57.960       327
57.980       377
58.000       327
58.020       323
58.040       280
58.060       370
58.080       250
58.100       313
58.120       273
58.140       303
58.160       280
58.180       327
58.200       280
58.220       343
58.240       287
58.260       233
58.280       337
58.300       283
58.320       320
58.340       340
58.360       270
58.380       317
58.400       327
58.420       300
58.440       317
58.460       293
58.480       343
58.500       293
58.520       377
58.540       337
58.560       297
58.580       260
58.600       270
58.620       267
58.640       327
58.660       347
58.680       377
58.700       320
58.720       300
58.740       287
58.760       337
58.780       283
58.800       327
58.820       333
58.840       243
58.860       313
58.880       353
58.900       283
58.920       303
58.940       283
58.960       277
58.980       263
59.000       227
59.020       267
59.040       313
59.060       320
59.080       343
59.100       333
59.120       333
59.140       330
59.160       297
59.180       310
59.200       347
59.220       337
59.240       287
59.260       307
59.280       280
59.300       307
59.320       350
59.340       350
59.360       350
59.380       333
59.400       323
59.420       283
59.440       287
59.460       340
59.480       290
59.500       360
59.520       290
59.540       290
59.560       337
59.580       353
59.600       350
59.620       303
59.640       320
59.660       287
59.680       357
59.700       363
59.720       300
59.740       317
59.760       330
59.780       360
59.800       287
59.820       297
59.840       307
59.860       357
59.880       243
59.900       347
59.920       310
59.940       367
59.960       300
59.980       330
60.000       343
