20.000        37
20.020        37
20.040        63
20.060        73
20.080        63
20.100        33
20.120        37
20.140        37
20.160        47
20.180        30
20.200        43
20.220        50
20.240        37
20.260        40
20.280        73
20.300        53
20.320        37
20.340        37
20.360        60
20.380        37
20.400        33
20.420        60
20.440        37
20.460        40
20.480        33
20.500        53
20.520        30
20.540        40
20.560        53
20.580        37
20.600        23
20.620        33
20.640        53
20.660        43
20.680        43
20.700        50
20.720        40
20.740        27
20.760        47
20.780        50
20.800        30
20.820        33
20.840        53
20.860        40
20.880        23
20.900        47
20.920        57
20.940        37
20.960        33
20.980        47
21.000        30
21.020        37
21.040        60
21.060        50
21.080        60
21.100        50
21.120        33
21.140        40
21.160        40
21.180        53
21.200        50
21.220        33
21.240        50
21.260        43
21.280        47
21.300        43
21.320        50
21.340        27
21.360        40
21.380        33
21.400        37
21.420        43
21.440        40
21.460        17
21.480        30
21.500        33
21.520        33
21.540        27
21.560        33
21.580        53
21.600        47
21.620        47
21.640        33
21.660        33
21.680        43
21.700        33
21.720        73
21.740        47
21.760        70
21.780        43
21.800        63
21.820        30
21.840        33
21.860        30
21.880        43
21.900        43
21.920        27
21.940        23
21.960        43
21.980        43
22.000        53
22.020        47
22.040        60
22.060        27
22.080        30
22.100        40
22.120        47
22.140        33
22.160        20
22.180        37
22.200        23
22.220        23
22.240        37
22.260        33
22.280        57
22.300        20
22.320        27
22.340        57
22.360        50
22.380        27
22.400        40
22.420        13
22.440        23
22.460        43
22.480        47
22.500        53
22.520        50
22.540        30
22.560        33
22.580        30
22.600        27
22.620        43
22.640        50
22.660        47
22.680        23
22.700        27
22.720        40
22.740        33
22.760        20
22.780        47
22.800        27
22.820        40
22.840        40
22.860        30
22.880        27
22.900        37
22.920        40
22.940        53
22.960        30
22.980        23
23.000        43
23.020        30
23.040        57
23.060        17
23.080        33
23.100        43
23.120        37
23.140        30
23.160        43
23.180        10
23.200        33
23.220        40
23.240        53
23.260        20
23.280        50
23.300        40
23.320        53
23.340        60
23.360        43
23.380        37
23.400        57
23.420        50
23.440        23
23.460        50
23.480        27
23.500        20
23.520        20
23.540        40
23.560        47
23.580        20
23.600        17
23.620        27
23.640        47
23.660        40
23.680        40
23.700        47
23.720        37
23.740        37
23.760        30
23.780        33
23.800        30
23.820        17
23.840        43
23.860        30
23.880        33
23.900        27
23.920        27
23.940        53
23.960        37
23.980        47
24.000        23
24.020        17
24.040        17
24.060        23
24.080        20
24.100        57
24.120        33
24.140        67
24.160        37
24.180        27
24.200        33
24.220        50
24.240        37
24.260        40
24.280        37
24.300        53
24.320        57
24.340        33
24.360        30
24.380        50
24.400        33
24.420        27
24.440        27
24.460        27
24.480        50
24.500        23
24.520        23
24.540        27
24.560        43
24.580        40
24.600        40
24.620        27
24.640        30
24.660        23
24.680        40
24.700        43
24.720        30
24.740        40
24.760        33
24.780        33
24.800        23
24.820        53
24.840        30
24.860        43
24.880        63
24.900        67
24.920        67
24.940        50
24.960        30
24.980        47
25.000        63
25.020        27
25.040        37
25.060        23
25.080        30
25.100        33
25.120        37
25.140        33
25.160        57
25.180        50
25.200        20
25.220        30
25.240        23
25.260        30
25.280        23
25.300        40
25.320        33
25.340        50
25.360        40
25.380        30
25.400        23
25.420        30
25.440        23
25.460        47
25.480        57
25.500        37
25.520        33
25.540        37
25.560        50
25.580        20
25.600        37
25.620        33
25.640        17
25.660        20
25.680        30
25.700        33
25.720        27
25.740        47
25.760        30
25.780        57
25.800        47
25.820        33
25.840        30
25.860        23
25.880        50
25.900        27
25.920        30
25.940        50
25.960         3
25.980        13
26.000        13
26.020        40
26.040        40
26.060        37
26.080        33
26.100        33
26.120        47
26.140        50
26.160        27
26.180        30
26.200        17
26.220        20
26.240        23
26.260        30
26.280        33
26.300        27
26.320        20
26.340        27
26.360        37
26.380        27
26.400        23
26.420        37
26.440        23
26.460        37
26.480        50
26.500        33
26.520        20
26.540        20
26.560        20
26.580        40
26.600        53
26.620        30
26.640        27
26.660        20
26.680        37
26.700        43
26.720        23
26.740        50
26.760        13
26.780        17
26.800        43
26.820        23
26.840        47
26.860        30
26.880        50
26.900        20
26.920        20
26.940        50
26.960        57
26.980        33
27.000        23
27.020        40
27.040        27
27.060        23
27.080        17
27.100        37
27.120        37
27.140        20
27.160        33
27.180        50
27.200        10
27.220        33
27.240        20
27.260        20
27.280        23
27.300        23
27.320        30
27.340        23
27.360        20
27.380        33
27.400        33
27.420        37
27.440        20
27.460        37
27.480        37
27.500        53
27.520        20
27.540        33
27.560        37
27.580        17
27.600        37
27.620        33
27.640        47
27.660        20
27.680        23
27.700        20
27.720        30
27.740        27
27.760        43
27.780        27
27.800        37
27.820        30
27.840        30
27.860        30
27.880        27
27.900        27
27.920        27
27.940        50
27.960        37
27.980        37
28.000        20
28.020        57
28.040        23
28.060        43
28.080        40
28.100        37
28.120        17
28.140        20
28.160        10
28.180        50
28.200        27
28.220        37
28.240        23
28.260        37
28.280        37
28.300        43
28.320        20
28.340        20
28.360        20
28.380        10
28.400        20
28.420        47
28.440        37
28.460        23
28.480        23
28.500        47
28.520        30
28.540        30
28.560        33
28.580        37
28.600        17
28.620        13
28.640        37
28.660        27
28.680        40
28.700        33
28.720        23
28.740        50
28.760        40
28.780        30
28.800        17
28.820        37
28.840        20
28.860        40
28.880        37
28.900        40
28.920        20
28.940        30
28.960        40
28.980        17
29.000        27
29.020        27
29.040        37
29.060        20
29.080        20
29.100        27
29.120        27
29.140        27
29.160        13
29.180        20
29.200        33
29.220        23
29.240        43
29.260        37
29.280        40
29.300        33
29.320        53
29.340        33
29.360        30
29.380        27
29.400        33
29.420        27
29.440        23
29.460        40
29.480        30
29.500        37
29.520        47
29.540        33
29.560        47
29.580        13
29.600        40
29.620        30
29.640        60
29.660        20
29.680        30
29.700        37
29.720        30
29.740        40
29.760        30
29.780        20
29.800        50
29.820        23
29.840        30
29.860        37
29.880        33
29.900        27
29.920        20
29.940        20
29.960        27
29.980        30
30.000        13
30.020        27
30.040        30
30.060        20
30.080        37
30.100        37
30.120        40
30.140        50
30.160        27
30.180        43
30.200        30
30.220        33
30.240        43
30.260        30
30.280        17
30.300        40
30.320        23
30.340        33
30.360        27
30.380        33
30.400        33
30.420        33
30.440        17
30.460        10
30.480        47
30.500        47
30.520        37
30.540        37
30.560        53
30.580        27
30.600        23
30.620        43
30.640        33
30.660        23
30.680        37
30.700        37
30.720        40
30.740        40
30.760        37
30.780        53
30.800        57
30.820        43
30.840        57
30.860        97
30.880       103
30.900       160
30.920       147
30.940       147
30.960       147
30.980       140
31.000       117
31.020       147
31.040        87
31.060        87
31.080        70
31.100        50
31.120        73
31.140        37
31.160        50
31.180        43
31.200        30
31.220        20
31.240        33
31.260        27
31.280        23
31.300        20
31.320        27
31.340        37
31.360        30
31.380        20
31.400        30
31.420        43
31.440        23
31.460        50
31.480         3
31.500        27
31.520        27
31.540        10
31.560        20
31.580        27
31.600        47
31.620        23
31.640        30
31.660        30
31.680        43
31.700        20
31.720        23
31.740        30
31.760        20
31.780        20
31.800        23
31.820        33
31.840        37
31.860        30
31.880        27
31.900        40
31.920        23
31.940        27
31.960        27
31.980        27
32.000        30
32.020        27
32.040        20
32.060        37
32.080        20
32.100        33
32.120        13
32.140        13
32.160        20
32.180        27
32.200        23
32.220        50
32.240        17
32.260        20
32.280        20
32.300        23
32.320        23
32.340        17
32.360        27
32.380        13
32.400        17
32.420        27
32.440        27
32.460        23
32.480        27
32.500        33
32.520        23
32.540        20
32.560         7
32.580        20
32.600        23
32.620        20
32.640        33
32.660        27
32.680        23
32.700        20
32.720        23
32.740         7
32.760        27
32.780         7
32.800        20
32.820        20
32.840        63
32.860        40
32.880        13
32.900        40
32.920        13
32.940        20
32.960        10
32.980        27
33.000        43
33.020        13
33.040        20
33.060        23
33.080        20
33.100        20
33.120        20
33.140        23
33.160         7
33.180        17
33.200        17
33.220        17
33.240        20
33.260        30
33.280        23
33.300        20
33.320        27
33.340        27
33.360        23
33.380        27
33.400        33
33.420        20
33.440        13
33.460        23
33.480        17
33.500        27
33.520        30
33.540        27
33.560        13
33.580        30
33.600        17
33.620        20
33.640        23
33.660        20
33.680        30
33.700        23
33.720        20
33.740        20
33.760        23
33.780        17
33.800        20
33.820         7
33.840         3
33.860        20
33.880        20
33.900        23
33.920        27
33.940        23
33.960        17
33.980        37
34.000        23
34.020        27
34.040        33
34.060        17
34.080        30
34.100        23
34.120        17
34.140        17
34.160        20
34.180        37
34.200        17
34.220        27
34.240        23
34.260        17
34.280        27
34.300        27
34.320        30
34.340        27
34.360        20
34.380        13
34.400        33
34.420        23
34.440        23
34.460        17
34.480        30
34.500        30
34.520        20
34.540        23
34.560        17
34.580        10
34.600        13
34.620        40
34.640        30
34.660        30
34.680        17
34.700        47
34.720        27
34.740        10
34.760        20
34.780        23
34.800        20
34.820        17
34.840        20
34.860        10
34.880        23
34.900         7
34.920        23
34.940        23
34.960        17
34.980        17
35.000        37
35.020        30
35.040        20
35.060        13
35.080        27
35.100        17
35.120        30
35.140        13
35.160        23
35.180        37
35.200        23
35.220        33
35.240        17
35.260        17
35.280        17
35.300        10
35.320        20
35.340         7
35.360        23
35.380        17
35.400        10
35.420        43
35.440        20
35.460        33
35.480        20
35.500        23
35.520        20
35.540        23
35.560        27
35.580        40
35.600        23
35.620        23
35.640        10
35.660        13
35.680        23
35.700        17
35.720         7
35.740        27
35.760        47
35.780        23
35.800        27
35.820        43
35.840        50
35.860        17
35.880        23
35.900        17
35.920        30
35.940        30
35.960        23
35.980        37
36.000        13
36.020        20
36.040        30
36.060        27
36.080        30
36.100        27
36.120        17
36.140        27
36.160        17
36.180        17
36.200        23
36.220        23
36.240        23
36.260        20
36.280        43
36.300        27
36.320        17
36.340        23
36.360        37
36.380        33
36.400        10
36.420        23
36.440        27
36.460        20
36.480        23
36.500        50
36.520        23
36.540        40
36.560        23
36.580        37
36.600        30
36.620        23
36.640        13
36.660        13
36.680        20
36.700         3
36.720        27
36.740        37
36.760        30
36.780        23
36.800        23
36.820        13
36.840        23
36.860         7
36.880        33
36.900        30
36.920        20
36.940        40
36.960        17
36.980        30
37.000        20
37.020        40
37.040        30
37.060        30
37.080        43
37.100        17
37.120        27
37.140        23
37.160        10
37.180         7
37.200        37
37.220        50
37.240        20
37.260        13
37.280        33
37.300        37
37.320        27
37.340        37
37.360        30
37.380        37
37.400        27
37.420        33
37.440        30
37.460        27
37.480        43
37.500        27
37.520        23
37.540        33
37.560        20
37.580        47
37.600        27
37.620        30
37.640        40
37.660        27
37.680        27
37.700        23
37.720        27
37.740        43
37.760        43
37.780        27
37.800        23
37.820        37
37.840        50
37.860        53
37.880        70
37.900        73
37.920        77
37.940        77
37.960        70
37.980        90
38.000       133
38.020       133
38.040       177
38.060       370
38.080       600
38.100       680
38.120       856
38.140       816
38.160       846
38.180       860
38.200       753
38.220       703
38.240       513
38.260       490
38.280       333
38.300       237
38.320       210
38.340       117
38.360        57
38.380        57
38.400        40
38.420        50
38.440        33
38.460        50
38.480        47
38.500        57
38.520        43
38.540        43
38.560        53
38.580        23
38.600        37
38.620        47
38.640        30
38.660        27
38.680        43
38.700        30
38.720        43
38.740        37
38.760        43
38.780        40
38.800        37
38.820        37
38.840        43
38.860        23
38.880        23
38.900        23
38.920        33
38.940        30
38.960        20
38.980        23
39.000        47
39.020        37
39.040        20
39.060        50
39.080        23
39.100        33
39.120        30
39.140        63
39.160        27
39.180        37
39.200        30
39.220        47
39.240        40
39.260        47
39.280        53
39.300        53
39.320        60
39.340        47
39.360        87
39.380        60
39.400        67
39.420        63
39.440        67
39.460       107
39.480       127
39.500        90
39.520       117
39.540       123
39.560       130
39.580       193
39.600       180
39.620       230
39.640       283
39.660       353
39.680       357
39.700       367
39.720       440
39.740       426
39.760       486
39.780       593
39.800       616
39.820       586
39.840       523
39.860       503
39.880       570
39.900       493
39.920       413
39.940       367
39.960       357
39.980       237
40.000       293
40.020       157
40.040       210
40.060       203
40.080       123
40.100       123
40.120        83
40.140        93
40.160        90
40.180        73
40.200        70
40.220        90
40.240        43
40.260        67
40.280        60
40.300        27
40.320        23
40.340        40
40.360        30
40.380        33
40.400        27
40.420        33
40.440        30
40.460        47
40.480        43
40.500        47
40.520        27
40.540        13
40.560        40
40.580        20
40.600        30
40.620        37
40.640        17
40.660        30
40.680        33
40.700        23
40.720        17
40.740        10
40.760        27
40.780        33
40.800        20
40.820        20
40.840        17
40.860        17
40.880        27
40.900        37
40.920        20
40.940        23
40.960        27
40.980        20
41.000        27
41.020        33
41.040         7
41.060        33
41.080        20
41.100         7
41.120        13
41.140        20
41.160        27
41.180        17
41.200        13
41.220        13
41.240        17
41.260         7
41.280        10
41.300        27
41.320         7
41.340        23
41.360        10
41.380        23
41.400        27
41.420        23
41.440        20
41.460        27
41.480        37
41.500        30
41.520        27
41.540        27
41.560        13
41.580        20
41.600        37
41.620        30
41.640        17
41.660        20
41.680        10
41.700        17
41.720        30
41.740        23
41.760        30
41.780        10
41.800        20
41.820        33
41.840        13
41.860        27
41.880        20
41.900        17
41.920        20
41.940        10
41.960        13
41.980        10
42.000        27
42.020        17
42.040        23
42.060        13
42.080        17
42.100        20
42.120        27
42.140        10
42.160        17
42.180        33
42.200        27
42.220        27
42.240        13
42.260        17
42.280        27
42.300        20
42.320        33
42.340        27
42.360        23
42.380        27
42.400        17
42.420        20
42.440        13
42.460        10
42.480        20
42.500        23
42.520        17
42.540        10
42.560        20
42.580        10
42.600        27
42.620        20
42.640        13
42.660        20
42.680        23
42.700        23
42.720        17
42.740        30
42.760        17
42.780         7
42.800        13
42.820        13
42.840        17
42.860        17
42.880        13
42.900        30
42.920        10
42.940        17
42.960        17
42.980        23
43.000        27
43.020        30
43.040        27
43.060        27
43.080        27
43.100        13
43.120        23
43.140         7
43.160        20
43.180        10
43.200        27
43.220        20
43.240        13
43.260        20
43.280        10
43.300        30
43.320        20
43.340        27
43.360        27
43.380        20
43.400         3
43.420        27
43.440        23
43.460        27
43.480        30
43.500        10
43.520        10
43.540        23
43.560        10
43.580        17
43.600        23
43.620        20
43.640        17
43.660        27
43.680        17
43.700        10
43.720        13
43.740        17
43.760        13
43.780        30
43.800         7
43.820        17
43.840        23
43.860        20
43.880        13
43.900        23
43.920        30
43.940        33
43.960        20
43.980        10
44.000         7
44.020        17
44.040        20
44.060        23
44.080        10
44.100        30
44.120        20
44.140        13
44.160        20
44.180        27
44.200        17
44.220        37
44.240        37
44.260        47
44.280        43
44.300        37
44.320        23
44.340        33
44.360        47
44.380        40
44.400        33
44.420        23
44.440        33
44.460        27
44.480        27
44.500        27
44.520         7
44.540        13
44.560        17
44.580        23
44.600         7
44.620        23
44.640        37
44.660        20
44.680        17
44.700        20
44.720        17
44.740        10
44.760        20
44.780         7
44.800        23
44.820        17
44.840        27
44.860        27
44.880        17
44.900         7
44.920         7
44.940        17
44.960        10
44.980        27
45.000         7
45.020        10
45.040        23
45.060        20
45.080        23
45.100        23
45.120        30
45.140         7
45.160        20
45.180        20
45.200        27
45.220        10
45.240        37
45.260         7
45.280        10
45.300        17
45.320        10
45.340        23
45.360        10
45.380        17
45.400        30
45.420        23
45.440         7
45.460        13
45.480        20
45.500        27
45.520        17
45.540         7
45.560        10
45.580        10
45.600        13
45.620        10
45.640        17
45.660        17
45.680         7
45.700         7
45.720        27
45.740         3
45.760        20
45.780        20
45.800        17
45.820        10
45.840        13
45.860        23
45.880        17
45.900        13
45.920        33
45.940        17
45.960        17
45.980        17
46.000        10
46.020        37
46.040        30
46.060        13
46.080        17
46.100        20
46.120        27
46.140         3
46.160        20
46.180        20
46.200        27
46.220        13
46.240        30
46.260        27
46.280        13
46.300        33
46.320        33
46.340        17
46.360        27
46.380         7
46.400        17
46.420        13
46.440        10
46.460        13
46.480        20
46.500        13
46.520        10
46.540        27
46.560        13
46.580        27
46.600         0
46.620        10
46.640        30
46.660        40
46.680         7
46.700        10
46.720        23
46.740        13
46.760        20
46.780        17
46.800        27
46.820        17
46.840        10
46.860        17
46.880        23
46.900        10
46.920        10
46.940         0
46.960        17
46.980        30
47.000        37
47.020        20
47.040         7
47.060         7
47.080        13
47.100        13
47.120        17
47.140        43
47.160        20
47.180         7
47.200        17
47.220        17
47.240        17
47.260         7
47.280        17
47.300        10
47.320        13
47.340        27
47.360        30
47.380        13
47.400         3
47.420        20
47.440        10
47.460        17
47.480        17
47.500        20
47.520        20
47.540        17
47.560        30
47.580        17
47.600        20
47.620        20
47.640        20
47.660        33
47.680        10
47.700        20
47.720         3
47.740         7
47.760        13
47.780        20
47.800        27
47.820        13
47.840        23
47.860        20
47.880        17
47.900        13
47.920        17
47.940        17
47.960        10
47.980         3
48.000        13
48.020         7
48.040        23
48.060        20
48.080        40
48.100        10
48.120        27
48.140        10
48.160        20
48.180        27
48.200         7
48.220        30
48.240        10
48.260        13
48.280        13
48.300        40
48.320        17
48.340        20
48.360        13
48.380         3
48.400        10
48.420        23
48.440        17
48.460        13
48.480        20
48.500        37
48.520        17
48.540        20
48.560        10
48.580         3
48.600        13
48.620        10
48.640        23
48.660         7
48.680         7
48.700        13
48.720        17
48.740        13
48.760        20
48.780        13
48.800        17
48.820        30
48.840        20
48.860        17
48.880        10
48.900        23
48.920         7
48.940        20
48.960        10
48.980        17
49.000        10
49.020        23
49.040        10
49.060        10
49.080        17
49.100        17
49.120        13
49.140        23
49.160        17
49.180        10
49.200        40
49.220        17
49.240        27
49.260        33
49.280         7
49.300        33
49.320        13
49.340        17
49.360        23
49.380        20
49.400        17
49.420        23
49.440        13
49.460        20
49.480        27
49.500        43
49.520        20
49.540         7
49.560        13
49.580        37
49.600        23
49.620        30
49.640        20
49.660        10
49.680        13
49.700        20
49.720        13
49.740        17
49.760        27
49.780        20
49.800        17
49.820         7
49.840        23
49.860        17
49.880        27
49.900        10
49.920        20
49.940        13
49.960        23
49.980        10
50.000         7
50.020        13
50.040        23
50.060        20
50.080        13
50.100        13
50.120        13
50.140        20
50.160        10
50.180        17
50.200        30
50.220        27
50.240        10
50.260        10
50.280        17
50.300        17
50.320        30
50.340        17
50.360        20
50.380        20
50.400        40
50.420        33
50.440        10
50.460        20
50.480        17
50.500        13
50.520        17
50.540        30
50.560        17
50.580        17
50.600        17
50.620        27
50.640        30
50.660        37
50.680        10
50.700        17
50.720        20
50.740         7
50.760        23
50.780        17
50.800        23
50.820        27
50.840        27
50.860        13
50.880        17
50.900        13
50.920        17
50.940        17
50.960        20
50.980        30
51.000        23
51.020        17
51.040        13
51.060        20
51.080        43
51.100        33
51.120        17
51.140         7
51.160        20
51.180        37
51.200        17
51.220        17
51.240         7
51.260        13
51.280        27
51.300        20
51.320        10
51.340        20
51.360        20
51.380        30
51.400        30
51.420        20
51.440         3
51.460        20
51.480        30
51.500        17
51.520        10
51.540        23
51.560        13
51.580        13
51.600        20
51.620         7
51.640        10
51.660        27
51.680        13
51.700        23
51.720        17
51.740        23
51.760        10
51.780        13
51.800        33
51.820        30
51.840        17
51.860         7
51.880        17
51.900         7
51.920        33
51.940        27
51.960        13
51.980        27
52.000        37
52.020         3
52.040        30
52.060        47
52.080        20
52.100        20
52.120        10
52.140        23
52.160        27
52.180        23
52.200        27
52.220        13
52.240        10
52.260        10
52.280        40
52.300        23
52.320        17
52.340        13
52.360        20
52.380        17
52.400        27
52.420        27
52.440        20
52.460        37
52.480        27
52.500        20
52.520        33
52.540        27
52.560        20
52.580        13
52.600        30
52.620        33
52.640        20
52.660        23
52.680        23
52.700        10
52.720        17
52.740        17
52.760        10
52.780        30
52.800        17
52.820        27
52.840        27
52.860         7
52.880        23
52.900         7
52.920        13
52.940        30
52.960        47
52.980        47
53.000        27
53.020        43
53.040        33
53.060        13
53.080        20
53.100        17
53.120        40
53.140        23
53.160        33
53.180        37
53.200        10
53.220        13
53.240        33
53.260        20
53.280        30
53.300        40
53.320        20
53.340        33
53.360        37
53.380        10
53.400        33
53.420        30
53.440        23
53.460        37
53.480        27
53.500        33
53.520        10
53.540        20
53.560        27
53.580        13
53.600        27
53.620        17
53.640        20
53.660        27
53.680        17
53.700        27
53.720        27
53.740        23
53.760        47
53.780         3
53.800        23
53.820        17
53.840        27
53.860        30
53.880        23
53.900        20
53.920        17
53.940        23
53.960        17
53.980        20
54.000        17
54.020        23
54.040        13
54.060        33
54.080        53
54.100        37
54.120        20
54.140        13
54.160        23
54.180        30
54.200        30
54.220        20
54.240        20
54.260        27
54.280        23
54.300        27
54.320        20
54.340        43
54.360        30
54.380        27
54.400        23
54.420        37
54.440        27
54.460        30
54.480        47
54.500        17
54.520        27
54.540        37
54.560        57
54.580        17
54.600        50
54.620        33
54.640        40
54.660        63
54.680        50
54.700       117
54.720       110
54.740       110
54.760       127
54.780       133
54.800       110
54.820       153
54.840       280
54.860       390
54.880       470
54.900       533
54.920       820
54.940       813
54.960      1036
54.980      1113
55.000      1120
55.020      1226
55.040      1100
55.060      1263
55.080      1203
55.100      1163
55.120       996
55.140       896
55.160       876
55.180       690
55.200       690
55.220       486
55.240       436
55.260       373
55.280       327
55.300       277
55.320       193
55.340       170
55.360       117
55.380        97
55.400        77
55.420        47
55.440        63
55.460        37
55.480        50
55.500        67
55.520        57
55.540        27
55.560        57
55.580        43
55.600        43
55.620        27
55.640        30
55.660        37
55.680        13
55.700        33
55.720        47
55.740        33
55.760        37
55.780        20
55.800        33
55.820        20
55.840        30
55.860        30
55.880        33
55.900        27
55.920        33
55.940        33
55.960        33
55.980        33
56.000        23
56.020        30
56.040        20
56.060        43
56.080        20
56.100        30
56.120        37
56.140        17
56.160        20
56.180        23
56.200        27
56.220        33
56.240        20
56.260        33
56.280        13
56.300        30
56.320        17
56.340        33
56.360        23
56.380        13
56.400        20
56.420        23
56.440        17
56.460        20
56.480        17
56.500        13
56.520        27
56.540        23
56.560        13
56.580        17
56.600         3
56.620        27
56.640        20
56.660        17
56.680        27
56.700        23
56.720        13
56.740        37
56.760        23
56.780        10
56.800         7
56.820        13
56.840        17
56.860        20
56.880        17
56.900        10
56.920        13
56.940        30
56.960        13
56.980        10
57.000        20
57.020        13
57.040        23
57.060        23
57.080        13
57.100        17
57.120        13
57.140        13
57.160         7
57.180        23
57.200        10
57.220        17
57.240        23
57.260        20
57.280        10
57.300        17
57.320        37
57.340         3
57.360        27
57.380        20
57.400        17
57.420        30
57.440        13
57.460        40
57.480        20
57.500        20
57.520        20
57.540        30
57.560        17
57.580        13
57.600        20
57.620         3
57.640        10
57.660        17
57.680        17
57.700        20
57.720        37
57.740        23
57.760        23
57.780        13
57.800        13
57.820        10
57.840        13
57.860        20
57.880        10
57.900        23
57.920        10
57.940        13
57.960        27
57.980         7
58.000        33
58.020        13
58.040        20
58.060        20
58.080        23
58.100        20
58.120        17
58.140        20
58.160         7
58.180        13
58.200        20
58.220        23
58.240        10
58.260        23
58.280         7
58.300        20
58.320        10
58.340        13
58.360         7
58.380        13
58.400        10
58.420        10
58.440        33
58.460         7
58.480        10
58.500        23
58.520         7
58.540        13
58.560         7
58.580         7
58.600        17
58.620        13
58.640        23
58.660        10
58.680        17
58.700        37
58.720        17
58.740         7
58.760        17
58.780        17
58.800        23
58.820        27
58.840        20
58.860        10
58.880        10
58.900        17
58.920        23
58.940        37
58.960        17
58.980        20
59.000        13
59.020        13
59.040        20
59.060        37
59.080         3
59.100        17
59.120        13
59.140        27
59.160        10
59.180         7
59.200         0
59.220        17
59.240        10
59.260        10
59.280        13
59.300        20
59.320        17
59.340         7
59.360        23
59.380        13
59.400        27
59.420         7
59.440        17
59.460        10
59.480        13
59.500         7
59.520        20
59.540         7
59.560        10
59.580        13
59.600        20
59.620        10
59.640        13
59.660        13
59.680         3
59.700        10
59.720         7
59.740        13
59.760        20
59.780        13
59.800         7
59.820        17
59.840        23
59.860        13
59.880         3
59.900        13
59.920         7
59.940         7
59.960        13
59.980        27
60.000        13
