20.000         0
20.020         0
20.040         0
20.060         0
20.080         0
20.100         0
20.120         0
20.140         0
20.160         0
20.180         0
20.200         0
20.220         0
20.240         0
20.260         0
20.280         0
20.300         0
20.320        47
20.340       163
20.360       147
20.380       127
20.400        97
20.420       110
20.440       123
20.460        80
20.480       137
20.500       157
20.520       110
20.540       127
20.560       130
20.580       110
20.600        93
20.620       130
20.640       140
20.660       137
20.680       130
20.700       107
20.720       130
20.740        90
20.760        70
20.780       160
20.800       107
20.820       103
20.840       117
20.860       153
20.880       110
20.900       137
20.920       103
20.940       150
20.960       117
20.980       147
21.000       137
21.020       120
21.040        77
21.060       113
21.080       123
21.100       110
21.120        97
21.140       110
21.160       147
21.180       103
21.200       137
21.220       160
21.240       127
21.260       110
21.280       133
21.300       120
21.320       150
21.340       123
21.360       120
21.380       120
21.400        90
21.420       140
21.440       133
21.460       163
21.480       117
21.500       170
21.520       150
21.540       130
21.560       143
21.580       117
21.600       123
21.620       150
21.640       140
21.660       143
21.680       150
21.700       147
21.720       133
21.740       117
21.760       150
21.780       120
21.800       117
21.820       127
21.840       147
21.860       133
21.880       163
21.900        97
21.920        97
21.940       117
21.960       123
21.980       130
22.000        70
22.020       133
22.040       133
22.060       140
22.080       150
22.100       113
22.120       123
22.140        87
22.160       103
22.180       127
22.200       120
22.220        97
22.240       110
22.260       143
22.280       117
22.300       133
22.320       137
22.340       147
22.360       103
22.380       137
22.400       130
22.420       137
22.440       150
22.460       157
22.480       167
22.500       117
22.520        97
22.540       130
22.560       170
22.580       127
22.600       150
22.620       190
22.640       163
22.660       163
22.680       163
22.700       157
22.720       140
22.740       127
22.760       133
22.780       157
22.800       170
22.820       130
22.840       150
22.860       113
22.880       137
22.900       193
22.920       153
22.940       160
22.960       177
22.980       137
23.000       140
23.020       147
23.040       160
23.060       197
23.080       263
23.100       227
23.120       173
23.140       210
23.160       147
23.180       120
23.200       197
23.220       190
23.240       200
23.260       153
23.280       137
23.300       213
23.320       160
23.340       160
23.360       170
23.380       163
23.400       147
23.420       163
23.440       153
23.460       190
23.480       140
23.500       137
23.520       130
23.540       117
23.560       137
23.580       153
23.600       117
23.620       177
23.640       173
23.660       107
23.680       170
23.700       143
23.720       133
23.740       173
23.760       160
23.780       110
23.800       137
23.820       157
23.840       143
23.860       120
23.880       150
23.900       160
23.920       167
23.940       130
23.960       117
23.980       153
24.000       143
24.020       220
24.040       170
24.060       170
24.080       130
24.100       190
24.120       170
24.140       160
24.160       213
24.180       167
24.200       173
24.220       147
24.240       130
24.260       200
24.280       177
24.300       137
24.320       123
24.340       170
24.360       107
24.380       167
24.400       147
24.420       143
24.440       153
24.460       140
24.480       187
24.500       213
24.520       177
24.540       200
24.560       120
24.580       137
24.600       157
24.620       147
24.640       140
24.660       137
24.680       147
24.700       150
24.720       157
24.740       133
24.760       160
24.780       157
24.800       147
24.820        87
24.840       143
24.860       117
24.880       123
24.900       107
24.920       150
24.940        97
24.960       107
24.980       150
25.000       107
25.020       113
25.040       140
25.060       130
25.080       117
25.100       117
25.120        87
25.140       130
25.160       160
25.180       150
25.200       133
25.220       123
25.240       123
25.260       110
25.280       123
25.300       100
25.320       130
25.340       160
25.360       130
25.380       187
25.400       150
25.420       183
25.440       233
25.460       337
25.480       413
25.500       446
25.520       760
25.540      1856
25.560      4591
25.580      6141
25.600      6744
25.620      6078
25.640      4155
25.660      3788
25.680      2836
25.700      1379
25.720       673
25.740       443
25.760       310
25.780       317
25.800       270
25.820       200
25.840       180
25.860       167
25.880       137
25.900       143
25.920       117
25.940       113
25.960       117
25.980       123
26.000       120
26.020       120
26.040       123
26.060       140
26.080       117
26.100       100
26.120       107
26.140       107
26.160       100
26.180       103
26.200       107
26.220        80
26.240        93
26.260       137
26.280        90
26.300        90
26.320        63
26.340        97
26.360       127
26.380        97
26.400       107
26.420       103
26.440        93
26.460        97
26.480        73
26.500       137
26.520       130
26.540       113
26.560       113
26.580        97
26.600        90
26.620       107
26.640       103
26.660        93
26.680        97
26.700       103
26.720       103
26.740        87
26.760       100
26.780       113
26.800        83
26.820        80
26.840       107
26.860        70
26.880       123
26.900        97
26.920       110
26.940        93
26.960       100
26.980        83
27.000       113
27.020        70
27.040       110
27.060       137
27.080       103
27.100        73
27.120        73
27.140        97
27.160        90
27.180        93
27.200        93
27.220       113
27.240        80
27.260        83
27.280        60
27.300       110
27.320       103
27.340       117
27.360        83
27.380        77
27.400       133
27.420       113
27.440        90
27.460       130
27.480       107
27.500       113
27.520       127
27.540       127
27.560       143
27.580        73
27.600        97
27.620       110
27.640       107
27.660        93
27.680       100
27.700       123
27.720        87
27.740       133
27.760        70
27.780        77
27.800        67
27.820        77
27.840       100
27.860       137
27.880        63
27.900       120
27.920       143
27.940        77
27.960        97
27.980       100
28.000        73
28.020        97
28.040        97
28.060        93
28.080       123
28.100       130
28.120        97
28.140        90
28.160        63
28.180        83
28.200       137
28.220       107
28.240       127
28.260       103
28.280       107
28.300        83
28.320        77
28.340        97
28.360       137
28.380       137
28.400       120
28.420       107
28.440       110
28.460       123
28.480       137
28.500        90
28.520       120
28.540       107
28.560        87
28.580        90
28.600        77
28.620       110
28.640       140
28.660       123
28.680       113
28.700       117
28.720        93
28.740       110
28.760       140
28.780       130
28.800       100
28.820       100
28.840        93
28.860        87
28.880        80
28.900       120
28.920       140
28.940       113
28.960       100
28.980       130
29.000        77
29.020        80
29.040        97
29.060       150
29.080        77
29.100        63
29.120       120
29.140       103
29.160        97
29.180        87
29.200        97
29.220        93
29.240       110
29.260        93
29.280       110
29.300       123
29.320        77
29.340       123
29.360       107
29.380        97
29.400       103
29.420       143
29.440       100
29.460        90
29.480        83
29.500       107
29.520       127
29.540        97
29.560        90
29.580        97
29.600        97
29.620       147
29.640       127
29.660       123
29.680       140
29.700       100
29.720       137
29.740       107
29.760        90
29.780        83
29.800       120
29.820        83
29.840       153
29.860       117
29.880       117
29.900       100
29.920       110
29.940       107
29.960       110
29.980       113
30.000        70
30.020       147
30.040       157
30.060       100
30.080       103
30.100        87
30.120        97
30.140        93
30.160        90
30.180       143
30.200       103
30.220        97
30.240       123
30.260        80
30.280       137
30.300       147
30.320       133
30.340       160
30.360       100
30.380        97
30.400       103
30.420       103
30.440       103
30.460       147
30.480       140
30.500       177
30.520       153
30.540       143
30.560       160
30.580       200
30.600       163
30.620       123
30.640       167
30.660       173
30.680       200
30.700       200
30.720       213
30.740       250
30.760       223
30.780       213
30.800       203
30.820       160
30.840       160
30.860       153
30.880       200
30.900       163
30.920       163
30.940       133
30.960        70
30.980       130
31.000       130
31.020       133
31.040       103
31.060        90
31.080       123
31.100        80
31.120       123
31.140        73
31.160        87
31.180       100
31.200        63
31.220        80
31.240        70
31.260       110
31.280        73
31.300        93
31.320       100
31.340       110
31.360       100
31.380        87
31.400       103
31.420       100
31.440        77
31.460        63
31.480        80
31.500        90
31.520        63
31.540        67
31.560        73
31.580        97
31.600        70
31.620        83
31.640        93
31.660        73
31.680       147
31.700        67
31.720        83
31.740       113
31.760       100
31.780        70
31.800        73
31.820        70
31.840       117
31.860        83
31.880        57
31.900        60
31.920        87
31.940        87
31.960       100
31.980        73
32.000        83
32.020       100
32.040        70
32.060        70
32.080        90
32.100       107
32.120        83
32.140        90
32.160        57
32.180        73
32.200        63
32.220       103
32.240       123
32.260        63
32.280        77
32.300        70
32.320        70
32.340       120
32.360        87
32.380        73
32.400        97
32.420        63
32.440        47
32.460       107
32.480        77
32.500        83
32.520        67
32.540        50
32.560        87
32.580        60
32.600        67
32.620        70
32.640        73
32.660        80
32.680        87
32.700        50
32.720        63
32.740        60
32.760        77
32.780        73
32.800        80
32.820        73
32.840        50
32.860        60
32.880        77
32.900        70
32.920        80
32.940        83
32.960        80
32.980       103
33.000        87
33.020        73
33.040        73
33.060        70
33.080        83
33.100        70
33.120        70
33.140        47
33.160        77
33.180        80
33.200        43
33.220        73
33.240        60
33.260        77
33.280        80
33.300        87
33.320        87
33.340        60
33.360        73
33.380        93
33.400        60
33.420        67
33.440        73
33.460        60
33.480        63
33.500        60
33.520        57
33.540        70
33.560        63
33.580        57
33.600        70
33.620        60
33.640        83
33.660        97
33.680        97
33.700        77
33.720        83
33.740        90
33.760        60
33.780        43
33.800        77
33.820        87
33.840        87
33.860        77
33.880       127
33.900        87
33.920        67
33.940        63
33.960        50
33.980        53
34.000        83
34.020        83
34.040        93
34.060        87
34.080        63
34.100       103
34.120        90
34.140        80
34.160        83
34.180        93
34.200        50
34.220        67
34.240        67
34.260        90
34.280        77
34.300        93
34.320        40
34.340        47
34.360        80
34.380        73
34.400        70
34.420        70
34.440        73
34.460        70
34.480       100
34.500        50
34.520        63
34.540        70
34.560        97
34.580        60
34.600        63
34.620        87
34.640        77
34.660        97
34.680        57
34.700        53
34.720        97
34.740        73
34.760        60
34.780       100
34.800        77
34.820        80
34.840        60
34.860        53
34.880       107
34.900        67
34.920       100
34.940        80
34.960        43
34.980        63
35.000        67
35.020       100
35.040        67
35.060        50
35.080        87
35.100        77
35.120        87
35.140        77
35.160       103
35.180        90
35.200        97
35.220       107
35.240        87
35.260        70
35.280        77
35.300       100
35.320        73
35.340       113
35.360        97
35.380       100
35.400       100
35.420       100
35.440        87
35.460        93
35.480        63
35.500        93
35.520        63
35.540        77
35.560        90
35.580        93
35.600        97
35.620        87
35.640       120
35.660       107
35.680       130
35.700       120
35.720       117
35.740       133
35.760       117
35.780       177
35.800       227
35.820       207
35.840       277
35.860       307
35.880       310
35.900       253
35.920       187
35.940       207
35.960       217
35.980       197
36.000       203
36.020       190
36.040       207
36.060       167
36.080       190
36.100       237
36.120       177
36.140       210
36.160       223
36.180       197
36.200       207
36.220       143
36.240       197
36.260       133
36.280       143
36.300       130
36.320       123
36.340       143
36.360       110
36.380       100
36.400       133
36.420       113
36.440       137
36.460       160
36.480       100
36.500       123
36.520       127
36.540       147
36.560       137
36.580       143
36.600        83
36.620       120
36.640        93
36.660        67
36.680       113
36.700       130
36.720       120
36.740        93
36.760       130
36.780       120
36.800        93
36.820       140
36.840        80
36.860       103
36.880       117
36.900       103
36.920       100
36.940       160
36.960       100
36.980        93
37.000       110
37.020       110
37.040       107
37.060       113
37.080       100
37.100       137
37.120       113
37.140        83
37.160       103
37.180       117
37.200       143
37.220       137
37.240       123
37.260       127
37.280       130
37.300        90
37.320       133
37.340       130
37.360       127
37.380       117
37.400       127
37.420       123
37.440       117
37.460       133
37.480       100
37.500       100
37.520        97
37.540       133
37.560       107
37.580        73
37.600       113
37.620       143
37.640       127
37.660       107
37.680       107
37.700       127
37.720       123
37.740       150
37.760       187
37.780       120
37.800       163
37.820       140
37.840       200
37.860       190
37.880       163
37.900       193
37.920       213
37.940       240
37.960       240
37.980       273
38.000       250
38.020       270
38.040       290
38.060       313
38.080       300
38.100       337
38.120       357
38.140       297
38.160       293
38.180       267
38.200       253
38.220       217
38.240       243
38.260       237
38.280       167
38.300       170
38.320       170
38.340       193
38.360       150
38.380       187
38.400       220
38.420       203
38.440       177
38.460       200
38.480       240
38.500       193
38.520       240
38.540       243
38.560       233
38.580       210
38.600       247
38.620       220
38.640       193
38.660       277
38.680       243
38.700       217
38.720       243
38.740       267
38.760       210
38.780       197
38.800       217
38.820       213
38.840       210
38.860       243
38.880       213
38.900       227
38.920       240
38.940       243
38.960       210
38.980       290
39.000       290
39.020       283
39.040       233
39.060       250
39.080       243
39.100       283
39.120       283
39.140       310
39.160       287
39.180       270
39.200       267
39.220       320
39.240       320
39.260       317
39.280       360
39.300       333
39.320       357
39.340       407
39.360       403
39.380       393
39.400       483
39.420       536
39.440       470
39.460       520
39.480       616
39.500       603
39.520       890
39.540       890
39.560      1070
39.580      1230
39.600      1476
39.620      1729
39.640      2219
39.660      2929
39.680      3395
39.700      4305
39.720      5788
39.740      7384
39.760     10176
39.780     12898
39.800     16537
39.820     19439
39.840     21475
39.860     20992
39.880     20472
39.900     19319
39.920     17600
39.940     16177
39.960     14188
39.980     11492
40.000      9280
40.020      6991
40.040      5768
40.060      4462
40.080      3225
40.100      2452
40.120      2086
40.140      1519
40.160      1086
40.180      1040
40.200       953
40.220       763
40.240       746
40.260       653
40.280       536
40.300       473
40.320       500
40.340       423
40.360       450
40.380       450
40.400       350
40.420       377
40.440       353
40.460       380
40.480       357
40.500       313
40.520       307
40.540       343
40.560       333
40.580       277
40.600       240
40.620       240
40.640       273
40.660       200
40.680       233
40.700       230
40.720       223
40.740       237
40.760       210
40.780       260
40.800       210
40.820       223
40.840       217
40.860       227
40.880       260
40.900       223
40.920       193
40.940       240
40.960       207
40.980       193
41.000       190
41.020       183
41.040       130
41.060       150
41.080       217
41.100       180
41.120       227
41.140       167
41.160       170
41.180       150
41.200       200
41.220       167
41.240       210
41.260       167
41.280       177
41.300       170
41.320       220
41.340       203
41.360       203
41.380       133
41.400       200
41.420       167
41.440       170
41.460       163
41.480       153
41.500       183
41.520       150
41.540       130
41.560       147
41.580       157
41.600       167
41.620       190
41.640       150
41.660       163
41.680       127
41.700       133
41.720       163
41.740       143
41.760       150
41.780       177
41.800       153
41.820       113
41.840       150
41.860       110
41.880       127
41.900       140
41.920       113
41.940       167
41.960       117
41.980       163
42.000       123
42.020       137
42.040       140
42.060       117
42.080       143
42.100       143
42.120       137
42.140       120
42.160       147
42.180       137
42.200       123
42.220       133
42.240       103
42.260       117
42.280       120
42.300       133
42.320       107
42.340       157
42.360        93
42.380       123
42.400       117
42.420       103
42.440       117
42.460       107
42.480       127
42.500       120
42.520       120
42.540        93
42.560       117
42.580        97
42.600       130
42.620       150
42.640        97
42.660        93
42.680       103
42.700        87
42.720       123
42.740       120
42.760       110
42.780       107
42.800       110
42.820       130
42.840        97
42.860        90
42.880       120
42.900        93
42.920       123
42.940       130
42.960       117
42.980        87
43.000        93
43.020        83
43.040        83
43.060        97
43.080        90
43.100       100
43.120       127
43.140        90
43.160       120
43.180        93
43.200       110
43.220       110
43.240        97
43.260        97
43.280        93
43.300       120
43.320       103
43.340       153
43.360       100
43.380       127
43.400       127
43.420       117
43.440        87
43.460       123
43.480        93
43.500        83
43.520        80
43.540        80
43.560       110
43.580       100
43.600       107
43.620       140
43.640       123
43.660        77
43.680        90
43.700       110
43.720        97
43.740        93
43.760       147
43.780       133
43.800       103
43.820       103
43.840        90
43.860       103
43.880       127
43.900       160
43.920        90
43.940       157
43.960       173
43.980       117
44.000       123
44.020       113
44.040       107
44.060       133
44.080       120
44.100       127
44.120       103
44.140       143
44.160        93
44.180       147
44.200        93
44.220        80
44.240       133
44.260       110
44.280       130
44.300       113
44.320        93
44.340        93
44.360        80
44.380        80
44.400        73
44.420       120
44.440        57
44.460       103
44.480        87
44.500       110
44.520        90
44.540        67
44.560       100
44.580       103
44.600        60
44.620       100
44.640        77
44.660        83
44.680        80
44.700       107
44.720        80
44.740        90
44.760        70
44.780       107
44.800       110
44.820       110
44.840        87
44.860        83
44.880       100
44.900        57
44.920        80
44.940        83
44.960       103
44.980        80
45.000       113
45.020        63
45.040       103
45.060        63
45.080        73
45.100        60
45.120       103
45.140       100
45.160        50
45.180        53
45.200        77
45.220       103
45.240        77
45.260        47
45.280        57
45.300       117
45.320        70
45.340        87
45.360        87
45.380        87
45.400        70
45.420        77
45.440        60
45.460        77
45.480        77
45.500        70
45.520        90
45.540        83
45.560        70
45.580        80
45.600       117
45.620        80
45.640        77
45.660        77
45.680        60
45.700        77
45.720        77
45.740        77
45.760        77
45.780        47
45.800        90
45.820        47
45.840        80
45.860        90
45.880        60
45.900        73
45.920        67
45.940        50
45.960        60
45.980        73
46.000        97
46.020        60
46.040        80
46.060        77
46.080        93
46.100        93
46.120        97
46.140        87
46.160        87
46.180        60
46.200        97
46.220        97
46.240       133
46.260        60
46.280       107
46.300        97
46.320       120
46.340       107
46.360       103
46.380       117
46.400       120
46.420        87
46.440       100
46.460        63
46.480        80
46.500       127
46.520        90
46.540        63
46.560        67
46.580        97
46.600        80
46.620        70
46.640       110
46.660        83
46.680        73
46.700        50
46.720        60
46.740       120
46.760       130
46.780        93
46.800        57
46.820        70
46.840       103
46.860        70
46.880        70
46.900        73
46.920        80
46.940        60
46.960        97
46.980        67
47.000       120
47.020        83
47.040        70
47.060       107
47.080        63
47.100       183
47.120       167
47.140       360
47.160       513
47.180       563
47.200       576
47.220       390
47.240       250
47.260       160
47.280       127
47.300        97
47.320       100
47.340        83
47.360        90
47.380        80
47.400        80
47.420        73
47.440        53
47.460        77
47.480        83
47.500        80
47.520        77
47.540       100
47.560        57
47.580        70
47.600        73
47.620        67
47.640        73
47.660        33
47.680        60
47.700        67
47.720        57
47.740        90
47.760        67
47.780        47
47.800        63
47.820        67
47.840        67
47.860        53
47.880        77
47.900        67
47.920        77
47.940        63
47.960        40
47.980        63
48.000        63
48.020        60
48.040        73
48.060        80
48.080        40
48.100        47
48.120        60
48.140        53
48.160        57
48.180        70
48.200        70
48.220        67
48.240        77
48.260        77
48.280        53
48.300        60
48.320        70
48.340        57
48.360        43
48.380        57
48.400        47
48.420        60
48.440        50
48.460        57
48.480        63
48.500        93
48.520        50
48.540        70
48.560        40
48.580        77
48.600        70
48.620        77
48.640        60
48.660        60
48.680        43
48.700        47
48.720        43
48.740        60
48.760        53
48.780        50
48.800        53
48.820        53
48.840        90
48.860        50
48.880        47
48.900        60
48.920        83
48.940        60
48.960        50
48.980        47
49.000        57
49.020        37
49.040        40
49.060        53
49.080        37
49.100        57
49.120        50
49.140        77
49.160        63
49.180        33
49.200        43
49.220        63
49.240        43
49.260        60
49.280        60
49.300        33
49.320        57
49.340        73
49.360        60
49.380        70
49.400        53
49.420        97
49.440        47
49.460        73
49.480        57
49.500        60
49.520        30
49.540        63
49.560        50
49.580        53
49.600        43
49.620        43
49.640        53
49.660        57
49.680        47
49.700        57
49.720        77
49.740        27
49.760        40
49.780        63
49.800        27
49.820        57
49.840        60
49.860        77
49.880        47
49.900        40
49.920        63
49.940        57
49.960        50
49.980        50
50.000        57
50.020        40
50.040        53
50.060        83
50.080        67
50.100        50
50.120        63
50.140        60
50.160        67
50.180        33
50.200        67
50.220        60
50.240        40
50.260        57
50.280        47
50.300        53
50.320        47
50.340        57
50.360        67
50.380        60
50.400        60
50.420        77
50.440        60
50.460        47
50.480        40
50.500        50
50.520        50
50.540        50
50.560        47
50.580        73
50.600        77
50.620        60
50.640       117
50.660        70
50.680       160
50.700       173
50.720       177
50.740       150
50.760       150
50.780       143
50.800       157
50.820       160
50.840       180
50.860       140
50.880       130
50.900       143
50.920       167
50.940       173
50.960       130
50.980       147
51.000       180
51.020       163
51.040       180
51.060       153
51.080       120
51.100       153
51.120       127
51.140       177
51.160       160
51.180       137
51.200       143
51.220       150
51.240       147
51.260       143
51.280       143
51.300       133
51.320       140
51.340       183
51.360       187
51.380       153
51.400       120
51.420       183
51.440       133
51.460       137
51.480       163
51.500       107
51.520       200
51.540       143
51.560       147
51.580       143
51.600       143
51.620       177
51.640       173
51.660       170
51.680       197
51.700       163
51.720       180
51.740       130
51.760       157
51.780       167
51.800       123
51.820       150
51.840       140
51.860       220
51.880       150
51.900       140
51.920       180
51.940       150
51.960       230
51.980       200
52.000       203
52.020       173
52.040       227
52.060       203
52.080       180
52.100       223
52.120       200
52.140       290
52.160       243
52.180       283
52.200       307
52.220       313
52.240       350
52.260       496
52.280       543
52.300       700
52.320       913
52.340       920
52.360       976
52.380       970
52.400      1269
52.420      1429
52.440      1833
52.460      2426
52.480      3842
52.500      5944
52.520     14048
52.540     35069
52.560     53925
52.580     57624
52.600     45475
52.620     24117
52.640     11392
52.660     11502
52.680     20578
52.700     30058
52.720     30931
52.740     25063
52.760     13258
52.780      5544
52.800      3202
52.820      2262
52.840      1926
52.860      1523
52.880      1136
52.900       796
52.920       573
52.940       580
52.960       476
52.980       443
53.000       390
53.020       307
53.040       353
53.060       253
53.080       263
53.100       310
53.120       303
53.140       210
53.160       253
53.180       250
53.200       243
53.220       203
53.240       240
53.260       200
53.280       243
53.300       163
53.320       193
53.340       203
53.360       177
53.380       197
53.400       153
53.420       177
53.440       173
53.460       153
53.480       140
53.500       163
53.520       167
53.540       123
53.560       110
53.580       147
53.600       123
53.620       117
53.640       170
53.660       120
53.680       173
53.700        90
53.720       153
53.740       123
53.760       107
53.780       100
53.800       150
53.820        87
53.840       140
53.860       157
53.880       103
53.900       153
53.920       113
53.940       117
53.960       133
53.980       133
54.000       137
54.020       133
54.040       110
54.060        97
54.080       133
54.100       123
54.120       153
54.140       100
54.160        67
54.180       140
54.200       127
54.220        90
54.240       110
54.260       140
54.280       130
54.300        97
54.320       103
54.340       103
54.360       120
54.380       120
54.400       140
54.420       133
54.440       130
54.460       160
54.480       143
54.500       167
54.520        97
54.540       143
54.560       140
54.580       113
54.600        87
54.620       107
54.640       130
54.660       117
54.680       117
54.700       113
54.720       143
54.740       137
54.760       110
54.780       133
54.800       150
54.820       110
54.840       143
54.860       110
54.880       127
54.900       137
54.920       113
54.940       103
54.960       103
54.980       103
55.000       140
55.020        87
55.040       110
55.060       100
55.080       123
55.100        97
55.120       117
55.140       107
55.160       123
55.180       107
55.200        97
55.220       107
55.240       120
55.260       103
55.280        83
55.300       100
55.320        77
55.340       117
55.360        77
55.380        70
55.400        80
55.420       100
55.440        90
55.460        93
55.480       127
55.500       100
55.520        60
55.540        77
55.560        83
55.580       100
55.600       107
55.620        73
55.640        87
55.660        73
55.680        97
55.700        87
55.720        83
55.740        77
55.760        47
55.780        97
55.800        60
55.820        63
55.840        70
55.860       103
55.880        60
55.900        93
55.920        80
55.940        80
55.960        93
55.980        50
56.000       110
56.020        93
56.040       123
56.060        73
56.080       113
56.100       103
56.120        57
56.140        80
56.160        60
56.180        57
56.200        97
56.220        70
56.240       107
56.260       113
56.280       130
56.300        77
56.320        83
56.340        70
56.360        70
56.380        50
56.400        50
56.420        57
56.440        73
56.460        80
56.480        87
56.500       110
56.520        67
56.540        80
56.560        93
56.580        73
56.600        83
56.620        67
56.640        80
56.660        87
56.680       107
56.700        83
56.720       100
56.740        67
56.760        77
56.780        67
56.800        77
56.820        40
56.840       110
56.860        67
56.880        90
56.900        40
56.920        47
56.940        67
56.960        70
56.980        70
57.000        67
57.020        63
57.040        60
57.060        80
57.080        57
57.100        70
57.120        97
57.140        80
57.160        63
57.180        70
57.200        67
57.220        43
57.240        43
57.260        47
57.280        83
57.300        53
57.320        70
57.340        60
57.360        90
57.380        60
57.400        63
57.420        73
57.440        83
57.460        80
57.480       100
57.500        73
57.520        77
57.540        30
57.560        53
57.580        57
57.600        50
57.620        70
57.640        43
57.660        80
57.680        73
57.700        57
57.720        53
57.740        67
57.760        80
57.780        43
57.800        47
57.820        40
57.840        43
57.860        53
57.880        77
57.900        73
57.920        60
57.940        47
57.960        50
57.980        67
58.000        50
58.020        43
58.040        73
58.060        80
58.080        37
58.100        70
58.120        73
58.140        57
58.160        57
58.180        57
58.200        70
58.220        57
58.240        90
58.260        50
58.280        90
58.300        47
58.320        63
58.340        70
58.360        47
58.380        53
58.400        70
58.420        73
58.440        40
58.460        53
58.480        67
58.500        43
58.520        67
58.540        43
58.560        47
58.580        57
58.600        73
58.620        80
58.640        77
58.660        83
58.680        43
58.700        47
58.720        67
58.740        67
58.760        73
58.780        67
58.800        60
58.820        70
58.840        67
58.860        50
58.880        37
58.900        70
58.920        93
58.940        47
58.960        67
58.980        63
59.000        97
59.020        77
59.040        47
59.060        73
59.080        73
59.100        50
59.120        63
59.140        57
59.160        33
59.180        77
59.200        67
59.220        57
59.240        80
59.260        57
59.280        73
59.300        50
59.320        57
59.340        53
59.360        87
59.380        80
59.400        47
59.420        40
59.440        50
59.460        60
59.480        53
59.500        50
59.520        37
59.540        43
59.560        53
59.580        80
59.600        60
59.620        50
59.640        53
59.660        40
59.680        47
59.700        40
59.720        47
59.740        50
59.760        73
59.780        63
59.800        50
59.820        53
59.840        43
59.860        67
59.880        60
59.900        57
59.920        47
59.940        53
59.960        60
59.980        27
60.000        40
60.020        43
60.040        53
60.060        47
60.080        77
60.100        80
60.120        53
60.140        23
60.160        47
60.180        57
60.200        77
60.220        80
60.240        87
60.260        73
60.280        60
60.300        43
60.320        73
60.340        57
60.360        53
60.380        23
60.400        20
60.420        57
60.440        40
60.460        57
60.480        73
60.500        57
60.520        70
60.540        57
60.560        50
60.580        67
60.600        60
60.620        57
60.640        50
60.660        43
60.680        53
60.700        57
60.720        50
60.740        53
60.760        37
60.780        83
60.800        53
60.820        53
60.840        53
60.860        50
60.880        53
60.900        47
60.920        73
60.940        70
60.960        57
60.980        43
61.000        53
61.020        33
61.040        73
61.060        23
61.080        43
61.100        40
61.120        43
61.140        63
61.160        63
61.180        50
61.200        63
61.220        33
61.240        50
61.260        50
61.280        47
61.300        47
61.320        67
61.340        30
61.360        40
61.380        53
61.400        67
61.420        57
61.440        43
61.460        63
61.480        73
61.500        53
61.520        60
61.540        47
61.560        43
61.580        57
61.600        43
61.620        50
61.640        30
61.660        57
61.680        30
61.700        57
61.720        57
61.740        33
61.760        53
61.780        43
61.800        53
61.820        43
61.840        57
61.860        87
61.880        53
61.900        40
61.920        70
61.940        43
61.960        20
61.980        47
62.000        37
62.020        33
62.040        57
62.060        50
62.080        80
62.100        40
62.120        63
62.140        70
62.160        50
62.180        37
62.200        37
62.220        70
62.240        47
62.260        60
62.280        47
62.300        60
62.320        63
62.340        37
62.360        47
62.380        53
62.400        67
62.420        67
62.440        43
62.460        53
62.480        47
62.500        37
62.520        53
62.540        57
62.560        30
62.580        43
62.600        63
62.620        53
62.640        53
62.660        43
62.680        30
62.700        33
62.720        60
62.740        43
62.760        50
62.780        50
62.800        80
62.820        50
62.840        60
62.860        37
62.880        33
62.900        43
62.920        50
62.940        40
62.960        40
62.980        23
63.000        30
63.020        37
63.040        30
63.060        30
63.080        33
63.100        53
63.120        47
63.140        47
63.160        43
63.180        43
63.200        20
63.220        70
63.240        40
63.260        57
63.280        57
63.300        40
63.320        53
63.340        40
63.360        50
63.380        40
63.400        47
63.420        63
63.440        37
63.460        40
63.480        57
63.500        50
63.520        23
63.540        63
63.560        43
63.580        43
63.600        47
63.620        53
63.640        60
63.660        37
63.680        33
63.700        53
63.720        43
63.740        60
63.760        33
63.780        43
63.800        47
63.820        23
63.840        53
63.860        27
63.880        30
63.900        47
63.920        77
63.940        40
63.960        33
63.980        60
64.000        53
64.020        67
64.040        57
64.060        43
64.080        40
64.100        70
64.120        37
64.140        40
64.160        33
64.180        57
64.200        57
64.220        40
64.240        53
64.260        57
64.280        53
64.300        50
64.320        40
64.340        33
64.360        43
64.380        33
64.400        37
64.420        37
64.440        43
64.460        40
64.480        63
64.500        53
64.520        47
64.540        57
64.560        37
64.580        37
64.600        43
64.620        43
64.640        33
64.660        23
64.680        57
64.700        23
64.720        70
64.740        40
64.760        23
64.780        53
64.800        43
64.820        47
64.840        63
64.860        43
64.880        57
64.900        53
64.920        47
64.940        43
64.960        40
64.980        47
65.000        37
65.020        43
65.040        43
65.060        47
65.080        30
65.100        27
65.120        50
65.140        17
65.160        40
65.180        47
65.200        43
65.220        30
65.240        47
65.260        33
65.280        33
65.300        37
65.320        37
65.340        43
65.360        50
65.380        37
65.400        27
65.420        40
65.440        37
65.460        37
65.480        27
65.500        20
65.520        50
65.540        27
65.560        40
65.580        70
65.600        37
65.620        57
65.640        43
65.660        33
65.680        63
65.700        40
65.720        47
65.740        47
65.760        57
65.780        53
65.800        43
65.820        37
65.840        43
65.860        53
65.880        53
65.900        43
65.920        47
65.940        30
65.960        43
65.980        27
66.000        33
66.020        27
66.040        40
66.060        43
66.080        27
66.100        30
66.120        37
66.140        23
66.160        30
66.180        23
66.200        37
66.220        47
66.240        30
66.260        27
66.280        23
66.300        30
66.320        23
66.340        40
66.360        27
66.380        30
66.400        33
66.420        40
66.440        30
66.460        27
66.480        27
66.500        70
66.520        23
66.540        30
66.560        37
66.580        30
66.600        60
66.620        27
66.640        53
66.660        50
66.680        40
66.700        37
66.720        50
66.740        37
66.760        17
66.780        37
66.800        27
66.820        53
66.840        90
66.860        43
66.880        37
66.900        37
66.920        30
66.940        37
66.960        47
66.980        33
67.000        30
67.020        30
67.040        43
67.060        43
67.080        43
67.100        63
67.120        57
67.140        30
67.160        53
67.180        37
67.200        30
67.220        23
67.240        20
67.260        40
67.280        33
67.300        43
67.320        50
67.340        63
67.360        57
67.380        73
67.400        60
67.420        53
67.440        43
67.460        47
67.480        67
67.500        77
67.520        87
67.540       107
67.560        60
67.580        80
67.600        90
67.620        63
67.640        83
67.660        53
67.680        47
67.700        87
67.720        83
67.740        77
67.760        53
67.780        53
67.800        50
67.820        63
67.840        63
67.860        33
67.880        77
67.900        60
67.920        57
67.940        57
67.960        43
67.980        47
68.000        37
68.020        40
68.040        40
68.060        53
68.080        33
68.100        50
68.120        27
68.140        43
68.160        33
68.180        33
68.200        37
68.220        33
68.240        13
68.260        40
68.280        20
68.300        30
68.320        53
68.340        50
68.360        50
68.380        27
68.400        60
68.420        43
68.440        47
68.460        40
68.480        30
68.500        37
68.520        33
68.540        20
68.560        13
68.580        53
68.600        27
68.620        50
68.640        33
68.660        13
68.680        33
68.700        23
68.720        57
68.740        57
68.760        27
68.780        27
68.800        33
68.820        13
68.840        30
68.860        27
68.880        23
68.900        40
68.920        50
68.940        10
68.960        43
68.980        27
69.000        53
69.020        50
69.040        17
69.060        27
69.080        27
69.100        57
69.120        37
69.140        43
69.160        40
69.180        67
69.200        27
69.220        33
69.240        37
69.260        37
69.280        37
69.300        37
69.320        40
69.340        37
69.360        27
69.380        43
69.400        27
69.420        13
69.440        40
69.460        50
69.480        27
69.500        43
69.520        37
69.540        23
69.560        33
69.580        40
69.600        23
69.620        47
69.640        37
69.660        37
69.680        37
69.700        37
69.720        20
69.740        23
69.760        37
69.780        53
69.800        30
69.820        33
69.840        60
69.860        27
69.880        43
69.900        43
69.920        30
69.940        23
69.960        40
69.980        37
70.000        33
70.020        23
70.040        17
70.060        27
70.080        33
70.100        47
70.120        17
70.140        33
70.160        27
70.180        33
70.200        23
70.220        23
70.240        33
70.260        20
70.280        20
70.300        27
70.320        30
70.340        27
70.360        33
70.380        43
70.400        47
70.420        40
70.440        20
70.460        30
70.480        37
70.500        27
70.520        33
70.540        30
70.560        33
70.580        27
70.600        20
70.620        33
70.640        33
70.660        27
70.680        47
70.700        43
70.720        27
70.740        57
70.760        30
70.780        33
70.800        47
70.820        27
70.840        47
70.860        30
70.880        30
70.900        33
70.920        33
70.940        30
70.960        37
70.980        37
71.000        37
71.020        33
71.040        43
71.060        30
71.080        53
71.100        20
71.120        40
71.140        40
71.160        23
71.180        40
71.200        37
71.220        30
71.240        27
71.260        23
71.280        33
71.300        20
71.320        30
71.340        30
71.360        50
71.380        27
71.400        37
71.420        23
71.440        27
71.460        17
71.480        37
71.500        43
71.520        37
71.540        33
71.560        37
71.580        27
71.600        60
71.620        40
71.640        43
71.660        30
71.680        30
71.700        40
71.720        30
71.740        43
71.760        43
71.780        27
71.800        40
71.820        30
71.840        27
71.860        23
71.880        37
71.900        20
71.920        33
71.940        30
71.960        27
71.980        27
72.000        30
72.020        33
72.040        40
72.060        37
72.080        30
72.100        57
72.120        40
72.140        37
72.160        23
72.180        20
72.200        27
72.220        27
72.240        40
72.260        33
72.280        43
72.300        27
72.320        40
72.340        33
72.360        37
72.380        30
72.400        30
72.420        33
72.440        40
72.460        43
72.480        33
72.500        20
72.520        37
72.540        23
72.560        40
72.580        40
72.600        37
72.620        30
72.640        17
72.660        27
72.680        37
72.700        37
72.720        37
72.740        40
72.760        33
72.780        47
72.800        20
72.820        27
72.840        33
72.860        23
72.880        27
72.900        27
72.920        10
72.940        43
72.960        27
72.980        23
73.000        37
73.020        40
73.040        50
73.060        23
73.080        63
73.100        30
73.120        33
73.140        57
73.160        40
73.180        23
73.200        40
73.220        27
73.240        27
73.260        23
73.280        30
73.300        33
73.320        47
73.340        23
73.360        40
73.380        33
73.400        27
73.420        47
73.440        37
73.460        43
73.480        33
73.500        37
73.520        50
73.540        37
73.560        23
73.580        40
73.600        43
73.620        43
73.640        33
73.660        33
73.680        43
73.700        37
73.720        87
73.740        70
73.760       100
73.780        90
73.800        73
73.820        90
73.840        23
73.860        40
73.880        37
73.900        50
73.920        30
73.940        23
73.960        50
73.980        33
74.000        40
74.020        40
74.040        50
74.060        33
74.080        47
74.100        30
74.120        27
74.140        20
74.160        13
74.180        33
74.200        30
74.220        37
74.240        23
74.260        33
74.280        43
74.300        23
74.320        27
74.340        27
74.360        30
74.380        17
74.400        33
74.420        40
74.440        27
74.460         7
74.480        47
74.500        43
74.520        33
74.540        57
74.560        23
74.580        27
74.600        30
74.620        50
74.640        33
74.660        30
74.680        33
74.700        30
74.720        33
74.740        40
74.760        33
74.780        30
74.800        47
74.820        30
74.840        37
74.860        47
74.880        30
74.900        30
74.920        37
74.940        23
74.960        47
74.980        33
75.000        27
75.020        37
75.040        40
75.060        63
75.080        60
75.100        43
75.120        23
75.140        23
75.160        23
75.180         3
75.200        33
75.220        33
75.240        20
75.260        27
75.280        43
75.300        13
75.320        27
75.340        23
75.360        40
75.380        30
75.400        10
75.420        20
75.440         7
75.460        50
75.480        47
75.500        33
75.520        40
75.540        40
75.560        40
75.580        30
75.600        20
75.620        50
75.640        30
75.660        13
75.680        40
75.700        37
75.720        20
75.740        40
75.760        30
75.780        33
75.800        40
75.820        27
75.840        47
75.860        37
75.880        37
75.900        43
75.920        33
75.940        33
75.960        63
75.980        23
76.000        30
76.020        53
76.040        23
76.060        13
76.080        23
76.100        50
76.120        27
76.140        40
76.160        57
76.180        40
76.200        50
76.220        27
76.240        33
76.260        57
76.280        53
76.300        53
76.320        30
76.340        33
76.360        40
76.380        43
76.400        37
76.420        50
76.440        33
76.460        30
76.480        30
76.500        70
76.520        47
76.540        50
76.560        57
76.580        50
76.600        40
76.620        60
76.640        63
76.660        60
76.680        57
76.700        53
76.720        47
76.740        50
76.760        63
76.780        40
76.800        33
76.820        60
76.840        47
76.860        63
76.880        47
76.900        30
76.920        43
76.940        57
76.960        30
76.980        47
77.000        53
77.020        23
77.040        47
77.060        20
77.080        37
77.100        33
77.120        47
77.140        20
77.160        17
77.180        53
77.200        37
77.220        50
77.240        23
77.260        47
77.280        50
77.300        53
77.320        30
77.340        47
77.360        40
77.380        33
77.400        30
77.420        23
77.440        30
77.460        27
77.480        23
77.500        27
77.520        30
77.540        40
77.560        20
77.580        27
77.600        53
77.620        33
77.640        33
77.660        30
77.680        13
77.700        33
77.720        33
77.740        50
77.760        30
77.780        43
77.800        30
77.820        63
77.840        17
77.860        33
77.880        33
77.900        57
77.920        33
77.940        43
77.960        50
77.980        40
78.000        40
78.020        40
78.040        20
78.060        47
78.080        43
78.100        20
78.120        33
78.140        23
78.160        43
78.180        27
78.200        37
78.220        27
78.240        40
78.260        23
78.280        47
78.300        30
78.320        40
78.340        37
78.360        37
78.380        33
78.400        30
78.420        20
78.440        20
78.460        23
78.480        20
78.500        50
78.520        53
78.540        27
78.560        50
78.580        30
78.600        37
78.620        27
78.640        37
78.660        30
78.680        30
78.700        37
78.720        27
78.740         7
78.760        30
78.780        47
78.800        40
78.820        23
78.840        23
78.860        30
78.880        27
78.900        30
78.920        33
78.940        30
78.960        33
78.980        30
79.000        53
79.020        30
79.040        23
79.060        37
79.080        30
79.100        33
79.120        40
79.140        27
79.160        27
79.180        33
79.200        40
79.220        47
79.240        27
79.260        33
79.280        47
79.300        30
79.320        37
79.340        17
79.360        30
79.380        30
79.400        13
79.420        30
79.440        30
79.460        43
79.480        27
79.500        20
79.520        20
79.540        33
79.560        37
79.580        23
79.600        53
79.620        27
79.640        37
79.660        43
79.680        33
79.700        37
79.720        27
79.740        20
79.760        27
79.780        40
79.800        27
79.820        30
79.840        50
79.860        43
79.880        43
79.900        33
79.920        20
79.940        27
79.960        37
79.980        60
80.000        50
80.020        37
80.040        53
80.060        53
80.080        53
80.100        57
80.120        23
80.140        33
80.160        53
80.180        27
80.200        30
80.220        73
80.240        50
80.260        27
80.280        40
80.300        37
80.320        30
80.340        23
80.360        37
80.380        27
80.400        40
80.420        30
80.440        37
80.460        63
80.480        53
80.500        50
80.520        33
80.540        50
80.560        27
80.580        33
80.600        40
80.620        47
80.640        57
80.660        37
80.680        33
80.700        50
80.720        40
80.740        33
80.760        30
80.780        50
80.800        60
80.820        60
80.840        50
80.860        30
80.880        53
80.900        40
80.920        50
80.940        60
80.960        53
80.980        73
81.000        43
81.020        60
81.040        67
81.060        53
81.080        30
81.100        73
81.120        83
81.140        50
81.160        57
81.180        60
81.200        73
81.220        77
81.240        47
81.260        93
81.280        67
81.300        63
81.320        73
81.340       107
81.360        87
81.380       123
81.400       130
81.420        63
81.440        73
81.460       110
81.480       123
81.500       113
81.520        93
81.540        80
81.560       117
81.580        77
81.600       120
81.620       117
81.640        93
81.660        87
81.680       107
81.700        57
81.720        70
81.740       107
81.760        67
81.780        80
81.800        57
81.820        70
81.840        50
81.860        57
81.880        67
81.900        47
81.920        57
81.940        50
81.960        57
81.980        27
82.000        57
82.020        47
82.040        73
82.060        37
82.080        40
82.100        73
82.120        67
82.140        43
82.160        43
82.180        43
82.200        50
82.220        57
82.240        77
82.260        70
82.280        60
82.300        63
82.320        47
82.340        60
82.360        23
82.380        50
82.400        53
82.420        53
82.440        53
82.460        50
82.480        53
82.500        57
82.520        67
82.540        80
82.560        60
82.580        63
82.600        43
82.620        47
82.640        53
82.660        57
82.680        60
82.700        87
82.720        87
82.740       100
82.760        83
82.780        97
82.800       147
82.820        73
82.840       110
82.860       107
82.880       120
82.900        93
82.920       140
82.940       100
82.960       147
82.980       107
83.000       140
83.020        93
83.040       160
83.060       197
83.080       277
83.100       360
83.120       393
83.140       673
83.160      1140
83.180      2439
83.200      4715
83.220      6194
83.240      6844
83.260      5628
83.280      3142
83.300      1679
83.320      1016
83.340       703
83.360       610
83.380       583
83.400       706
83.420       936
83.440      1656
83.460      2536
83.480      3129
83.500      2922
83.520      2709
83.540      1423
83.560       830
83.580       480
83.600       387
83.620       310
83.640       233
83.660       187
83.680       173
83.700       140
83.720       107
83.740        93
83.760       137
83.780       103
83.800        97
83.820        87
83.840       103
83.860        57
83.880        83
83.900        67
83.920        67
83.940        47
83.960        57
83.980        57
84.000        50
84.020        80
84.040        70
84.060        63
84.080        70
84.100        47
84.120        70
84.140        63
84.160        77
84.180        80
84.200        50
84.220        77
84.240        27
84.260        63
84.280        83
84.300        47
84.320        47
84.340        63
84.360        53
84.380        67
84.400        77
84.420        40
84.440        57
84.460        47
84.480        57
84.500        37
84.520        60
84.540        70
84.560        57
84.580        43
84.600        77
84.620        73
84.640        50
84.660        60
84.680        80
84.700        77
84.720        60
84.740        90
84.760        63
84.780        87
84.800        47
84.820        60
84.840        57
84.860        57
84.880        60
84.900        57
84.920        70
84.940        50
84.960        73
84.980        77
85.000        40
85.020        77
85.040        67
85.060        77
85.080        67
85.100        70
85.120        83
85.140        87
85.160        83
85.180        80
85.200       117
85.220        80
85.240       130
85.260       103
85.280       103
85.300       117
85.320        90
85.340       103
85.360       133
85.380       147
85.400       123
85.420        93
85.440       190
85.460       177
85.480       177
85.500       197
85.520       217
85.540       227
85.560       243
85.580       247
85.600       293
85.620       360
85.640       367
85.660       436
85.680       536
85.700       440
85.720       610
85.740       646
85.760       713
85.780       746
85.800       866
85.820       970
85.840      1166
85.860      1110
85.880      1220
85.900      1349
85.920      1259
85.940      1106
85.960      1156
85.980      1060
86.000      1090
86.020       996
86.040       913
86.060      1096
86.080       863
86.100       933
86.120       946
86.140       863
86.160       780
86.180       823
86.200       650
86.220       636
86.240       656
86.260       450
86.280       533
86.300       466
86.320       407
86.340       330
86.360       310
86.380       313
86.400       220
86.420       253
86.440       233
86.460       197
86.480       190
86.500       147
86.520       170
86.540       147
86.560       107
86.580       110
86.600       133
86.620       130
86.640        97
86.660       107
86.680        93
86.700        83
86.720        90
86.740        63
86.760        83
86.780        63
86.800        83
86.820        83
86.840        83
86.860        60
86.880        80
86.900        63
86.920        70
86.940        70
86.960        53
86.980        57
87.000        80
87.020        63
87.040        60
87.060        57
87.080        43
87.100        60
87.120        43
87.140        43
87.160        73
87.180        50
87.200        23
87.220        30
87.240        50
87.260        50
87.280        33
87.300        50
87.320        57
87.340        77
87.360        60
87.380        50
87.400        50
87.420        50
87.440        57
87.460        40
87.480        47
87.500        37
87.520        73
87.540        57
87.560        17
87.580        47
87.600        60
87.620        63
87.640        37
87.660        33
87.680        50
87.700        53
87.720        23
87.740        50
87.760        60
87.780        43
87.800        50
87.820        53
87.840        57
87.860        33
87.880        53
87.900        63
87.920        70
87.940        37
87.960        40
87.980        57
88.000        33
88.020        70
88.040        43
88.060        30
88.080        53
88.100        70
88.120        40
88.140        90
88.160        57
88.180        37
88.200        63
88.220        43
88.240        40
88.260        43
88.280        43
88.300        53
88.320        30
88.340        40
88.360        47
88.380        37
88.400        60
88.420        57
88.440        63
88.460        40
88.480        60
88.500        37
88.520        60
88.540        37
88.560        50
88.580        63
88.600        33
88.620        50
88.640        57
88.660        53
88.680        43
88.700        40
88.720        43
88.740        47
88.760        27
88.780        27
88.800        53
88.820        33
88.840        47
88.860        53
88.880        47
88.900        30
88.920        60
88.940        30
88.960        30
88.980        40
89.000        43
89.020        50
89.040        67
89.060        23
89.080        37
89.100        33
89.120        50
89.140        40
89.160        57
89.180        47
89.200        57
89.220        40
89.240        33
89.260        60
89.280        50
89.300        70
89.320        37
89.340        60
89.360        47
89.380        53
89.400        43
89.420        43
89.440        53
89.460        60
89.480        40
89.500        33
89.520        43
89.540        60
89.560        20
89.580        13
89.600        37
89.620        47
89.640        53
89.660        23
89.680        47
89.700        37
89.720        17
89.740        43
89.760        43
89.780        30
89.800        37
89.820        53
89.840        33
89.860        33
89.880        30
89.900        17
89.920        37
89.940        53
89.960        40
89.980        70
90.000        47
