20.000        40
20.020        40
20.040        67
20.060        80
20.080        87
20.100       100
20.120        73
20.140       100
20.160        67
20.180        73
20.200        60
20.220        47
20.240        53
20.260       120
20.280        60
20.300        47
20.320        87
20.340       100
20.360        80
20.380        67
20.400        67
20.420        53
20.440        67
20.460       100
20.480        67
20.500       120
20.520       100
20.540        80
20.560        93
20.580       100
20.600       100
20.620        73
20.640        60
20.660        53
20.680        40
20.700        93
20.720       107
20.740       113
20.760        93
20.780       107
20.800        67
20.820        67
20.840        87
20.860       100
20.880        93
20.900        80
20.920        67
20.940        67
20.960       113
20.980        67
21.000        67
21.020        73
21.040        73
21.060       100
21.080       113
21.100        80
21.120       127
21.140        80
21.160        87
21.180       120
21.200       160
21.220       147
21.240       173
21.260       140
21.280       200
21.300       133
21.320       153
21.340        93
21.360       147
21.380       227
21.400       160
21.420       153
21.440       227
21.460       180
21.480       167
21.500       167
21.520       180
21.540       173
21.560       133
21.580       127
21.600       140
21.620       127
21.640       113
21.660        80
21.680        47
21.700       100
21.720       100
21.740        67
21.760        87
21.780       120
21.800        93
21.820       100
21.840       127
21.860        80
21.880        87
21.900       100
21.920        80
21.940        87
21.960       120
21.980       113
22.000       120
22.020        40
22.040        87
22.060        73
22.080        73
22.100        67
22.120        53
22.140        73
22.160        40
22.180        73
22.200        87
22.220        87
22.240        73
22.260        80
22.280       113
22.300        73
22.320        60
22.340       100
22.360        47
22.380        93
22.400        53
22.420        80
22.440       100
22.460        80
22.480        67
22.500        73
22.520        60
22.540       120
22.560        53
22.580        80
22.600        67
22.620        40
22.640        87
22.660        73
22.680        73
22.700        67
22.720       113
22.740        60
22.760        60
22.780        87
22.800        80
22.820       100
22.840        73
22.860        87
22.880        60
22.900        33
22.920        67
22.940        47
22.960        80
22.980        87
23.000        40
23.020        80
23.040        60
23.060         0
23.080        33
23.100        73
23.120        93
23.140        80
23.160        60
23.180        53
23.200       113
23.220        80
23.240        20
23.260        33
23.280        87
23.300        47
23.320        93
23.340        53
23.360        60
23.380        53
23.400       107
23.420        80
23.440        60
23.460        73
23.480        47
23.500        67
23.520       107
23.540        80
23.560        87
23.580        40
23.600        47
23.620        53
23.640        33
23.660        67
23.680        33
23.700        80
23.720        67
23.740        27
23.760        53
23.780        60
23.800       100
23.820        27
23.840        47
23.860        60
23.880        47
23.900        53
23.920        40
23.940        33
23.960        47
23.980        73
24.000        53
24.020        33
24.040        33
24.060        87
24.080        80
24.100        40
24.120        27
24.140        40
24.160        60
24.180        40
24.200        33
24.220        73
24.240        60
24.260        27
24.280        67
24.300        47
24.320        20
24.340        53
24.360        87
24.380        87
24.400        73
24.420        27
24.440        73
24.460        40
24.480        60
24.500        67
24.520        60
24.540        53
24.560       100
24.580        53
24.600        67
24.620        47
24.640        67
24.660        73
24.680        47
24.700        47
24.720        47
24.740        67
24.760        60
24.780        73
24.800        60
24.820        33
24.840        20
24.860        33
24.880        67
24.900        47
24.920        73
24.940        67
24.960        73
24.980        53
25.000        53
25.020        87
25.040        67
25.060        80
25.080        27
25.100        33
25.120        33
25.140        40
25.160        67
25.180        73
25.200        87
25.220        60
25.240        53
25.260        93
25.280        67
25.300        87
25.320        67
25.340        60
25.360        60
25.380        73
25.400        47
25.420        80
25.440        80
25.460       107
25.480        60
25.500       120
25.520       173
25.540       327
25.560       400
25.580       486
25.600       486
25.620       473
25.640       466
25.660       247
25.680       147
25.700       187
25.720       107
25.740        53
25.760        87
25.780        87
25.800        73
25.820        60
25.840        40
25.860        33
25.880        40
25.900        40
25.920        20
25.940        73
25.960        67
25.980        47
26.000        47
26.020        47
26.040        80
26.060        53
26.080        53
26.100        80
26.120        87
26.140        67
26.160        47
26.180        80
26.200        93
26.220        27
26.240        27
26.260        53
26.280        53
26.300        20
26.320        60
26.340        60
26.360        33
26.380        67
26.400        40
26.420        13
26.440        53
26.460        87
26.480        73
26.500        47
26.520        47
26.540        67
26.560        33
26.580        33
26.600        73
26.620        53
26.640        47
26.660        73
26.680        53
26.700        73
26.720        53
26.740        47
26.760        13
26.780        80
26.800        73
26.820        67
26.840        20
26.860        13
26.880        33
26.900        20
26.920        40
26.940        40
26.960       100
26.980        47
27.000        20
27.020        53
27.040        60
27.060        13
27.080        53
27.100        40
27.120        20
27.140        47
27.160        53
27.180        33
27.200        73
27.220        53
27.240        60
27.260        27
27.280        40
27.300        60
27.320         7
27.340        40
27.360        27
27.380        40
27.400        53
27.420         7
27.440        67
27.460        47
27.480        47
27.500        47
27.520        67
27.540        67
27.560        47
27.580        27
27.600        60
27.620        47
27.640        40
27.660        33
27.680        67
27.700        47
27.720        47
27.740        27
27.760        53
27.780        53
27.800        53
27.820        67
27.840        33
27.860        47
27.880        60
27.900        47
27.920        73
27.940        73
27.960        20
27.980        33
28.000        60
28.020        60
28.040        33
28.060        40
28.080        40
28.100        27
28.120        53
28.140        33
28.160        67
28.180        47
28.200        40
28.220        40
28.240        40
28.260        33
28.280        27
28.300        67
28.320        73
28.340        67
28.360        60
28.380        40
28.400        13
28.420        33
28.440        47
28.460        53
28.480        40
28.500        27
28.520        40
28.540        53
28.560        67
28.580        27
28.600        73
28.620        47
28.640        27
28.660        80
28.680        40
28.700        13
28.720        27
28.740        20
28.760        33
28.780        60
28.800        40
28.820        40
28.840        27
28.860        47
28.880        27
28.900        53
28.920        73
28.940        60
28.960        53
28.980        40
29.000        73
29.020        60
29.040        33
29.060        47
29.080        47
29.100        33
29.120        40
29.140        33
29.160        27
29.180        53
29.200        40
29.220        60
29.240        47
29.260        47
29.280        33
29.300        27
29.320        20
29.340        53
29.360        53
29.380        60
29.400        40
29.420        47
29.440        47
29.460        53
29.480        67
29.500        33
29.520        40
29.540        40
29.560        53
29.580        53
29.600        33
29.620        73
29.640        47
29.660        73
29.680        80
29.700        60
29.720        53
29.740        27
29.760        40
29.780        47
29.800        53
29.820        27
29.840        47
29.860        47
29.880        33
29.900        60
29.920        33
29.940        60
29.960        73
29.980        47
30.000        73
30.020        27
30.040        53
30.060        53
30.080        40
30.100        53
30.120        73
30.140        40
30.160        53
30.180        73
30.200        47
30.220        27
30.240       100
30.260        47
30.280        47
30.300        73
30.320        33
30.340        67
30.360        47
30.380        80
30.400       113
30.420        80
30.440       113
30.460       187
30.480       100
30.500        93
30.520        93
30.540       173
30.560       107
30.580       160
30.600       140
30.620       167
30.640       107
30.660       153
30.680       127
30.700       153
30.720       133
30.740       120
30.760       133
30.780       113
30.800       113
30.820       120
30.840        80
30.860        53
30.880        73
30.900        60
30.920        53
30.940        93
30.960       120
30.980        53
31.000        60
31.020       107
31.040        73
31.060       100
31.080        67
31.100        93
31.120        60
31.140        60
31.160        87
31.180        47
31.200        60
31.220        60
31.240        60
31.260        47
31.280        53
31.300        47
31.320        73
31.340        73
31.360        53
31.380        93
31.400        80
31.420        87
31.440       107
31.460        47
31.480        67
31.500        80
31.520        73
31.540       100
31.560        60
31.580        27
31.600        60
31.620        33
31.640        80
31.660        47
31.680        53
31.700        53
31.720        33
31.740        53
31.760        47
31.780        40
31.800        67
31.820        27
31.840        33
31.860        47
31.880        93
31.900        60
31.920        47
31.940        53
31.960        13
31.980        33
32.000        27
32.020        53
32.040        20
32.060         0
32.080        33
32.100        67
32.120        33
32.140        33
32.160        53
32.180        13
32.200        67
32.220        87
32.240        40
32.260        53
32.280        33
32.300        60
32.320        33
32.340        60
32.360        53
32.380        60
32.400        20
32.420        40
32.440        40
32.460        20
32.480        73
32.500        27
32.520        33
32.540         7
32.560        40
32.580        53
32.600        60
32.620        13
32.640        33
32.660        27
32.680        40
32.700        33
32.720        33
32.740        13
32.760        20
32.780        33
32.800        53
32.820        27
32.840        60
32.860        47
32.880        47
32.900        40
32.920        33
32.940        53
32.960        13
32.980        53
33.000        47
33.020        33
33.040        53
33.060        33
33.080        73
33.100        40
33.120        40
33.140        53
33.160        53
33.180        20
33.200        27
33.220        33
33.240        20
33.260        60
33.280        40
33.300        33
33.320        53
33.340        67
33.360        20
33.380        20
33.400        20
33.420        40
33.440        47
33.460        47
33.480        27
33.500        40
33.520        67
33.540        33
33.560        73
33.580        33
33.600        20
33.620        33
33.640        33
33.660        40
33.680        13
33.700        47
33.720        40
33.740        20
33.760        80
33.780        47
33.800        53
33.820        80
33.840        33
33.860        60
33.880        27
33.900        47
33.920         7
33.940        20
33.960        60
33.980        27
34.000        20
34.020        33
34.040        33
34.060        47
34.080        40
34.100        60
34.120        40
34.140         7
34.160        20
34.180        73
34.200        53
34.220        20
34.240        73
34.260        13
34.280        53
34.300        40
34.320        40
34.340        67
34.360        67
34.380        47
34.400        40
34.420        27
34.440        73
34.460        27
34.480        27
34.500        40
34.520        27
34.540        20
34.560        33
34.580        27
34.600        53
34.620        40
34.640        47
34.660        53
34.680        33
34.700        27
34.720        73
34.740        27
34.760        33
34.780        60
34.800        73
34.820        33
34.840        40
34.860        27
34.880        53
34.900        53
34.920        67
34.940        67
34.960        87
34.980       107
35.000       107
35.020        93
35.040       100
35.060       120
35.080       193
35.100       373
35.120       626
35.140      1060
35.160      1446
35.180      1679
35.200      1266
35.220       960
35.240       806
35.260       760
35.280       800
35.300       573
35.320       200
35.340       100
35.360        80
35.380        80
35.400        93
35.420        73
35.440        20
35.460       113
35.480        73
35.500        40
35.520        80
35.540        40
35.560        13
35.580        27
35.600        60
35.620         7
35.640        27
35.660        40
35.680        40
35.700        67
35.720        33
35.740        20
35.760        53
35.780        80
35.800        20
35.820        27
35.840        47
35.860        20
35.880        53
35.900        27
35.920        40
35.940        47
35.960        53
35.980        40
36.000        40
36.020        53
36.040        20
36.060        20
36.080         7
36.100        47
36.120        13
36.140        33
36.160        40
36.180        27
36.200        67
36.220        27
36.240        53
36.260        33
36.280        53
36.300        53
36.320        20
36.340        33
36.360        60
36.380        27
36.400        33
36.420        13
36.440        27
36.460        20
36.480        60
36.500        40
36.520        53
36.540        27
36.560        27
36.580        20
36.600        40
36.620        47
36.640        47
36.660        13
36.680        20
36.700        27
36.720        27
36.740        60
36.760        80
36.780        60
36.800        33
36.820        27
36.840        33
36.860        13
36.880        53
36.900         7
36.920        80
36.940        27
36.960        60
36.980        47
37.000        87
37.020        40
37.040        60
37.060        40
37.080        13
37.100        67
37.120         7
37.140        80
37.160        33
37.180        47
37.200        40
37.220        40
37.240        47
37.260        40
37.280        40
37.300        47
37.320        80
37.340        40
37.360        53
37.380        20
37.400        47
37.420        47
37.440        33
37.460        53
37.480        87
37.500        60
37.520        60
37.540        53
37.560        93
37.580        87
37.600        67
37.620        80
37.640        40
37.660        87
37.680       140
37.700       100
37.720       127
37.740       173
37.760       426
37.780       580
37.800       740
37.820       820
37.840       506
37.860       387
37.880       420
37.900       493
37.920       353
37.940       267
37.960       120
37.980       120
38.000        80
38.020        60
38.040        40
38.060        60
38.080        47
38.100        47
38.120        40
38.140        27
38.160         7
38.180        80
38.200        27
38.220        73
38.240        40
38.260        60
38.280        40
38.300        40
38.320        67
38.340        33
38.360        40
38.380        47
38.400        53
38.420        40
38.440        27
38.460        47
38.480        53
38.500        33
38.520        40
38.540        60
38.560        27
38.580        40
38.600        47
38.620        40
38.640        47
38.660        47
38.680        20
38.700        20
38.720        33
38.740        67
38.760        20
38.780        33
38.800        67
38.820        47
38.840        47
38.860        53
38.880        33
38.900        13
38.920        27
38.940        40
38.960        80
38.980        27
39.000        27
39.020        60
39.040        67
39.060        60
39.080        73
39.100         7
39.120        27
39.140        33
39.160        53
39.180        47
39.200        47
39.220        13
39.240        20
39.260        20
39.280        33
39.300        33
39.320        40
39.340        40
39.360        27
39.380        20
39.400        20
39.420        20
39.440        13
39.460        40
39.480        40
39.500        33
39.520        33
39.540         7
39.560        33
39.580        40
39.600        33
39.620        33
39.640        20
39.660        47
39.680        20
39.700        33
39.720        20
39.740        40
39.760        27
39.780        33
39.800         7
39.820        33
39.840        47
39.860        20
39.880        40
39.900        40
39.920        13
39.940        40
39.960        47
39.980        27
40.000        53
40.020        33
40.040        47
40.060        33
40.080        27
40.100        40
40.120        27
40.140        33
40.160        20
40.180        33
40.200        20
40.220        20
40.240         7
40.260        20
40.280        53
40.300        33
40.320        40
40.340        53
40.360        27
40.380        33
40.400        13
40.420        13
40.440        40
40.460        20
40.480        27
40.500        53
40.520        33
40.540        33
40.560         7
40.580        33
40.600        20
40.620        27
40.640        27
40.660        33
40.680        40
40.700        47
40.720        27
40.740        53
40.760        20
40.780        33
40.800         7
40.820        47
40.840        27
40.860        27
40.880        20
40.900        40
40.920        33
40.940        53
40.960        33
40.980        47
41.000        73
41.020        47
41.040        33
41.060        40
41.080        20
41.100        20
41.120        40
41.140        33
41.160        33
41.180        33
41.200        20
41.220        33
41.240        20
41.260        53
41.280        20
41.300        40
41.320        13
41.340        33
41.360        27
41.380        40
41.400        53
41.420        13
41.440        60
41.460         7
41.480        20
41.500        53
41.520        40
41.540        87
41.560        33
41.580        47
41.600        47
41.620        67
41.640        87
41.660       147
41.680       320
41.700       387
41.720       247
41.740       133
41.760       140
41.780       200
41.800       127
41.820       167
41.840       120
41.860       113
41.880        67
41.900        67
41.920       100
41.940        27
41.960        73
41.980        60
42.000        20
42.020        47
42.040        67
42.060        53
42.080         7
42.100        40
42.120        47
42.140        40
42.160        13
42.180        20
42.200        47
42.220        33
42.240        47
42.260        27
42.280        67
42.300        53
42.320        53
42.340        40
42.360        80
42.380        60
42.400        60
42.420        27
42.440        20
42.460        47
42.480        47
42.500        27
42.520        60
42.540        67
42.560        47
42.580        33
42.600        87
42.620        47
42.640        33
42.660        47
42.680        20
42.700       107
42.720        80
42.740        33
42.760        80
42.780        33
42.800        80
42.820       147
42.840        60
42.860        67
42.880        53
42.900       113
42.920        80
42.940        47
42.960        93
42.980        67
43.000        80
43.020       113
43.040       140
43.060        73
43.080       153
43.100       127
43.120       127
43.140       120
43.160       153
43.180       173
43.200       173
43.220       193
43.240       240
43.260       213
43.280       247
43.300       240
43.320       420
43.340       513
43.360       746
43.380       860
43.400       733
43.420       546
43.440       440
43.460       566
43.480       520
43.500       620
43.520       413
43.540       313
43.560       247
43.580       213
43.600       187
43.620       280
43.640       220
43.660       200
43.680       240
43.700       207
43.720       253
43.740       160
43.760       153
43.780       173
43.800       193
43.820       133
43.840       200
43.860       107
43.880       127
43.900       140
43.920        87
43.940       113
43.960        73
43.980       153
44.000        93
44.020        47
44.040       113
44.060        73
44.080        87
44.100       127
44.120        47
44.140        80
44.160       113
44.180        67
44.200       100
44.220        93
44.240        47
44.260       120
44.280        67
44.300        80
44.320        87
44.340        47
44.360        47
44.380        67
44.400        60
44.420        67
44.440        87
44.460        87
44.480        73
44.500        93
44.520        60
44.540        47
44.560        80
44.580        60
44.600        47
44.620        47
44.640        27
44.660        60
44.680        40
44.700        93
44.720        40
44.740        33
44.760        87
44.780        27
44.800        53
44.820        13
44.840        40
44.860        53
44.880        67
44.900        60
44.920        40
44.940        33
44.960        60
44.980        33
45.000        40
45.020        33
45.040        27
45.060        73
45.080        40
45.100        33
45.120        73
45.140        53
45.160        47
45.180        13
45.200        60
45.220        60
45.240        40
45.260        53
45.280        20
45.300        20
45.320        60
45.340        33
45.360        40
45.380        27
45.400        33
45.420        33
45.440        47
45.460        60
45.480        40
45.500        33
45.520        40
45.540         7
45.560        27
45.580        53
45.600        40
45.620        20
45.640        20
45.660        20
45.680        33
45.700        20
45.720        40
45.740        27
45.760        53
45.780        40
45.800        13
45.820        27
45.840        27
45.860         7
45.880        33
45.900        40
45.920        27
45.940         7
45.960        47
45.980        40
46.000        40
46.020        13
46.040        27
46.060        27
46.080        27
46.100        27
46.120        13
46.140        27
46.160        27
46.180        20
46.200        27
46.220        33
46.240        40
46.260        20
46.280        53
46.300        40
46.320        53
46.340        27
46.360        47
46.380        40
46.400        47
46.420        40
46.440        20
46.460        53
46.480        20
46.500         0
46.520        20
46.540        13
46.560        33
46.580        33
46.600        27
46.620        27
46.640        33
46.660        33
46.680        20
46.700        40
46.720        27
46.740        20
46.760        20
46.780        67
46.800        33
46.820        40
46.840        40
46.860        47
46.880        20
46.900        40
46.920        33
46.940        33
46.960        20
46.980        27
47.000        13
47.020         7
47.040        27
47.060        27
47.080        20
47.100        20
47.120        20
47.140        13
47.160        13
47.180        27
47.200        27
47.220        27
47.240        40
47.260        13
47.280        27
47.300        33
47.320        20
47.340         7
47.360         7
47.380        40
47.400        33
47.420        20
47.440         7
47.460        20
47.480         7
47.500        20
47.520        33
47.540        27
47.560        33
47.580        27
47.600        27
47.620        13
47.640        40
47.660        20
47.680        40
47.700        20
47.720        33
47.740        20
47.760        47
47.780         7
47.800        33
47.820        27
47.840        27
47.860        20
47.880        13
47.900        13
47.920        47
47.940        13
47.960        40
47.980         7
48.000        40
48.020        33
48.040        40
48.060        20
48.080        27
48.100        20
48.120        33
48.140        27
48.160        33
48.180        33
48.200        20
48.220        47
48.240        27
48.260        20
48.280        27
48.300        27
48.320         7
48.340         7
48.360        13
48.380        33
48.400         7
48.420        20
48.440         7
48.460        20
48.480        40
48.500        33
48.520        20
48.540        33
48.560        33
48.580        13
48.600         7
48.620        13
48.640        20
48.660        27
48.680        13
48.700        27
48.720        20
48.740        40
48.760        27
48.780         7
48.800         7
48.820        40
48.840        20
48.860        47
48.880         7
48.900        20
48.920         0
48.940        40
48.960        13
48.980        47
49.000        13
49.020        20
49.040        27
49.060        13
49.080        33
49.100        20
49.120        27
49.140        13
49.160        13
49.180        13
49.200        20
49.220        27
49.240        13
49.260        33
49.280        13
49.300        20
49.320        20
49.340         0
49.360        13
49.380        20
49.400        27
49.420        27
49.440        33
49.460        33
49.480        40
49.500        13
49.520        20
49.540        33
49.560        33
49.580        20
49.600        27
49.620        20
49.640        20
49.660        20
49.680        13
49.700        27
49.720        27
49.740        13
49.760        20
49.780        33
49.800         7
49.820        20
49.840        27
49.860        13
49.880        13
49.900        20
49.920         0
49.940        33
49.960        20
49.980        20
50.000        27
50.020        13
50.040        33
50.060        20
50.080        20
50.100        40
50.120        13
50.140        47
50.160        47
50.180        13
50.200        20
50.220        27
50.240        13
50.260        27
50.280        60
50.300        13
50.320        40
50.340        20
50.360        20
50.380        20
50.400         7
50.420        20
50.440         7
50.460        20
50.480         7
50.500        47
50.520         7
50.540        27
50.560        13
50.580        13
50.600        20
50.620        27
50.640        13
50.660        33
50.680        33
50.700        27
50.720        33
50.740        20
50.760        20
50.780        20
50.800        47
50.820        20
50.840        13
50.860        33
50.880         0
50.900        33
50.920         0
50.940        33
50.960         0
50.980        27
51.000        20
51.020        33
51.040        13
51.060        27
51.080        13
51.100        27
51.120        33
51.140        27
51.160        27
51.180        33
51.200         7
51.220        27
51.240         7
51.260        13
51.280        53
51.300         7
51.320        13
51.340         0
51.360        33
51.380        40
51.400        33
51.420        13
51.440        33
51.460        20
51.480        33
51.500        33
51.520        27
51.540        40
51.560        27
51.580        33
51.600         7
51.620        27
51.640        13
51.660         0
51.680        20
51.700        13
51.720        13
51.740        13
51.760        13
51.780        13
51.800        27
51.820        27
51.840        20
51.860        13
51.880        33
51.900        20
51.920        27
51.940        60
51.960        60
51.980        27
52.000        33
52.020        20
52.040         7
52.060        33
52.080        33
52.100         7
52.120        47
52.140        20
52.160        20
52.180        53
52.200        20
52.220        13
52.240        33
52.260        13
52.280        20
52.300        13
52.320        40
52.340        33
52.360        40
52.380        33
52.400        60
52.420        40
52.440        60
52.460        40
52.480        53
52.500        47
52.520       140
52.540       273
52.560       333
52.580       400
52.600       426
52.620       267
52.640       127
52.660       100
52.680       207
52.700       160
52.720       233
52.740       280
52.760       220
52.780        93
52.800        40
52.820        53
52.840        80
52.860        13
52.880        13
52.900        47
52.920        33
52.940        20
52.960        27
52.980        20
53.000        27
53.020        40
53.040        20
53.060         0
53.080         7
53.100        20
53.120        20
53.140        20
53.160        20
53.180         7
53.200         7
53.220        40
53.240        47
53.260        33
53.280        27
53.300        27
53.320        13
53.340        13
53.360         0
53.380        13
53.400        13
53.420        27
53.440        40
53.460        20
53.480        13
53.500        27
53.520        27
53.540         7
53.560        27
53.580        33
53.600        33
53.620        20
53.640        33
53.660        27
53.680        13
53.700        27
53.720         7
53.740        60
53.760        13
53.780        27
53.800         7
53.820        13
53.840        13
53.860         7
53.880        27
53.900        13
53.920        40
53.940        13
53.960        13
53.980        20
54.000        33
54.020        27
54.040        20
54.060        27
54.080        73
54.100        33
54.120        13
54.140        13
54.160        40
54.180        53
54.200        53
54.220        47
54.240        53
54.260        20
54.280        73
54.300        40
54.320        47
54.340        73
54.360        47
54.380        27
54.400        53
54.420        13
54.440        27
54.460        53
54.480        73
54.500        13
54.520        13
54.540        53
54.560         7
54.580        40
54.600        27
54.620        40
54.640        60
54.660        73
54.680        40
54.700        27
54.720        33
54.740        60
54.760        20
54.780        40
54.800        27
54.820        27
54.840        40
54.860        40
54.880        40
54.900        33
54.920        60
54.940        47
54.960         7
54.980         7
55.000        20
55.020        13
55.040        33
55.060        40
55.080        33
55.100        33
55.120        20
55.140        20
55.160        20
55.180        40
55.200        20
55.220        27
55.240        13
55.260         7
55.280         0
55.300         7
55.320        13
55.340        20
55.360        27
55.380        20
55.400        20
55.420        33
55.440        47
55.460        27
55.480        33
55.500        47
55.520        40
55.540        47
55.560        47
55.580        47
55.600        33
55.620        20
55.640        40
55.660        27
55.680        13
55.700        27
55.720        33
55.740        40
55.760        20
55.780        27
55.800        40
55.820        13
55.840        33
55.860        27
55.880        20
55.900        27
55.920        27
55.940        33
55.960         7
55.980        20
56.000        20
56.020        20
56.040        20
56.060        20
56.080        40
56.100        40
56.120        20
56.140        33
56.160        33
56.180         0
56.200        20
56.220        13
56.240        47
56.260        27
56.280        40
56.300         7
56.320        33
56.340        20
56.360        40
56.380        33
56.400        13
56.420        33
56.440        60
56.460        20
56.480        13
56.500        47
56.520        13
56.540        20
56.560         0
56.580        47
56.600        13
56.620        20
56.640        27
56.660        13
56.680        13
56.700        33
56.720        13
56.740        13
56.760        13
56.780        27
56.800        33
56.820        20
56.840         7
56.860        40
56.880        27
56.900        40
56.920        13
56.940        40
56.960        13
56.980        20
57.000        13
57.020        20
57.040        60
57.060        20
57.080        27
57.100        20
57.120        40
57.140        40
57.160        20
57.180        20
57.200        60
57.220        47
57.240        13
57.260        53
57.280        67
57.300        40
57.320        73
57.340        40
57.360       107
57.380        73
57.400       107
57.420       140
57.440       187
57.460       360
57.480       640
57.500      1086
57.520      1559
57.540      1439
57.560      1206
57.580       660
57.600       333
57.620       420
57.640       480
57.660       666
57.680       800
57.700       613
57.720       500
57.740       287
57.760       113
57.780       113
57.800        73
57.820        80
57.840        53
57.860        40
57.880        33
57.900        47
57.920        33
57.940         7
57.960         7
57.980        40
58.000        47
58.020        40
58.040        13
58.060        20
58.080        27
58.100        20
58.120        13
58.140        47
58.160        13
58.180         7
58.200         7
58.220         7
58.240        13
58.260        13
58.280        60
58.300        20
58.320        20
58.340        27
58.360        27
58.380        27
58.400        20
58.420        60
58.440        20
58.460        20
58.480         7
58.500        27
58.520        27
58.540        33
58.560         7
58.580        27
58.600        20
58.620        13
58.640         0
58.660        13
58.680        13
58.700        27
58.720        20
58.740        20
58.760        20
58.780         7
58.800         0
58.820         7
58.840         7
58.860         7
58.880        13
58.900         7
58.920        33
58.940         7
58.960        27
58.980        27
59.000        13
59.020         7
59.040        20
59.060        27
59.080        27
59.100        13
59.120         7
59.140        67
59.160        27
59.180        27
59.200        40
59.220        20
59.240         7
59.260        13
59.280        13
59.300        20
59.320        13
59.340        27
59.360         0
59.380        13
59.400        13
59.420         7
59.440        20
59.460        20
59.480        27
59.500        40
59.520        20
59.540        33
59.560        20
59.580        53
59.600        27
59.620         7
59.640        40
59.660        20
59.680        40
59.700        33
59.720        40
59.740        47
59.760        33
59.780        80
59.800        27
59.820        47
59.840        27
59.860        33
59.880        27
59.900         7
59.920        13
59.940        27
59.960        27
59.980         0
60.000         7
