20.000      1000
20.020      1000
20.040      1063
20.060      1083
20.080      1053
20.100      1100
20.120      1120
20.140      1020
20.160       993
20.180      1010
20.200      1026
20.220      1123
20.240       986
20.260      1060
20.280       986
20.300      1156
20.320      1100
20.340       990
20.360      1166
20.380      1126
20.400      1043
20.420      1056
20.440      1040
20.460      1070
20.480      1120
20.500      1116
20.520      1126
20.540      1040
20.560      1143
20.580      1086
20.600       880
20.620      1043
20.640      1003
20.660      1040
20.680      1010
20.700      1000
20.720      1026
20.740      1120
20.760      1020
20.780       950
20.800      1046
20.820      1113
20.840      1083
20.860      1016
20.880      1050
20.900      1083
20.920      1063
20.940      1053
20.960      1006
20.980      1010
21.000      1073
21.020      1043
21.040      1083
21.060      1040
21.080      1030
21.100      1013
21.120      1083
21.140      1026
21.160      1073
21.180       983
21.200      1153
21.220      1146
21.240      1006
21.260       933
21.280       976
21.300      1076
21.320      1030
21.340       996
21.360      1003
21.380       986
21.400      1026
21.420      1033
21.440      1096
21.460       993
21.480      1040
21.500       960
21.520      1010
21.540       990
21.560      1156
21.580       973
21.600       976
21.620      1056
21.640       966
21.660       916
21.680       993
21.700       970
21.720       966
21.740       923
21.760       930
21.780       993
21.800       946
21.820       956
21.840       973
21.860       906
21.880      1013
21.900       956
21.920       953
21.940       980
21.960       926
21.980       876
22.000       940
22.020       996
22.040      1000
22.060      1010
22.080      1013
22.100       920
22.120       986
22.140      1043
22.160      1050
22.180       996
22.200      1043
22.220      1063
22.240      1073
22.260      1070
22.280      1066
22.300      1170
22.320      1216
22.340      1399
22.360      1346
22.380      1519
22.400      1736
22.420      1856
22.440      1976
22.460      2199
22.480      2186
22.500      2322
22.520      2092
22.540      1916
22.560      1763
22.580      1603
22.600      1416
22.620      1319
22.640      1123
22.660      1173
22.680      1000
22.700       936
22.720       993
22.740       913
22.760      1006
22.780       963
22.800       900
22.820       956
22.840       870
22.860       960
22.880       980
22.900       886
22.920       866
22.940       853
22.960       903
22.980       873
23.000      1033
23.020       776
23.040       980
23.060       853
23.080       950
23.100       866
23.120       830
23.140       866
23.160       923
23.180       846
23.200       856
23.220       886
23.240       880
23.260       890
23.280       926
23.300       883
23.320       943
23.340       846
23.360       936
23.380       833
23.400       890
23.420       873
23.440       880
23.460       836
23.480       976
23.500      1173
23.520      1269
23.540      1213
23.560      1240
23.580       923
23.600       903
23.620       943
23.640       856
23.660       723
23.680       903
23.700       873
23.720       850
23.740       866
23.760       786
23.780       810
23.800       753
23.820       866
23.840       863
23.860       833
23.880       720
23.900       876
23.920       800
23.940       800
23.960       780
23.980       850
24.000       816
24.020       780
24.040       736
24.060       733
24.080       886
24.100       783
24.120       733
24.140       653
24.160       830
24.180       736
24.200       693
24.220       723
24.240       703
24.260       860
24.280       790
24.300       766
24.320       833
24.340       733
24.360       673
24.380       726
24.400       746
24.420       726
24.440       680
24.460       756
24.480       713
24.500       760
24.520       666
24.540       710
24.560       650
24.580       703
24.600       730
24.620       673
24.640       743
24.660       670
24.680       623
24.700       676
24.720       743
24.740       686
24.760       706
24.780       653
24.800       736
24.820       703
24.840       626
24.860       586
24.880       646
24.900       643
24.920       716
24.940       660
24.960       653
24.980       630
25.000       686
25.020       616
25.040       676
25.060       583
25.080       636
25.100       580
25.120       623
25.140       640
25.160       626
25.180       610
25.200       583
25.220       623
25.240       630
25.260       676
25.280       606
25.300       616
25.320       630
25.340       653
25.360       606
25.380       570
25.400       583
25.420       653
25.440       596
25.460       666
25.480       580
25.500       550
25.520       540
25.540       583
25.560       613
25.580       593
25.600       476
25.620       520
25.640       556
25.660       516
25.680       536
25.700       400
25.720       470
25.740       400
25.760       400
25.780       456
25.800       403
25.820       397
25.840       383
25.860       443
25.880       433
25.900       443
25.920       446
25.940       353
25.960       417
25.980       473
26.000       387
26.020       330
26.040       377
26.060       370
26.080       360
26.100       420
26.120       417
26.140       426
26.160       393
26.180       313
26.200       357
26.220       400
26.240       363
26.260       363
26.280       417
26.300       360
26.320       357
26.340       293
26.360       387
26.380       317
26.400       343
26.420       320
26.440       327
26.460       343
26.480       400
26.500       307
26.520       303
26.540       360
26.560       367
26.580       353
26.600       323
26.620       287
26.640       360
26.660       327
26.680       363
26.700       347
26.720       350
26.740       337
26.760       300
26.780       310
26.800       397
26.820       300
26.840       367
26.860       327
26.880       343
26.900       297
26.920       377
26.940       300
26.960       287
26.980       273
27.000       303
27.020       290
27.040       303
27.060       310
27.080       260
27.100       310
27.120       263
27.140       277
27.160       333
27.180       307
27.200       290
27.220       270
27.240       250
27.260       257
27.280       193
27.300       320
27.320       310
27.340       290
27.360       270
27.380       240
27.400       270
27.420       267
27.440       253
27.460       247
27.480       213
27.500       290
27.520       193
27.540       290
27.560       257
27.580       270
27.600       250
27.620       307
27.640       263
27.660       207
27.680       170
27.700       273
27.720       210
27.740       287
27.760       233
27.780       197
27.800       233
27.820       233
27.840       203
27.860       263
27.880       233
27.900       240
27.920       223
27.940       230
27.960       240
27.980       213
28.000       230
28.020       210
28.040       177
28.060       247
28.080       227
28.100       213
28.120       240
28.140       213
28.160       213
28.180       233
28.200       240
28.220       250
28.240       213
28.260       253
28.280       167
28.300       233
28.320       200
28.340       227
28.360       213
28.380       207
28.400       220
28.420       243
28.440       207
28.460       210
28.480       200
28.500       173
28.520       210
28.540       173
28.560       207
28.580       197
28.600       213
28.620       227
28.640       227
28.660       223
28.680       217
28.700       163
28.720       163
28.740       157
28.760       153
28.780       157
28.800       200
28.820       197
28.840       203
28.860       197
28.880       193
28.900       167
28.920       217
28.940       187
28.960       203
28.980       183
29.000       183
29.020       170
29.040       200
29.060       197
29.080       193
29.100       213
29.120       147
29.140       167
29.160       180
29.180       157
29.200       143
29.220       183
29.240       180
29.260       150
29.280       163
29.300       197
29.320       170
29.340       167
29.360       160
29.380       227
29.400       157
29.420       120
29.440       150
29.460       177
29.480       193
29.500       183
29.520       200
29.540       273
29.560       197
29.580       197
29.600       203
29.620       207
29.640       163
29.660       167
29.680       180
29.700       183
29.720       213
29.740       153
29.760       140
29.780       170
29.800       210
29.820       163
29.840       143
29.860       163
29.880       160
29.900       160
29.920       150
29.940       177
29.960       100
29.980       133
30.000       170
30.020       177
30.040       147
30.060       170
30.080       130
30.100       167
30.120       197
30.140       217
30.160       147
30.180       177
30.200       117
30.220       130
30.240       150
30.260       167
30.280       170
30.300       160
30.320       190
30.340       160
30.360       167
30.380       157
30.400       150
30.420       187
30.440       140
30.460       160
30.480       130
30.500       143
30.520       207
30.540       160
30.560       127
30.580       163
30.600       143
30.620       193
30.640       167
30.660       187
30.680       157
30.700       147
30.720       123
30.740       167
30.760       140
30.780       180
30.800       197
30.820       143
30.840       150
30.860       170
30.880       193
30.900       147
30.920       173
30.940       187
30.960       227
30.980       163
31.000       160
31.020       210
31.040       197
31.060       180
31.080       167
31.100       150
31.120       180
31.140       183
31.160       163
31.180       183
31.200       153
31.220       167
31.240       177
31.260       243
31.280       177
31.300       173
31.320       160
31.340       200
31.360       160
31.380       190
31.400       203
31.420       200
31.440       210
31.460       203
31.480       213
31.500       227
31.520       227
31.540       237
31.560       263
31.580       183
31.600       253
31.620       253
31.640       287
31.660       297
31.680       263
31.700       310
31.720       320
31.740       320
31.760       440
31.780       463
31.800       593
31.820       650
31.840       666
31.860       783
31.880       816
31.900       870
31.920       956
31.940       960
31.960       976
31.980      1106
32.000      1359
32.020      1933
32.040      4222
32.060      8560
32.080     11659
32.100     11639
32.120      8940
32.140      4175
32.160      2059
32.180      1363
32.200      1133
32.220       953
32.240       823
32.260       660
32.280       540
32.300       526
32.320       536
32.340       473
32.360       430
32.380       476
32.400       520
32.420       400
32.440       397
32.460       390
32.480       473
32.500       407
32.520       343
32.540       370
32.560       393
32.580       407
32.600       363
32.620       373
32.640       357
32.660       413
32.680       370
32.700       397
32.720       357
32.740       330
32.760       370
32.780       353
32.800       330
32.820       313
32.840       320
32.860       337
32.880       303
32.900       327
32.920       297
32.940       270
32.960       243
32.980       240
33.000       283
33.020       283
33.040       230
33.060       297
33.080       240
33.100       370
33.120       280
33.140       250
33.160       240
33.180       253
33.200       250
33.220       360
33.240       303
33.260       257
33.280       217
33.300       263
33.320       320
33.340       260
33.360       277
33.380       247
33.400       267
33.420       280
33.440       257
33.460       263
33.480       317
33.500       290
33.520       250
33.540       297
33.560       267
33.580       250
33.600       263
33.620       240
33.640       227
33.660       240
33.680       253
33.700       263
33.720       223
33.740       240
33.760       233
33.780       257
33.800       287
33.820       203
33.840       270
33.860       287
33.880       220
33.900       277
33.920       187
33.940       227
33.960       233
33.980       280
34.000       217
34.020       270
34.040       197
34.060       320
34.080       273
34.100       287
34.120       300
34.140       277
34.160       247
34.180       317
34.200       330
34.220       327
34.240       323
34.260       340
34.280       500
34.300       510
34.320       653
34.340      1226
34.360      1879
34.380      2856
34.400      3525
34.420      3878
34.440      3739
34.460      4065
34.480      3998
34.500      3948
34.520      4072
34.540      3875
34.560      4152
34.580      4002
34.600      3802
34.620      4072
34.640      3788
34.660      4145
34.680      4168
34.700      3945
34.720      3912
34.740      4225
34.760      4042
34.780      3822
34.800      4155
34.820      3938
34.840      4048
34.860      4255
34.880      4222
34.900      4072
34.920      4238
34.940      4308
34.960      4368
34.980      4455
35.000      4395
35.020      4681
35.040      4305
35.060      4671
35.080      4588
35.100      4785
35.120      4785
35.140      4955
35.160      5105
35.180      5305
35.200      5518
35.220      5984
35.240      6218
35.260      6694
35.280      7367
35.300      8300
35.320      9113
35.340     11515
35.360     15714
35.380     23917
35.400     33740
35.420     46002
35.440     57980
35.460     67233
35.480     72021
35.500     78232
35.520     88305
35.540    118663
35.560    209906
35.580    291380
35.600    261059
35.620    256764
35.640    270115
35.660    299094
35.680    302945
35.700    299747
35.720    301626
35.740    287585
35.760    169845
35.780     76519
35.800     47511
35.820     34260
35.840     25736
35.860     19476
35.880     15051
35.900     12772
35.920     11246
35.940      9823
35.960      8993
35.980      8263
36.000      7764
36.020      7317
36.040      7114
36.060      6637
36.080      6521
36.100      6231
36.120      5761
36.140      5694
36.160      5501
36.180      5075
36.200      5175
36.220      4831
36.240      4735
36.260      4818
36.280      4532
36.300      4372
36.320      4335
36.340      4188
36.360      3992
36.380      4218
36.400      3878
36.420      3822
36.440      3782
36.460      3742
36.480      3712
36.500      3555
36.520      3332
36.540      3852
36.560      3429
36.580      3525
36.600      3289
36.620      3309
36.640      3552
36.660      3169
36.680      3382
36.700      3115
36.720      3199
36.740      3182
36.760      2932
36.780      3002
36.800      2952
36.820      2952
36.840      3049
36.860      3102
36.880      3002
36.900      3042
36.920      2809
36.940      2942
36.960      2935
36.980      2876
37.000      2762
37.020      2626
37.040      2749
37.060      2686
37.080      2619
37.100      2669
37.120      2766
37.140      2736
37.160      2582
37.180      2542
37.200      2589
37.220      2676
37.240      2452
37.260      2496
37.280      2402
37.300      2539
37.320      2512
37.340      2539
37.360      2396
37.380      2516
37.400      2476
37.420      2566
37.440      2386
37.460      2326
37.480      2449
37.500      2562
37.520      2466
37.540      2302
37.560      2232
37.580      2279
37.600      2519
37.620      2346
37.640      2229
37.660      2352
37.680      2392
37.700      2326
37.720      2239
37.740      2262
37.760      2309
37.780      2229
37.800      2232
37.820      2269
37.840      2023
37.860      2116
37.880      2322
37.900      1946
37.920      1949
37.940      2269
37.960      2119
37.980      2112
38.000      2146
38.020      2132
38.040      2116
38.060      2129
38.080      2036
38.100      2122
38.120      2069
38.140      1913
38.160      1959
38.180      1949
38.200      1956
38.220      1986
38.240      1976
38.260      1833
38.280      2092
38.300      1919
38.320      1876
38.340      1919
38.360      2063
38.380      1849
38.400      1909
38.420      1896
38.440      1959
38.460      1916
38.480      1856
38.500      1806
38.520      1856
38.540      1826
38.560      1953
38.580      1959
38.600      1783
38.620      1766
38.640      1869
38.660      1866
38.680      1843
38.700      1833
38.720      1879
38.740      1826
38.760      1776
38.780      1763
38.800      1893
38.820      1803
38.840      1733
38.860      1613
38.880      1739
38.900      1766
38.920      1629
38.940      1683
38.960      1629
38.980      1706
39.000      1689
39.020      1653
39.040      1686
39.060      1773
39.080      1599
39.100      1593
39.120      1519
39.140      1619
39.160      1666
39.180      1686
39.200      1543
39.220      1616
39.240      1676
39.260      1653
39.280      1719
39.300      1589
39.320      1603
39.340      1613
39.360      1713
39.380      1563
39.400      1583
39.420      1556
39.440      1599
39.460      1486
39.480      1589
39.500      1746
39.520      1466
39.540      1596
39.560      1596
39.580      1503
39.600      1729
39.620      1679
39.640      1386
39.660      1456
39.680      1543
39.700      1459
39.720      1493
39.740      1433
39.760      1479
39.780      1443
39.800      1469
39.820      1483
39.840      1523
39.860      1356
39.880      1389
39.900      1419
39.920      1413
39.940      1423
39.960      1313
39.980      1419
40.000      1403
40.020      1519
40.040      1516
40.060      1399
40.080      1383
40.100      1426
40.120      1453
40.140      1373
40.160      1429
40.180      1346
40.200      1439
40.220      1396
40.240      1373
40.260      1376
40.280      1403
40.300      1409
40.320      1230
40.340      1476
40.360      1259
40.380      1223
40.400      1289
40.420      1319
40.440      1316
40.460      1309
40.480      1329
40.500      1343
40.520      1220
40.540      1369
40.560      1319
40.580      1343
40.600      1296
40.620      1409
40.640      1296
40.660      1193
40.680      1279
40.700      1273
40.720      1256
40.740      1213
40.760      1286
40.780      1256
40.800      1240
40.820      1339
40.840      1299
40.860      1243
40.880      1273
40.900      1180
40.920      1259
40.940      1156
40.960      1143
40.980      1156
41.000      1160
41.020      1173
41.040      1213
41.060      1230
41.080      1230
41.100      1193
41.120      1210
41.140      1130
41.160      1150
41.180      1086
41.200      1090
41.220      1293
41.240      1206
41.260      1133
41.280      1150
41.300      1289
41.320      1153
41.340      1103
41.360      1193
41.380       990
41.400      1130
41.420      1143
41.440      1016
41.460      1106
41.480       950
41.500      1030
41.520      1133
41.540      1083
41.560      1100
41.580      1100
41.600      1213
41.620       993
41.640      1033
41.660      1093
41.680      1113
41.700      1056
41.720      1043
41.740      1103
41.760      1006
41.780      1060
41.800       976
41.820      1050
41.840      1063
41.860      1023
41.880      1060
41.900      1076
41.920       973
41.940       956
41.960       963
41.980      1146
42.000       956
42.020       893
42.040      1066
42.060      1026
42.080      1053
42.100       976
42.120      1056
42.140      1043
42.160      1066
42.180       870
42.200      1050
42.220      1036
42.240       966
42.260       950
42.280       936
42.300      1010
42.320      1000
42.340       933
42.360       863
42.380       916
42.400      1000
42.420       910
42.440       933
42.460       946
42.480       940
42.500       906
42.520       846
42.540       936
42.560      1030
42.580       900
42.600       900
42.620       896
42.640       973
42.660       873
42.680       900
42.700       890
42.720       893
42.740       770
42.760       876
42.780       760
42.800       903
42.820       740
42.840       760
42.860       773
42.880       950
42.900       806
42.920       816
42.940       810
42.960       966
42.980       916
43.000       843
43.020       856
43.040       776
43.060       776
43.080       823
43.100       813
43.120       843
43.140       786
43.160       803
43.180       840
43.200       856
43.220       870
43.240       773
43.260       746
43.280       683
43.300       773
43.320       843
43.340       816
43.360       786
43.380       866
43.400       776
43.420       700
43.440       806
43.460       706
43.480       820
43.500       733
43.520       806
43.540       766
43.560       750
43.580       720
43.600       700
43.620       766
43.640       706
43.660       690
43.680       783
43.700       683
43.720       700
43.740       756
43.760       716
43.780       643
43.800       683
43.820       676
43.840       703
43.860       706
43.880       690
43.900       693
43.920       623
43.940       680
43.960       683
43.980       693
44.000       703
44.020       643
44.040       683
44.060       553
44.080       726
44.100       683
44.120       636
44.140       630
44.160       626
44.180       723
44.200       606
44.220       696
44.240       643
44.260       670
44.280       620
44.300       666
44.320       656
44.340       620
44.360       690
44.380       620
44.400       676
44.420       640
44.440       633
44.460       660
44.480       716
44.500       606
44.520       703
44.540       623
44.560       623
44.580       573
44.600       603
44.620       706
44.640       643
44.660       633
44.680       643
44.700       623
44.720       640
44.740       633
44.760       673
44.780       610
44.800       630
44.820       503
44.840       516
44.860       620
44.880       600
44.900       640
44.920       573
44.940       560
44.960       573
44.980       613
45.000       593
45.020       546
45.040       630
45.060       636
45.080       666
45.100       603
45.120       613
45.140       620
45.160       653
45.180       646
45.200       573
45.220       553
45.240       606
45.260       510
45.280       630
45.300       713
45.320       713
45.340       726
45.360       563
45.380       583
45.400       643
45.420       596
45.440       770
45.460       726
45.480       750
45.500       740
45.520       763
45.540       890
45.560       836
45.580       950
45.600       966
45.620       950
45.640      1180
45.660      1123
45.680      1240
45.700      1366
45.720      1553
45.740      1559
45.760      1699
45.780      1889
45.800      2142
45.820      2232
45.840      2526
45.860      2676
45.880      2752
45.900      2746
45.920      2819
45.940      2782
45.960      2912
45.980      2676
46.000      2522
46.020      2329
46.040      2219
46.060      2116
46.080      1843
46.100      1639
46.120      1533
46.140      1413
46.160      1150
46.180      1016
46.200      1103
46.220       900
46.240       893
46.260       650
46.280       786
46.300       743
46.320       686
46.340       660
46.360       640
46.380       606
46.400       600
46.420       603
46.440       540
46.460       480
46.480       510
46.500       600
46.520       563
46.540       580
46.560       486
46.580       450
46.600       433
46.620       453
46.640       513
46.660       540
46.680       470
46.700       430
46.720       446
46.740       450
46.760       403
46.780       456
46.800       420
46.820       446
46.840       377
46.860       496
46.880       440
46.900       430
46.920       426
46.940       430
46.960       353
46.980       400
47.000       353
47.020       456
47.040       400
47.060       420
47.080       486
47.100       363
47.120       403
47.140       410
47.160       423
47.180       357
47.200       380
47.220       423
47.240       370
47.260       370
47.280       370
47.300       350
47.320       423
47.340       417
47.360       380
47.380       403
47.400       377
47.420       333
47.440       387
47.460       337
47.480       420
47.500       380
47.520       383
47.540       430
47.560       313
47.580       387
47.600       327
47.620       380
47.640       360
47.660       340
47.680       307
47.700       280
47.720       383
47.740       333
47.760       367
47.780       320
47.800       347
47.820       367
47.840       390
47.860       323
47.880       283
47.900       347
47.920       360
47.940       337
47.960       333
47.980       313
48.000       360
48.020       347
48.040       360
48.060       387
48.080       523
48.100       736
48.120       760
48.140       673
48.160       656
48.180       410
48.200       430
48.220       393
48.240       450
48.260       443
48.280       403
48.300       407
48.320       363
48.340       307
48.360       347
48.380       323
48.400       273
48.420       247
48.440       283
48.460       323
48.480       337
48.500       323
48.520       367
48.540       357
48.560       217
48.580       313
48.600       320
48.620       270
48.640       313
48.660       300
48.680       313
48.700       300
48.720       240
48.740       263
48.760       317
48.780       267
48.800       293
48.820       303
48.840       270
48.860       310
48.880       287
48.900       283
48.920       303
48.940       273
48.960       337
48.980       237
49.000       267
49.020       270
49.040       313
49.060       253
49.080       303
49.100       277
49.120       260
49.140       297
49.160       220
49.180       213
49.200       240
49.220       287
49.240       290
49.260       273
49.280       323
49.300       267
49.320       277
49.340       260
49.360       257
49.380       300
49.400       240
49.420       263
49.440       270
49.460       263
49.480       273
49.500       260
49.520       197
49.540       273
49.560       277
49.580       233
49.600       237
49.620       273
49.640       273
49.660       223
49.680       267
49.700       250
49.720       273
49.740       247
49.760       243
49.780       290
49.800       180
49.820       233
49.840       220
49.860       247
49.880       233
49.900       190
49.920       253
49.940       240
49.960       173
49.980       257
50.000       273
50.020       240
50.040       273
50.060       217
50.080       260
50.100       220
50.120       187
50.140       187
50.160       227
50.180       203
50.200       203
50.220       303
50.240       230
50.260       180
50.280       240
50.300       217
50.320       223
50.340       207
50.360       290
50.380       180
50.400       257
50.420       213
50.440       193
50.460       217
50.480       203
50.500       237
50.520       243
50.540       183
50.560       290
50.580       183
50.600       220
50.620       160
50.640       240
50.660       180
50.680       203
50.700       170
50.720       220
50.740       190
50.760       200
50.780       230
50.800       280
50.820       213
50.840       233
50.860       210
50.880       223
50.900       237
50.920       237
50.940       200
50.960       207
50.980       183
51.000       180
51.020       207
51.040       157
51.060       163
51.080       230
51.100       137
51.120       210
51.140       223
51.160       203
51.180       183
51.200       190
51.220       173
51.240       190
51.260       240
51.280       190
51.300       200
51.320       153
51.340       203
51.360       207
51.380       180
51.400       227
51.420       210
51.440       147
51.460       200
51.480       207
51.500       213
51.520       140
51.540       147
51.560       177
51.580       150
51.600       177
51.620       230
51.640       200
51.660       187
51.680       247
51.700       167
51.720       200
51.740       230
51.760       197
51.780       143
51.800       160
51.820       217
51.840       153
51.860       187
51.880       210
51.900       217
51.920       183
51.940       187
51.960       193
51.980       143
52.000       157
52.020       180
52.040       180
52.060       167
52.080       177
52.100       150
52.120       200
52.140       197
52.160       150
52.180       180
52.200       183
52.220       230
52.240       213
52.260       157
52.280       153
52.300       207
52.320       187
52.340       177
52.360       160
52.380       197
52.400       177
52.420       193
52.440       163
52.460       163
52.480       133
52.500       150
52.520       160
52.540       183
52.560       193
52.580       160
52.600       190
52.620       180
52.640       170
52.660       167
52.680       193
52.700       167
52.720       237
52.740       160
52.760       117
52.780       200
52.800       167
52.820       160
52.840       153
52.860       160
52.880       150
52.900       167
52.920       147
52.940       183
52.960       183
52.980       167
53.000       173
53.020       157
53.040       173
53.060       140
53.080       153
53.100       213
53.120       137
53.140       173
53.160       150
53.180       183
53.200       137
53.220       177
53.240       147
53.260       127
53.280       117
53.300       137
53.320       177
53.340       113
53.360       137
53.380       180
53.400       130
53.420       173
53.440       137
53.460       123
53.480       147
53.500       173
53.520       153
53.540       173
53.560       153
53.580       237
53.600       187
53.620       183
53.640       163
53.660       150
53.680       140
53.700       137
53.720       140
53.740       140
53.760       177
53.780       143
53.800       160
53.820       177
53.840       140
53.860       113
53.880       140
53.900       153
53.920       183
53.940       157
53.960       140
53.980       133
54.000       143
54.020       130
54.040       157
54.060       127
54.080       120
54.100       133
54.120       177
54.140        73
54.160       160
54.180       157
54.200       117
54.220       153
54.240       120
54.260       110
54.280       147
54.300       140
54.320       117
54.340       170
54.360       130
54.380       147
54.400       113
54.420       120
54.440       150
54.460       137
54.480       120
54.500       137
54.520       183
54.540       180
54.560       170
54.580       167
54.600       237
54.620       147
54.640       197
54.660       190
54.680       147
54.700       143
54.720       110
54.740       160
54.760       137
54.780       127
54.800       160
54.820       183
54.840       173
54.860       140
54.880        90
54.900       130
54.920       140
54.940       140
54.960       113
54.980       157
55.000       133
55.020       137
55.040       147
55.060       127
55.080       160
55.100       130
55.120       160
55.140       130
55.160       150
55.180       180
55.200       110
55.220       193
55.240       143
55.260       103
55.280       147
55.300       123
55.320       147
55.340       127
55.360       113
55.380       113
55.400       120
55.420       173
55.440       123
55.460       163
55.480       157
55.500       140
55.520       137
55.540       130
55.560       163
55.580       130
55.600       127
55.620       140
55.640       123
55.660       137
55.680       133
55.700       133
55.720       110
55.740       133
55.760       107
55.780       137
55.800       133
55.820        90
55.840       110
55.860       190
55.880       140
55.900       130
55.920       113
55.940       147
55.960        97
55.980       137
56.000       127
56.020       160
56.040       147
56.060       110
56.080       127
56.100       123
56.120       107
56.140       133
56.160        83
56.180       147
56.200       137
56.220       127
56.240       117
56.260       113
56.280       143
56.300       120
56.320       153
56.340       147
56.360       113
56.380       137
56.400       133
56.420       133
56.440       140
56.460       100
56.480       130
56.500       103
56.520        90
56.540       123
56.560       127
56.580       110
56.600       147
56.620       133
56.640        47
56.660        93
56.680       103
56.700       123
56.720        90
56.740       123
56.760       140
56.780       120
56.800       103
56.820       113
56.840       123
56.860       130
56.880       130
56.900       173
56.920       113
56.940       140
56.960       103
56.980       133
57.000       140
57.020       120
57.040       107
57.060        80
57.080       130
57.100       157
57.120       123
57.140       103
57.160       137
57.180       140
57.200        93
57.220       147
57.240       150
57.260       147
57.280       143
57.300        97
57.320        93
57.340       120
57.360       100
57.380       147
57.400       167
57.420       127
57.440       127
57.460       103
57.480        87
57.500        70
57.520       143
57.540       160
57.560       127
57.580       170
57.600       120
57.620       153
57.640        93
57.660       140
57.680       130
57.700        93
57.720       143
57.740       140
57.760       123
57.780       110
57.800       137
57.820        87
57.840       117
57.860       137
57.880       127
57.900       147
57.920       107
57.940        63
57.960       107
57.980       133
58.000       113
58.020        97
58.040       120
58.060       110
58.080       120
58.100       117
58.120       103
58.140       100
58.160       117
58.180       123
58.200        97
58.220        90
58.240        93
58.260       117
58.280       117
58.300       107
58.320       103
58.340       117
58.360        93
58.380       103
58.400       110
58.420        97
58.440       127
58.460       107
58.480       133
58.500        67
58.520       130
58.540       113
58.560       113
58.580        90
58.600       130
58.620        97
58.640       127
58.660       107
58.680       127
58.700       133
58.720        87
58.740        93
58.760        93
58.780        80
58.800       100
58.820       110
58.840       117
58.860       113
58.880       100
58.900        90
58.920       113
58.940        87
58.960        93
58.980        93
59.000        97
59.020       123
59.040       113
59.060       127
59.080        87
59.100       127
59.120        93
59.140       100
59.160        87
59.180       107
59.200       113
59.220        87
59.240       143
59.260       123
59.280       113
59.300       130
59.320       147
59.340        90
59.360       110
59.380       103
59.400       110
59.420       123
59.440       110
59.460       123
59.480       137
59.500        90
59.520       143
59.540       117
59.560       113
59.580       117
59.600       103
59.620       113
59.640        70
59.660       103
59.680       127
59.700        70
59.720       107
59.740       110
59.760        87
59.780       107
59.800       107
59.820       107
59.840       133
59.860       117
59.880       130
59.900        87
59.920       100
59.940        83
59.960       113
59.980        97
60.000       110
