20.000         0
20.020         0
20.040         0
20.060        47
20.080        50
20.100        60
20.120        50
20.140        43
20.160        53
20.180        27
20.200        47
20.220        50
20.240        40
20.260        60
20.280        77
20.300        33
20.320        53
20.340        67
20.360        37
20.380        33
20.400        40
20.420        37
20.440        37
20.460        73
20.480        33
20.500        43
20.520        53
20.540        53
20.560        60
20.580        37
20.600        63
20.620        50
20.640        57
20.660        57
20.680        40
20.700        37
20.720        53
20.740        60
20.760        50
20.780        50
20.800        50
20.820        47
20.840        23
20.860        40
20.880        57
20.900        53
20.920        67
20.940        83
20.960        30
20.980        57
21.000        57
21.020        37
21.040        57
21.060        57
21.080        53
21.100        40
21.120        57
21.140        43
21.160        60
21.180        47
21.200        50
21.220        70
21.240        90
21.260        37
21.280        63
21.300        63
21.320        73
21.340        70
21.360        63
21.380        70
21.400        90
21.420        50
21.440        83
21.460        70
21.480        37
21.500        80
21.520        57
21.540        73
21.560        47
21.580        60
21.600        40
21.620        47
21.640        47
21.660        27
21.680        30
21.700        40
21.720        30
21.740        70
21.760        67
21.780        47
21.800        37
21.820        33
21.840        47
21.860        70
21.880        43
21.900        57
21.920        37
21.940        43
21.960        37
21.980        50
22.000        53
22.020        40
22.040        53
22.060        67
22.080        53
22.100        57
22.120        47
22.140        43
22.160        80
22.180        67
22.200        33
22.220        43
22.240        43
22.260        50
22.280        27
22.300        40
22.320        27
22.340        33
22.360        80
22.380        40
22.400        20
22.420        43
22.440        37
22.460        30
22.480        37
22.500        47
22.520        40
22.540        47
22.560        37
22.580        43
22.600        50
22.620        43
22.640        50
22.660        37
22.680        33
22.700        37
22.720        50
22.740        30
22.760        30
22.780        23
22.800        53
22.820        27
22.840        33
22.860        23
22.880        33
22.900        50
22.920        43
22.940        33
22.960        67
22.980        53
23.000        40
23.020        47
23.040        50
23.060        77
23.080        87
23.100        67
23.120        37
23.140        53
23.160        37
23.180        53
23.200        63
23.220        43
23.240        53
23.260        23
23.280        33
23.300        60
23.320        27
23.340        50
23.360        47
23.380        33
23.400        37
23.420        30
23.440        37
23.460        40
23.480        43
23.500        60
23.520        37
23.540        30
23.560        40
23.580        40
23.600        47
23.620        50
23.640        30
23.660        67
23.680        50
23.700        33
23.720        50
23.740        57
23.760        27
23.780        53
23.800        43
23.820        63
23.840        47
23.860        70
23.880        63
23.900        37
23.920        53
23.940        47
23.960        53
23.980        27
24.000        43
24.020        57
24.040        43
24.060        43
24.080        57
24.100        47
24.120        50
24.140        27
24.160        63
24.180        37
24.200        47
24.220        30
24.240        30
24.260        57
24.280        40
24.300        43
24.320        27
24.340        33
24.360        40
24.380        40
24.400        40
24.420        60
24.440        50
24.460        40
24.480        47
24.500        60
24.520        37
24.540        43
24.560        73
24.580        40
24.600        63
24.620        63
24.640        63
24.660        40
24.680        33
24.700        73
24.720        47
24.740        73
24.760        70
24.780        80
24.800       123
24.820       127
24.840       133
24.860       147
24.880       153
24.900       110
24.920       137
24.940       127
24.960       117
24.980        67
25.000        77
25.020        70
25.040        73
25.060        20
25.080        30
25.100        20
25.120        67
25.140        67
25.160        53
25.180        40
25.200        63
25.220        30
25.240        40
25.260        37
25.280        33
25.300        57
25.320        43
25.340        50
25.360        47
25.380        30
25.400        40
25.420        67
25.440        50
25.460        70
25.480        57
25.500        83
25.520       163
25.540       120
25.560       210
25.580       596
25.600       903
25.620       970
25.640       916
25.660       723
25.680       603
25.700       383
25.720       273
25.740       143
25.760        97
25.780        70
25.800        97
25.820        57
25.840        57
25.860        53
25.880        27
25.900        50
25.920        37
25.940        30
25.960        27
25.980        47
26.000        37
26.020        33
26.040        30
26.060        50
26.080        40
26.100        43
26.120        40
26.140        37
26.160        50
26.180        47
26.200        37
26.220        53
26.240        53
26.260        37
26.280        43
26.300        40
26.320        73
26.340        63
26.360        47
26.380        47
26.400        43
26.420        57
26.440        20
26.460        53
26.480        43
26.500        53
26.520        40
26.540        50
26.560        20
26.580        47
26.600        63
26.620        47
26.640        27
26.660        47
26.680        33
26.700        27
26.720        40
26.740        33
26.760        60
26.780        13
26.800        30
26.820        37
26.840        50
26.860        33
26.880        47
26.900        23
26.920        43
26.940        30
26.960        23
26.980        27
27.000        20
27.020        33
27.040        27
27.060        27
27.080        60
27.100        57
27.120        30
27.140        37
27.160        73
27.180        27
27.200        20
27.220        30
27.240        43
27.260        20
27.280        17
27.300        30
27.320        30
27.340        33
27.360        57
27.380        33
27.400        27
27.420        33
27.440        43
27.460        30
27.480        23
27.500        37
27.520        27
27.540        40
27.560        27
27.580        43
27.600        30
27.620        47
27.640        33
27.660        43
27.680        20
27.700        27
27.720        13
27.740        50
27.760        63
27.780        27
27.800        50
27.820        33
27.840        23
27.860        37
27.880        27
27.900        33
27.920        33
27.940        37
27.960        30
27.980        23
28.000        40
28.020        27
28.040        47
28.060        30
28.080        43
28.100        23
28.120        13
28.140        30
28.160        23
28.180        20
28.200        43
28.220        37
28.240        30
28.260        37
28.280        47
28.300        13
28.320        20
28.340        37
28.360        33
28.380        30
28.400        27
28.420        27
28.440        33
28.460        33
28.480        23
28.500        13
28.520        30
28.540        50
28.560        17
28.580        43
28.600        33
28.620        23
28.640        27
28.660        47
28.680        30
28.700        27
28.720        37
28.740        30
28.760        43
28.780        40
28.800        23
28.820        17
28.840        37
28.860        20
28.880        33
28.900        17
28.920        33
28.940        40
28.960        30
28.980        33
29.000        23
29.020        37
29.040        43
29.060        73
29.080        27
29.100        63
29.120        57
29.140        63
29.160        37
29.180        77
29.200        87
29.220       107
29.240        57
29.260       140
29.280       160
29.300       153
29.320       170
29.340       217
29.360       280
29.380       260
29.400       223
29.420       250
29.440       220
29.460       173
29.480       177
29.500       157
29.520        80
29.540        60
29.560        47
29.580        30
29.600        53
29.620        57
29.640        43
29.660        33
29.680        27
29.700        37
29.720        40
29.740        20
29.760        37
29.780        30
29.800        47
29.820        20
29.840        40
29.860        30
29.880        23
29.900        47
29.920        30
29.940        30
29.960        43
29.980        23
30.000        23
30.020        10
30.040        13
30.060        13
30.080        40
30.100        47
30.120        30
30.140        20
30.160        13
30.180        37
30.200        20
30.220        23
30.240        20
30.260        27
30.280        13
30.300        30
30.320        47
30.340        27
30.360        40
30.380        37
30.400        23
30.420        27
30.440        37
30.460        27
30.480        67
30.500        23
30.520        33
30.540        20
30.560        23
30.580        43
30.600        47
30.620        27
30.640        40
30.660        20
30.680        47
30.700        20
30.720        47
30.740        50
30.760        23
30.780        37
30.800        37
30.820        27
30.840        30
30.860        27
30.880        40
30.900        40
30.920        53
30.940        33
30.960        50
30.980        60
31.000        37
31.020        70
31.040        53
31.060        90
31.080       123
31.100       147
31.120       180
31.140       147
31.160       213
31.180       277
31.200       240
31.220       153
31.240       137
31.260       147
31.280       127
31.300        67
31.320        83
31.340        83
31.360        43
31.380        60
31.400        43
31.420        50
31.440        37
31.460        37
31.480        17
31.500        30
31.520        23
31.540        20
31.560        17
31.580        37
31.600        30
31.620        47
31.640        20
31.660        17
31.680        37
31.700        33
31.720        33
31.740        20
31.760        43
31.780        27
31.800        23
31.820        30
31.840        30
31.860        43
31.880        13
31.900        30
31.920        23
31.940        17
31.960        43
31.980        43
32.000        20
32.020        30
32.040        30
32.060        30
32.080        27
32.100        33
32.120        30
32.140        20
32.160        23
32.180        17
32.200        27
32.220        33
32.240        23
32.260        53
32.280        17
32.300        37
32.320        37
32.340        33
32.360        17
32.380        40
32.400        30
32.420        33
32.440        20
32.460        33
32.480        40
32.500        20
32.520        40
32.540        33
32.560        30
32.580        23
32.600        33
32.620        10
32.640        30
32.660        27
32.680        27
32.700        20
32.720        37
32.740        23
32.760        13
32.780        33
32.800        17
32.820        30
32.840        23
32.860        23
32.880        37
32.900        33
32.920        23
32.940        23
32.960        43
32.980        20
33.000        33
33.020        33
33.040        17
33.060        33
33.080        37
33.100        33
33.120        37
33.140        27
33.160        30
33.180        13
33.200        23
33.220         7
33.240        20
33.260        23
33.280        47
33.300        23
33.320        37
33.340        13
33.360        33
33.380        17
33.400        23
33.420        20
33.440        30
33.460        33
33.480        30
33.500        10
33.520        27
33.540        17
33.560        13
33.580        17
33.600        40
33.620        33
33.640        17
33.660        47
33.680        20
33.700        23
33.720        23
33.740        13
33.760        33
33.780        30
33.800        23
33.820        40
33.840        27
33.860        20
33.880        20
33.900        13
33.920         7
33.940        17
33.960        10
33.980        30
34.000        23
34.020        13
34.040        30
34.060        27
34.080        13
34.100        17
34.120        23
34.140        23
34.160        20
34.180         7
34.200        30
34.220        30
34.240        13
34.260        17
34.280        23
34.300        20
34.320        10
34.340        27
34.360        33
34.380        20
34.400        13
34.420        13
34.440        30
34.460        20
34.480        13
34.500        30
34.520        20
34.540        33
34.560        33
34.580        33
34.600        33
34.620        17
34.640        20
34.660        23
34.680        27
34.700        20
34.720        13
34.740        33
34.760        33
34.780        30
34.800        13
34.820        17
34.840        20
34.860        10
34.880        47
34.900        23
34.920        20
34.940        23
34.960        33
34.980        23
35.000        40
35.020        20
35.040        13
35.060        30
35.080        43
35.100        20
35.120        17
35.140        20
35.160        27
35.180         7
35.200        27
35.220        20
35.240        23
35.260        23
35.280        50
35.300        40
35.320        33
35.340        10
35.360        23
35.380        50
35.400        30
35.420        40
35.440        33
35.460        30
35.480        17
35.500        33
35.520        37
35.540        30
35.560        37
35.580        23
35.600        23
35.620        20
35.640        23
35.660        30
35.680        17
35.700        27
35.720        30
35.740        30
35.760        40
35.780        10
35.800        37
35.820        43
35.840        50
35.860        43
35.880        73
35.900        83
35.920        80
35.940        80
35.960        60
35.980        67
36.000        80
36.020        67
36.040        47
36.060        30
36.080        30
36.100        50
36.120        13
36.140        30
36.160        23
36.180        43
36.200        13
36.220        13
36.240        30
36.260        37
36.280        27
36.300        30
36.320        13
36.340        23
36.360        47
36.380        37
36.400        30
36.420        33
36.440        20
36.460        23
36.480        23
36.500        23
36.520         7
36.540        20
36.560        20
36.580        27
36.600        30
36.620        27
36.640        40
36.660        27
36.680        10
36.700        30
36.720        23
36.740        13
36.760        17
36.780        23
36.800        20
36.820        27
36.840        23
36.860        13
36.880        10
36.900        23
36.920        43
36.940        33
36.960        40
36.980        13
37.000        20
37.020         7
37.040        20
37.060        13
37.080        20
37.100        17
37.120        17
37.140        33
37.160        20
37.180        40
37.200        10
37.220        10
37.240        13
37.260        13
37.280        23
37.300        20
37.320        33
37.340        37
37.360        30
37.380        10
37.400        20
37.420        23
37.440        40
37.460        33
37.480        27
37.500        37
37.520        27
37.540        50
37.560        37
37.580        23
37.600        43
37.620        27
37.640        20
37.660        23
37.680        33
37.700        37
37.720        30
37.740        47
37.760        20
37.780        33
37.800        37
37.820        40
37.840        47
37.860        17
37.880        30
37.900        30
37.920        27
37.940        30
37.960        30
37.980        17
38.000        37
38.020        23
38.040        17
38.060        30
38.080        23
38.100        33
38.120        40
38.140        20
38.160        20
38.180        17
38.200        57
38.220        33
38.240        27
38.260        30
38.280        20
38.300        33
38.320        23
38.340        43
38.360        30
38.380        30
38.400        53
38.420        43
38.440        60
38.460        87
38.480        73
38.500        50
38.520        63
38.540        83
38.560        47
38.580        43
38.600        27
38.620        40
38.640        37
38.660        33
38.680        33
38.700        23
38.720        30
38.740        13
38.760        27
38.780        37
38.800        13
38.820        27
38.840        20
38.860        27
38.880        27
38.900         3
38.920        17
38.940        27
38.960        37
38.980        33
39.000        30
39.020        47
39.040        23
39.060        30
39.080        17
39.100        37
39.120        47
39.140        23
39.160        47
39.180        33
39.200        43
39.220        57
39.240        57
39.260        40
39.280        43
39.300        63
39.320        77
39.340        73
39.360        57
39.380       103
39.400       107
39.420        60
39.440        93
39.460        73
39.480        60
39.500        77
39.520        53
39.540        53
39.560        37
39.580        30
39.600        30
39.620        17
39.640        23
39.660        27
39.680        17
39.700        20
39.720        17
39.740        30
39.760        27
39.780        17
39.800        20
39.820        27
39.840        20
39.860        37
39.880        17
39.900        43
39.920        20
39.940        40
39.960        27
39.980        30
40.000        23
40.020        17
40.040        27
40.060        30
40.080        20
40.100        30
40.120        27
40.140        17
40.160        20
40.180        17
40.200        47
40.220        37
40.240        17
40.260        30
40.280        10
40.300        20
40.320        30
40.340        13
40.360        33
40.380        23
40.400        27
40.420        33
40.440        23
40.460        17
40.480        23
40.500        13
40.520        33
40.540        23
40.560        17
40.580         7
40.600         7
40.620        23
40.640        20
40.660        33
40.680        27
40.700        30
40.720        33
40.740        10
40.760        20
40.780        10
40.800        20
40.820        23
40.840        27
40.860        17
40.880        30
40.900        17
40.920        23
40.940         7
40.960        17
40.980        20
41.000        37
41.020        23
41.040        27
41.060        13
41.080        27
41.100        20
41.120        23
41.140        17
41.160        27
41.180        17
41.200        30
41.220        30
41.240        20
41.260        23
41.280        20
41.300        27
41.320        30
41.340        13
41.360        20
41.380        17
41.400        37
41.420        23
41.440        20
41.460        27
41.480        13
41.500        20
41.520        23
41.540        17
41.560        20
41.580        20
41.600        37
41.620        23
41.640         7
41.660        17
41.680        27
41.700        23
41.720        13
41.740        17
41.760        30
41.780        30
41.800        30
41.820        20
41.840        30
41.860        43
41.880        23
41.900        13
41.920        43
41.940        17
41.960        33
41.980        10
42.000        13
42.020        33
42.040        37
42.060        17
42.080        13
42.100        13
42.120        10
42.140        20
42.160        13
42.180        23
42.200        20
42.220        27
42.240        33
42.260        10
42.280        27
42.300        40
42.320        20
42.340        33
42.360        20
42.380        20
42.400        20
42.420        23
42.440        17
42.460        20
42.480        27
42.500        27
42.520        23
42.540        30
42.560        33
42.580        20
42.600         7
42.620        37
42.640        13
42.660        20
42.680        13
42.700        37
42.720        13
42.740        20
42.760        23
42.780        17
42.800        20
42.820        23
42.840        40
42.860        53
42.880        40
42.900        17
42.920        30
42.940        33
42.960        30
42.980        33
43.000        33
43.020        40
43.040        37
43.060        60
43.080        50
43.100        73
43.120        70
43.140        90
43.160       107
43.180        50
43.200        57
43.220        50
43.240        47
43.260        43
43.280        23
43.300        27
43.320        40
43.340        33
43.360        37
43.380        20
43.400        30
43.420        20
43.440        27
43.460        33
43.480        27
43.500        13
43.520        13
43.540        17
43.560        13
43.580        23
43.600        20
43.620        10
43.640        23
43.660        30
43.680        27
43.700        50
43.720        23
43.740        17
43.760        20
43.780        17
43.800        13
43.820        23
43.840        17
43.860        20
43.880        17
43.900        33
43.920        27
43.940        30
43.960        30
43.980        13
44.000        17
44.020        30
44.040        23
44.060        27
44.080        30
44.100        30
44.120        20
44.140        13
44.160        10
44.180        47
44.200        23
44.220        23
44.240        53
44.260        30
44.280        27
44.300        30
44.320        13
44.340        30
44.360        30
44.380        47
44.400        10
44.420        30
44.440        50
44.460        27
44.480        30
44.500        13
44.520        50
44.540        47
44.560        27
44.580        17
44.600        37
44.620        50
44.640        60
44.660        20
44.680        23
44.700        40
44.720        33
44.740        33
44.760        47
44.780        30
44.800        53
44.820        23
44.840        27
44.860        10
44.880        27
44.900        23
44.920        27
44.940        17
44.960        23
44.980        27
45.000        40
45.020        33
45.040        23
45.060        23
45.080        47
45.100        37
45.120        23
45.140        43
45.160        10
45.180        20
45.200        30
45.220        33
45.240        23
45.260        17
45.280        17
45.300        20
45.320        27
45.340        13
45.360        30
45.380        33
45.400        13
45.420        23
45.440        37
45.460        30
45.480        27
45.500        33
45.520        30
45.540        37
45.560        40
45.580        23
45.600        27
45.620        23
45.640        30
45.660        23
45.680        33
45.700        23
45.720        37
45.740        17
45.760        17
45.780        17
45.800        27
45.820        30
45.840        13
45.860        20
45.880         7
45.900        13
45.920        20
45.940         7
45.960        17
45.980        30
46.000        20
46.020         7
46.040        13
46.060        13
46.080        20
46.100        20
46.120        30
46.140        23
46.160        17
46.180        47
46.200        17
46.220        20
46.240        30
46.260        13
46.280        30
46.300        30
46.320        20
46.340        30
46.360        17
46.380        13
46.400        27
46.420        23
46.440        17
46.460        17
46.480        37
46.500        23
46.520        40
46.540        23
46.560        57
46.580        23
46.600        30
46.620        10
46.640        27
46.660        43
46.680        23
46.700        27
46.720        27
46.740        30
46.760        10
46.780        27
46.800        43
46.820        23
46.840        13
46.860        23
46.880        33
46.900        23
46.920        37
46.940        30
46.960        33
46.980        47
47.000        23
47.020        27
47.040        43
47.060        57
47.080        60
47.100        33
47.120        70
47.140        43
47.160        30
47.180        30
47.200        43
47.220        40
47.240        33
47.260        30
47.280        27
47.300        63
47.320        43
47.340        60
47.360        60
47.380        83
47.400        77
47.420        57
47.440        63
47.460        73
47.480       107
47.500        93
47.520        97
47.540       127
47.560        97
47.580        70
47.600        53
47.620        60
47.640        37
47.660        27
47.680        43
47.700        53
47.720        37
47.740        30
47.760        27
47.780        20
47.800        33
47.820        13
47.840        20
47.860        23
47.880        23
47.900        13
47.920        20
47.940        20
47.960        20
47.980        17
48.000        13
48.020        40
48.040        17
48.060        27
48.080        37
48.100        23
48.120        30
48.140        27
48.160        30
48.180        13
48.200        20
48.220        40
48.240        17
48.260        33
48.280        47
48.300        37
48.320        13
48.340        37
48.360        37
48.380        50
48.400        53
48.420        47
48.440        73
48.460        77
48.480        87
48.500       117
48.520        80
48.540        80
48.560        73
48.580        83
48.600        53
48.620        70
48.640        43
48.660        43
48.680        30
48.700        17
48.720        33
48.740        33
48.760        47
48.780        40
48.800        17
48.820        20
48.840        17
48.860        20
48.880        27
48.900        30
48.920        13
48.940        23
48.960        33
48.980         7
49.000        37
49.020        37
49.040        30
49.060        27
49.080        10
49.100        17
49.120        10
49.140         7
49.160        10
49.180        30
49.200        37
49.220        17
49.240        33
49.260        10
49.280         3
49.300        27
49.320        27
49.340        13
49.360        10
49.380        23
49.400        23
49.420        27
49.440        17
49.460        13
49.480        23
49.500        33
49.520        27
49.540        23
49.560        20
49.580        27
49.600        30
49.620        30
49.640        23
49.660        23
49.680        13
49.700        17
49.720        27
49.740        20
49.760        17
49.780        40
49.800        10
49.820        27
49.840        23
49.860        20
49.880        53
49.900        33
49.920        27
49.940        13
49.960        20
49.980        23
50.000        27
50.020        27
50.040        10
50.060        20
50.080        13
50.100        30
50.120        27
50.140        30
50.160        33
50.180        37
50.200        13
50.220        30
50.240         7
50.260        30
50.280        40
50.300        33
50.320        13
50.340        33
50.360        43
50.380        27
50.400        37
50.420        27
50.440        40
50.460        17
50.480        20
50.500        23
50.520        33
50.540        43
50.560        13
50.580        17
50.600        13
50.620        17
50.640        20
50.660        27
50.680        40
50.700        27
50.720        20
50.740        30
50.760        20
50.780        23
50.800        20
50.820        37
50.840        30
50.860        43
50.880        40
50.900        33
50.920        30
50.940        30
50.960        27
50.980        37
51.000        50
51.020        23
51.040        27
51.060        30
51.080        33
51.100        43
51.120        20
51.140        27
51.160        33
51.180        20
51.200        20
51.220        40
51.240        33
51.260        43
51.280        10
51.300        43
51.320        27
51.340        27
51.360        40
51.380        17
51.400        27
51.420        37
51.440        33
51.460        47
51.480        20
51.500        27
51.520        30
51.540        20
51.560        23
51.580        33
51.600        33
51.620        23
51.640        27
51.660        40
51.680        20
51.700        47
51.720        33
51.740        27
51.760        40
51.780        23
51.800        43
51.820        40
51.840        33
51.860        33
51.880        47
51.900        17
51.920        30
51.940        40
51.960        63
51.980        43
52.000        50
52.020        20
52.040        53
52.060        20
52.080        77
52.100        37
52.120        27
52.140        40
52.160        47
52.180        60
52.200        37
52.220        50
52.240        53
52.260        50
52.280        53
52.300        67
52.320        83
52.340        80
52.360       107
52.380        70
52.400       133
52.420       133
52.440       147
52.460       163
52.480       253
52.500       303
52.520       516
52.540      1010
52.560      1343
52.580      1786
52.600      2292
52.620      2292
52.640      1946
52.660      1316
52.680       886
52.700      1023
52.720      1003
52.740      1220
52.760      1110
52.780       916
52.800       516
52.820       270
52.840       260
52.860       167
52.880       180
52.900       137
52.920       100
52.940        80
52.960        77
52.980        77
53.000        83
53.020        63
53.040        57
53.060        97
53.080        67
53.100        63
53.120        43
53.140        47
53.160        77
53.180        30
53.200        43
53.220        60
53.240        20
53.260        40
53.280        57
53.300        40
53.320        63
53.340        50
53.360        37
53.380        40
53.400        43
53.420        37
53.440        40
53.460        17
53.480        43
53.500        27
53.520        33
53.540        37
53.560        30
53.580        30
53.600        43
53.620        23
53.640        37
53.660        23
53.680        27
53.700        33
53.720        27
53.740        47
53.760        33
53.780        33
53.800        37
53.820        20
53.840        33
53.860        27
53.880        47
53.900        17
53.920        27
53.940        27
53.960        50
53.980        13
54.000        23
54.020        33
54.040        13
54.060        30
54.080        27
54.100        53
54.120        20
54.140        33
54.160        23
54.180        20
54.200        23
54.220         7
54.240        13
54.260        40
54.280        27
54.300        13
54.320        20
54.340        30
54.360        37
54.380        27
54.400        17
54.420        17
54.440        33
54.460        23
54.480        30
54.500        20
54.520        30
54.540        30
54.560        30
54.580        30
54.600        17
54.620        33
54.640        30
54.660        13
54.680        33
54.700        23
54.720        30
54.740        23
54.760        40
54.780        37
54.800        47
54.820        37
54.840        53
54.860        20
54.880        50
54.900        30
54.920        23
54.940        23
54.960        27
54.980        40
55.000        40
55.020        33
55.040        43
55.060        23
55.080        40
55.100        33
55.120        27
55.140        33
55.160        40
55.180        17
55.200        23
55.220        57
55.240        30
55.260        43
55.280        47
55.300        60
55.320        40
55.340        17
55.360        53
55.380        47
55.400        87
55.420        53
55.440        63
55.460        73
55.480        90
55.500        63
55.520        57
55.540        77
55.560        70
55.580        83
55.600        60
55.620        67
55.640        83
55.660        57
55.680        53
55.700        23
55.720        57
55.740        27
55.760        27
55.780        37
55.800        43
55.820        47
55.840        27
55.860        27
55.880        23
55.900        30
55.920        23
55.940        20
55.960        20
55.980        27
56.000        27
56.020        23
56.040        33
56.060        27
56.080        13
56.100        27
56.120        13
56.140        30
56.160        30
56.180        53
56.200        23
56.220        13
56.240        30
56.260        20
56.280        13
56.300        23
56.320        27
56.340        30
56.360        27
56.380        30
56.400        27
56.420        17
56.440        23
56.460        40
56.480        30
56.500        13
56.520        47
56.540        40
56.560        20
56.580        33
56.600        37
56.620        17
56.640        33
56.660        33
56.680        40
56.700        20
56.720        37
56.740        27
56.760        17
56.780        37
56.800        23
56.820        23
56.840        30
56.860        23
56.880        10
56.900        40
56.920        17
56.940        17
56.960        23
56.980        20
57.000        27
57.020        27
57.040        27
57.060        13
57.080        20
57.100        33
57.120        13
57.140        27
57.160        10
57.180        20
57.200        33
57.220        30
57.240        20
57.260        33
57.280        30
57.300        47
57.320        40
57.340        27
57.360        37
57.380        33
57.400        47
57.420        20
57.440        47
57.460        37
57.480        27
57.500        27
57.520        47
57.540        23
57.560        37
57.580        27
57.600        20
57.620        37
57.640         7
57.660        37
57.680        33
57.700        17
57.720        33
57.740        23
57.760        30
57.780        17
57.800        23
57.820        17
57.840        20
57.860        23
57.880        17
57.900        17
57.920        23
57.940        33
57.960        13
57.980        20
58.000        20
58.020        17
58.040        20
58.060         7
58.080        10
58.100         7
58.120        27
58.140        20
58.160        13
58.180        10
58.200        20
58.220        13
58.240        20
58.260        17
58.280        13
58.300        20
58.320         0
58.340        17
58.360        20
58.380        17
58.400        13
58.420        27
58.440        10
58.460        23
58.480        20
58.500        30
58.520        20
58.540        23
58.560         7
58.580        17
58.600        10
58.620        13
58.640        30
58.660         7
58.680        27
58.700        10
58.720         3
58.740        27
58.760        13
58.780        13
58.800         7
58.820         3
58.840        20
58.860        13
58.880        10
58.900        10
58.920        10
58.940        10
58.960        13
58.980        23
59.000        27
59.020        10
59.040        20
59.060        20
59.080        10
59.100        27
59.120        10
59.140        13
59.160        13
59.180        13
59.200         7
59.220        37
59.240        17
59.260        23
59.280        23
59.300        20
59.320        33
59.340        30
59.360         7
59.380        10
59.400         7
59.420        10
59.440        13
59.460        13
59.480        10
59.500        20
59.520        13
59.540        20
59.560        13
59.580        37
59.600        30
59.620        17
59.640        17
59.660        13
59.680        17
59.700        13
59.720        13
59.740        20
59.760        13
59.780        23
59.800        27
59.820        23
59.840        20
59.860        23
59.880        13
59.900        17
59.920        17
59.940        23
59.960         7
59.980        27
60.000         7
