20.000       153
20.020       137
20.040       157
20.060       140
20.080       147
20.100       160
20.120       137
20.140       153
20.160       147
20.180       153
20.200       147
20.220       150
20.240       170
20.260       163
20.280       140
20.300       190
20.320       107
20.340       153
20.360       137
20.380       107
20.400       110
20.420       103
20.440       150
20.460       173
20.480       143
20.500       160
20.520       123
20.540       197
20.560       107
20.580       140
20.600       120
20.620       187
20.640       123
20.660       120
20.680       140
20.700       123
20.720       120
20.740       133
20.760       123
20.780       163
20.800       160
20.820       130
20.840       133
20.860       137
20.880       133
20.900       130
20.920       110
20.940       170
20.960       133
20.980       153
21.000       137
21.020       170
21.040       133
21.060       167
21.080       150
21.100       123
21.120       133
21.140       127
21.160       153
21.180       110
21.200       137
21.220       103
21.240       127
21.260       117
21.280       140
21.300       110
21.320       117
21.340       117
21.360       157
21.380       127
21.400       133
21.420       123
21.440       153
21.460       127
21.480       113
21.500       163
21.520       107
21.540       137
21.560       123
21.580       110
21.600       120
21.620       130
21.640       120
21.660       130
21.680       187
21.700       170
21.720       170
21.740       197
21.760       147
21.780       140
21.800       150
21.820       157
21.840       183
21.860       140
21.880       153
21.900       153
21.920       127
21.940       153
21.960       177
21.980       187
22.000       223
22.020       147
22.040       253
22.060       203
22.080       167
22.100       190
22.120       203
22.140       177
22.160       183
22.180       163
22.200       177
22.220       150
22.240       203
22.260       197
22.280       243
22.300       160
22.320       177
22.340       230
22.360       190
22.380       200
22.400       163
22.420       173
22.440       210
22.460       217
22.480       240
22.500       183
22.520       157
22.540       217
22.560       163
22.580       193
22.600       200
22.620       197
22.640       267
22.660       193
22.680       197
22.700       177
22.720       197
22.740       220
22.760       217
22.780       190
22.800       193
22.820       250
22.840       227
22.860       237
22.880       220
22.900       243
22.920       267
22.940       273
22.960       350
22.980       293
23.000       300
23.020       330
23.040       337
23.060       470
23.080      1050
23.100      1739
23.120      1913
23.140      1599
23.160       893
23.180       446
23.200       420
23.220       320
23.240       303
23.260       303
23.280       310
23.300       260
23.320       303
23.340       260
23.360       283
23.380       307
23.400       217
23.420       327
23.440       263
23.460       263
23.480       250
23.500       247
23.520       280
23.540       293
23.560       273
23.580       320
23.600       220
23.620       210
23.640       257
23.660       247
23.680       260
23.700       257
23.720       280
23.740       223
23.760       263
23.780       253
23.800       270
23.820       240
23.840       263
23.860       267
23.880       260
23.900       247
23.920       273
23.940       290
23.960       227
23.980       297
24.000       237
24.020       267
24.040       243
24.060       247
24.080       253
24.100       283
24.120       220
24.140       300
24.160       167
24.180       247
24.200       287
24.220       257
24.240       290
24.260       227
24.280       247
24.300       227
24.320       217
24.340       273
24.360       323
24.380       260
24.400       257
24.420       287
24.440       240
24.460       270
24.480       270
24.500       260
24.520       240
24.540       280
24.560       237
24.580       243
24.600       283
24.620       223
24.640       317
24.660       277
24.680       290
24.700       307
24.720       456
24.740       653
24.760       806
24.780       776
24.800       813
24.820       840
24.840       833
24.860       816
24.880       866
24.900       833
24.920       883
24.940       856
24.960       863
24.980       820
25.000       893
25.020       876
25.040       936
25.060       870
25.080       816
25.100       860
25.120       866
25.140       836
25.160       880
25.180       900
25.200       883
25.220       910
25.240      1013
25.260       953
25.280      1053
25.300      1100
25.320      1000
25.340      1303
25.360      1313
25.380      1486
25.400      1699
25.420      2542
25.440      3739
25.460      5531
25.480      7530
25.500      9056
25.520     11299
25.540     13318
25.560     24447
25.580     90174
25.600    153225
25.620    165764
25.640    164261
25.660    130441
25.680    103012
25.700     92153
25.720     53679
25.740     19042
25.760     11932
25.780      9263
25.800      7047
25.820      5161
25.840      3858
25.860      2819
25.880      1933
25.900      1496
25.920      1363
25.940      1313
25.960      1259
25.980      1080
26.000      1146
26.020      1006
26.040       970
26.060       920
26.080       960
26.100       920
26.120       910
26.140       883
26.160       773
26.180       766
26.200       823
26.220       730
26.240       783
26.260       723
26.280       766
26.300       650
26.320       690
26.340       613
26.360       703
26.380       616
26.400       693
26.420       600
26.440       596
26.460       670
26.480       573
26.500       593
26.520       586
26.540       636
26.560       576
26.580       570
26.600       573
26.620       603
26.640       630
26.660       653
26.680       553
26.700       533
26.720       556
26.740       606
26.760       610
26.780       576
26.800       516
26.820       543
26.840       500
26.860       470
26.880       516
26.900       520
26.920       550
26.940       553
26.960       590
26.980       556
27.000       490
27.020       593
27.040       520
27.060       530
27.080       486
27.100       466
27.120       473
27.140       523
27.160       520
27.180       576
27.200       500
27.220       496
27.240       530
27.260       513
27.280       540
27.300       496
27.320       530
27.340       493
27.360       483
27.380       480
27.400       496
27.420       560
27.440       440
27.460       493
27.480       483
27.500       510
27.520       533
27.540       456
27.560       476
27.580       503
27.600       426
27.620       410
27.640       460
27.660       443
27.680       440
27.700       393
27.720       413
27.740       460
27.760       420
27.780       407
27.800       480
27.820       466
27.840       423
27.860       440
27.880       370
27.900       383
27.920       470
27.940       380
27.960       377
27.980       400
28.000       436
28.020       383
28.040       430
28.060       453
28.080       456
28.100       453
28.120       546
28.140       463
28.160       456
28.180       443
28.200       466
28.220       420
28.240       443
28.260       463
28.280       370
28.300       430
28.320       460
28.340       357
28.360       350
28.380       470
28.400       443
28.420       393
28.440       360
28.460       473
28.480       450
28.500       446
28.520       430
28.540       420
28.560       456
28.580       417
28.600       413
28.620       410
28.640       470
28.660       413
28.680       387
28.700       423
28.720       360
28.740       430
28.760       383
28.780       370
28.800       393
28.820       340
28.840       456
28.860       417
28.880       360
28.900       367
28.920       436
28.940       397
28.960       476
28.980       387
29.000       403
29.020       380
29.040       327
29.060       367
29.080       407
29.100       397
29.120       303
29.140       350
29.160       390
29.180       383
29.200       377
29.220       350
29.240       387
29.260       353
29.280       400
29.300       327
29.320       430
29.340       413
29.360       353
29.380       413
29.400       420
29.420       387
29.440       333
29.460       367
29.480       323
29.500       370
29.520       287
29.540       393
29.560       333
29.580       367
29.600       330
29.620       333
29.640       350
29.660       333
29.680       373
29.700       407
29.720       303
29.740       363
29.760       357
29.780       377
29.800       327
29.820       357
29.840       350
29.860       340
29.880       363
29.900       317
29.920       383
29.940       337
29.960       337
29.980       323
30.000       337
30.020       343
30.040       347
30.060       293
30.080       323
30.100       383
30.120       337
30.140       337
30.160       357
30.180       350
30.200       390
30.220       363
30.240       350
30.260       397
30.280       353
30.300       323
30.320       387
30.340       383
30.360       367
30.380       313
30.400       343
30.420       293
30.440       400
30.460       387
30.480       367
30.500       380
30.520       417
30.540       303
30.560       347
30.580       367
30.600       383
30.620       340
30.640       387
30.660       297
30.680       350
30.700       407
30.720       353
30.740       370
30.760       333
30.780       423
30.800       353
30.820       380
30.840       420
30.860       343
30.880       450
30.900       397
30.920       483
30.940       490
30.960       486
30.980       536
31.000       680
31.020       723
31.040       700
31.060       763
31.080      1030
31.100      1163
31.120      1373
31.140      1936
31.160      2872
31.180      3582
31.200      4755
31.220      5821
31.240      6781
31.260      7637
31.280      7437
31.300      6941
31.320      6337
31.340      5538
31.360      4328
31.380      3245
31.400      2456
31.420      1923
31.440      1259
31.460       960
31.480       740
31.500       500
31.520       546
31.540       490
31.560       417
31.580       413
31.600       403
31.620       367
31.640       323
31.660       323
31.680       350
31.700       303
31.720       327
31.740       317
31.760       300
31.780       327
31.800       307
31.820       300
31.840       277
31.860       310
31.880       217
31.900       277
31.920       280
31.940       240
31.960       257
31.980       207
32.000       253
32.020       253
32.040       273
32.060       247
32.080       307
32.100       300
32.120       313
32.140       253
32.160       247
32.180       243
32.200       260
32.220       233
32.240       243
32.260       280
32.280       243
32.300       253
32.320       260
32.340       253
32.360       293
32.380       237
32.400       273
32.420       243
32.440       230
32.460       233
32.480       250
32.500       293
32.520       273
32.540       247
32.560       293
32.580       220
32.600       207
32.620       233
32.640       217
32.660       257
32.680       240
32.700       177
32.720       193
32.740       237
32.760       207
32.780       260
32.800       243
32.820       233
32.840       253
32.860       210
32.880       227
32.900       240
32.920       250
32.940       217
32.960       197
32.980       227
33.000       203
33.020       210
33.040       240
33.060       210
33.080       217
33.100       223
33.120       187
33.140       213
33.160       187
33.180       217
33.200       227
33.220       180
33.240       247
33.260       190
33.280       190
33.300       247
33.320       193
33.340       237
33.360       190
33.380       180
33.400       260
33.420       170
33.440       200
33.460       190
33.480       213
33.500       193
33.520       190
33.540       187
33.560       203
33.580       187
33.600       190
33.620       203
33.640       240
33.660       233
33.680       200
33.700       220
33.720       227
33.740       143
33.760       190
33.780       210
33.800       170
33.820       193
33.840       183
33.860       217
33.880       170
33.900       177
33.920       197
33.940       150
33.960       190
33.980       163
34.000       180
34.020       177
34.040       170
34.060       147
34.080       157
34.100       150
34.120       173
34.140       193
34.160       193
34.180       203
34.200       207
34.220       203
34.240       170
34.260       197
34.280       227
34.300       190
34.320       170
34.340       217
34.360       140
34.380       150
34.400       187
34.420       183
34.440       167
34.460       163
34.480       203
34.500       157
34.520       160
34.540       140
34.560       180
34.580       143
34.600       163
34.620       193
34.640       180
34.660       170
34.680       123
34.700       180
34.720       140
34.740       180
34.760       147
34.780       173
34.800       133
34.820       150
34.840       130
34.860       170
34.880       170
34.900       180
34.920       193
34.940       177
34.960       183
34.980       147
35.000       190
35.020       143
35.040       193
35.060       153
35.080       130
35.100       120
35.120       143
35.140       130
35.160       163
35.180       170
35.200       153
35.220       117
35.240       177
35.260       130
35.280       163
35.300       170
35.320       177
35.340       140
35.360       160
35.380       143
35.400       110
35.420       127
35.440       167
35.460       170
35.480       127
35.500       170
35.520       157
35.540       187
35.560       107
35.580       153
35.600       123
35.620       207
35.640       153
35.660       160
35.680       187
35.700       133
35.720       220
35.740       150
35.760       220
35.780       193
35.800       197
35.820       190
35.840       240
35.860       270
35.880       297
35.900       290
35.920       237
35.940       227
35.960       217
35.980       260
36.000       247
36.020       203
36.040       217
36.060       150
36.080       160
36.100       183
36.120       183
36.140       177
36.160       127
36.180       137
36.200       167
36.220       167
36.240       213
36.260       180
36.280       153
36.300       157
36.320       183
36.340       160
36.360       123
36.380       193
36.400       177
36.420       177
36.440       167
36.460       120
36.480       143
36.500       140
36.520       123
36.540       150
36.560       120
36.580       137
36.600       170
36.620       130
36.640       153
36.660       117
36.680       153
36.700       140
36.720       103
36.740       170
36.760       147
36.780       143
36.800       143
36.820       170
36.840       163
36.860       173
36.880       193
36.900       180
36.920       110
36.940       127
36.960       170
36.980       150
37.000       103
37.020       147
37.040       140
37.060       180
37.080       170
37.100       147
37.120       130
37.140       153
37.160       123
37.180       130
37.200       170
37.220       150
37.240       173
37.260       203
37.280       103
37.300       113
37.320       173
37.340       147
37.360       167
37.380       120
37.400       143
37.420       123
37.440       130
37.460       110
37.480       143
37.500       150
37.520       120
37.540       133
37.560       130
37.580       150
37.600       163
37.620       157
37.640       127
37.660       150
37.680       183
37.700        93
37.720       107
37.740       140
37.760       127
37.780       160
37.800       113
37.820       123
37.840       110
37.860       143
37.880       153
37.900       153
37.920       133
37.940        93
37.960       120
37.980       110
38.000       123
38.020       153
38.040       103
38.060        97
38.080       133
38.100       113
38.120       133
38.140       100
38.160       107
38.180       120
38.200       120
38.220       140
38.240       153
38.260       170
38.280       163
38.300       167
38.320       110
38.340       187
38.360       173
38.380       187
38.400       257
38.420       260
38.440       260
38.460       327
38.480       390
38.500       433
38.520       520
38.540       583
38.560       613
38.580       646
38.600       516
38.620       610
38.640       540
38.660       536
38.680       516
38.700       423
38.720       407
38.740       393
38.760       413
38.780       267
38.800       317
38.820       280
38.840       300
38.860       270
38.880       273
38.900       277
38.920       277
38.940       267
38.960       250
38.980       290
39.000       287
39.020       283
39.040       293
39.060       333
39.080       323
39.100       287
39.120       333
39.140       363
39.160       327
39.180       340
39.200       317
39.220       347
39.240       323
39.260       423
39.280       383
39.300       440
39.320       410
39.340       456
39.360       423
39.380       453
39.400       536
39.420       646
39.440       606
39.460       730
39.480       736
39.500       853
39.520       876
39.540      1166
39.560      1190
39.580      1419
39.600      1683
39.620      1926
39.640      2339
39.660      2899
39.680      3169
39.700      3722
39.720      4688
39.740      5604
39.760      7434
39.780      9483
39.800     11665
39.820     14281
39.840     16453
39.860     18306
39.880     18902
39.900     19349
39.920     19422
39.940     17826
39.960     16040
39.980     14644
40.000     13115
40.020     11082
40.040      8707
40.060      7067
40.080      5661
40.100      4535
40.120      3689
40.140      2746
40.160      2299
40.180      1859
40.200      1533
40.220      1313
40.240      1180
40.260       930
40.280       813
40.300       740
40.320       666
40.340       640
40.360       533
40.380       440
40.400       446
40.420       413
40.440       383
40.460       330
40.480       290
40.500       370
40.520       360
40.540       377
40.560       297
40.580       263
40.600       287
40.620       243
40.640       260
40.660       223
40.680       293
40.700       237
40.720       203
40.740       270
40.760       210
40.780       307
40.800       203
40.820       210
40.840       237
40.860       170
40.880       223
40.900       173
40.920       203
40.940       167
40.960       163
40.980       137
41.000       160
41.020       140
41.040       157
41.060       223
41.080       193
41.100       193
41.120       173
41.140       183
41.160       130
41.180       160
41.200       200
41.220       153
41.240       117
41.260       127
41.280       150
41.300       123
41.320       160
41.340       157
41.360       173
41.380       140
41.400       140
41.420       170
41.440       130
41.460       143
41.480       110
41.500       147
41.520       163
41.540       137
41.560       147
41.580       163
41.600       160
41.620       127
41.640       127
41.660       133
41.680       143
41.700       157
41.720       153
41.740        53
41.760       107
41.780       113
41.800       107
41.820        97
41.840       127
41.860       100
41.880       130
41.900       113
41.920       120
41.940        97
41.960       117
41.980       147
42.000        93
42.020       110
42.040       107
42.060        90
42.080       110
42.100       153
42.120       113
42.140       137
42.160       120
42.180       103
42.200       117
42.220       100
42.240       100
42.260        87
42.280       133
42.300       110
42.320       130
42.340       110
42.360       120
42.380       110
42.400       127
42.420        90
42.440        80
42.460       103
42.480       100
42.500        90
42.520        93
42.540        80
42.560        93
42.580        97
42.600        80
42.620       113
42.640        97
42.660        93
42.680        93
42.700        90
42.720        97
42.740        67
42.760       130
42.780       103
42.800        93
42.820       110
42.840        67
42.860       103
42.880       113
42.900       107
42.920        77
42.940       103
42.960       110
42.980        80
43.000        93
43.020        87
43.040       107
43.060        83
43.080       103
43.100       123
43.120       100
43.140        73
43.160       100
43.180        80
43.200       110
43.220       100
43.240       130
43.260        83
43.280       107
43.300        77
43.320        83
43.340        90
43.360        77
43.380        90
43.400       107
43.420       103
43.440        93
43.460        67
43.480        90
43.500        83
43.520        90
43.540        73
43.560        93
43.580        87
43.600        87
43.620        83
43.640        77
43.660        60
43.680        73
43.700       103
43.720        63
43.740        90
43.760        93
43.780        50
43.800        83
43.820        67
43.840        67
43.860        67
43.880        93
43.900        67
43.920        97
43.940        70
43.960        87
43.980        80
44.000       100
44.020        47
44.040       110
44.060        80
44.080        97
44.100        53
44.120        67
44.140        60
44.160        67
44.180        90
44.200        60
44.220        87
44.240        77
44.260        77
44.280        67
44.300        73
44.320        63
44.340        73
44.360        87
44.380        93
44.400       103
44.420        87
44.440        90
44.460        77
44.480        93
44.500       110
44.520       100
44.540        87
44.560        87
44.580        83
44.600        77
44.620        87
44.640       133
44.660       113
44.680        93
44.700        93
44.720       100
44.740       103
44.760       110
44.780       120
44.800       133
44.820        87
44.840       103
44.860       140
44.880        93
44.900       103
44.920       120
44.940       103
44.960        93
44.980       103
45.000        80
45.020       100
45.040       117
45.060       103
45.080        57
45.100       100
45.120        73
45.140        77
45.160        47
45.180        73
45.200        70
45.220        70
45.240        63
45.260        77
45.280       100
45.300        70
45.320        70
45.340        73
45.360        87
45.380        67
45.400        73
45.420        80
45.440        63
45.460        90
45.480        70
45.500        70
45.520        70
45.540        67
45.560        53
45.580        60
45.600        87
45.620        57
45.640        67
45.660        63
45.680        63
45.700       100
45.720       100
45.740        60
45.760        57
45.780        67
45.800        67
45.820        53
45.840        60
45.860        80
45.880        83
45.900        80
45.920        60
45.940        63
45.960        60
45.980        63
46.000        63
46.020        67
46.040        60
46.060        60
46.080        63
46.100        60
46.120        73
46.140        63
46.160        63
46.180        63
46.200        67
46.220        63
46.240        73
46.260        67
46.280        53
46.300        77
46.320        53
46.340        73
46.360        67
46.380        80
46.400        53
46.420        83
46.440        70
46.460        47
46.480        63
46.500        40
46.520        70
46.540        80
46.560        87
46.580        90
46.600        40
46.620        63
46.640        80
46.660        50
46.680        67
46.700        97
46.720        97
46.740       107
46.760        97
46.780        97
46.800       117
46.820       117
46.840       160
46.860       133
46.880       110
46.900       103
46.920       113
46.940       117
46.960       117
46.980       137
47.000       137
47.020       127
47.040       177
47.060       193
47.080       227
47.100       220
47.120       373
47.140       460
47.160       980
47.180      2039
47.200      2439
47.220      2189
47.240      1409
47.260       816
47.280       526
47.300       370
47.320       277
47.340       217
47.360       197
47.380       127
47.400       123
47.420       127
47.440       130
47.460       143
47.480       117
47.500       127
47.520        90
47.540       127
47.560       123
47.580       120
47.600       107
47.620        87
47.640       127
47.660       103
47.680       100
47.700        70
47.720        93
47.740        90
47.760        93
47.780       107
47.800        53
47.820       117
47.840        67
47.860       103
47.880        60
47.900        63
47.920        83
47.940        70
47.960        93
47.980        70
48.000        80
48.020        90
48.040       103
48.060        77
48.080        63
48.100        90
48.120        70
48.140        83
48.160        87
48.180        73
48.200        90
48.220       107
48.240        77
48.260        60
48.280        90
48.300        77
48.320        53
48.340        60
48.360        83
48.380       100
48.400        67
48.420        73
48.440        53
48.460        53
48.480        53
48.500        83
48.520        63
48.540        63
48.560       103
48.580        57
48.600        23
48.620        53
48.640        33
48.660        47
48.680        93
48.700        90
48.720        73
48.740        57
48.760        70
48.780        77
48.800        53
48.820        57
48.840        63
48.860        70
48.880        47
48.900        50
48.920        77
48.940       107
48.960        87
48.980       103
49.000        57
49.020        80
49.040        63
49.060        50
49.080        83
49.100        50
49.120        63
49.140        53
49.160        73
49.180        93
49.200        60
49.220        53
49.240        53
49.260        70
49.280        70
49.300        53
49.320        73
49.340        57
49.360        83
49.380        50
49.400        50
49.420        77
49.440        73
49.460        57
49.480        50
49.500       100
49.520        77
49.540        67
49.560        77
49.580        50
49.600        47
49.620        43
49.640        63
49.660        73
49.680        70
49.700        43
49.720        53
49.740        60
49.760        73
49.780        37
49.800        60
49.820        67
49.840        57
49.860        63
49.880        67
49.900        93
49.920        33
49.940        17
49.960        83
49.980        63
50.000        60
50.020        43
50.040        60
50.060        23
50.080        40
50.100        53
50.120        67
50.140        67
50.160        27
50.180        47
50.200        90
50.220        50
50.240        57
50.260        67
50.280        43
50.300        83
50.320        63
50.340        67
50.360        83
50.380        57
50.400        60
50.420        67
50.440        60
50.460        53
50.480        80
50.500        67
50.520        53
50.540        60
50.560        57
50.580       120
50.600       107
50.620       140
50.640       167
50.660       253
50.680       307
50.700       486
50.720       550
50.740       580
50.760       520
50.780       553
50.800       610
50.820       550
50.840       563
50.860       613
50.880       593
50.900       616
50.920       573
50.940       610
50.960       580
50.980       583
51.000       536
51.020       630
51.040       556
51.060       560
51.080       543
51.100       580
51.120       633
51.140       620
51.160       556
51.180       623
51.200       580
51.220       603
51.240       586
51.260       566
51.280       560
51.300       630
51.320       543
51.340       660
51.360       683
51.380       550
51.400       613
51.420       600
51.440       680
51.460       570
51.480       650
51.500       563
51.520       613
51.540       623
51.560       613
51.580       543
51.600       570
51.620       620
51.640       686
51.660       606
51.680       673
51.700       596
51.720       600
51.740       666
51.760       640
51.780       716
51.800       663
51.820       743
51.840       710
51.860       760
51.880       746
51.900       686
51.920       693
51.940       786
51.960       770
51.980       816
52.000       943
52.020       823
52.040       983
52.060      1000
52.080       976
52.100       996
52.120       990
52.140      1080
52.160      1160
52.180      1170
52.200      1293
52.220      1240
52.240      1473
52.260      1769
52.280      2196
52.300      2642
52.320      3595
52.340      4245
52.360      4771
52.380      5734
52.400      6747
52.420      7700
52.440      9749
52.460     12608
52.480     15124
52.500     19022
52.520     27099
52.540     54075
52.560    136322
52.580    213075
52.600    232960
52.620    213165
52.640    131248
52.660     60969
52.680     51563
52.700     89647
52.720    135422
52.740    146895
52.760    128095
52.780     74813
52.800     31271
52.820     16037
52.840     12002
52.860     10293
52.880      8806
52.900      6754
52.920      4831
52.940      3405
52.960      2572
52.980      2396
53.000      2089
53.020      1766
53.040      1763
53.060      1569
53.080      1426
53.100      1339
53.120      1250
53.140      1056
53.160      1176
53.180      1056
53.200      1093
53.220       996
53.240      1110
53.260       946
53.280       813
53.300       870
53.320       796
53.340       896
53.360       876
53.380       920
53.400       793
53.420       650
53.440       693
53.460       606
53.480       753
53.500       703
53.520       716
53.540       750
53.560       723
53.580       576
53.600       610
53.620       596
53.640       643
53.660       636
53.680       583
53.700       580
53.720       506
53.740       513
53.760       606
53.780       586
53.800       533
53.820       560
53.840       546
53.860       523
53.880       503
53.900       480
53.920       500
53.940       596
53.960       480
53.980       533
54.000       516
54.020       397
54.040       566
54.060       440
54.080       573
54.100       446
54.120       540
54.140       450
54.160       510
54.180       400
54.200       470
54.220       436
54.240       433
54.260       423
54.280       476
54.300       413
54.320       423
54.340       433
54.360       417
54.380       383
54.400       397
54.420       436
54.440       410
54.460       393
54.480       470
54.500       446
54.520       383
54.540       443
54.560       353
54.580       387
54.600       360
54.620       383
54.640       420
54.660       353
54.680       403
54.700       423
54.720       450
54.740       367
54.760       387
54.780       410
54.800       340
54.820       413
54.840       357
54.860       347
54.880       360
54.900       387
54.920       323
54.940       363
54.960       383
54.980       377
55.000       413
55.020       400
55.040       463
55.060       310
55.080       310
55.100       380
55.120       417
55.140       363
55.160       363
55.180       367
55.200       297
55.220       380
55.240       367
55.260       417
55.280       260
55.300       367
55.320       367
55.340       313
55.360       360
55.380       347
55.400       383
55.420       313
55.440       380
55.460       390
55.480       350
55.500       303
55.520       360
55.540       340
55.560       300
55.580       387
55.600       367
55.620       337
55.640       347
55.660       390
55.680       393
55.700       340
55.720       387
55.740       353
55.760       337
55.780       377
55.800       257
55.820       317
55.840       373
55.860       297
55.880       317
55.900       323
55.920       303
55.940       337
55.960       323
55.980       267
56.000       347
56.020       260
56.040       313
56.060       313
56.080       307
56.100       273
56.120       337
56.140       283
56.160       320
56.180       297
56.200       283
56.220       293
56.240       247
56.260       307
56.280       277
56.300       277
56.320       263
56.340       333
56.360       223
56.380       300
56.400       273
56.420       290
56.440       297
56.460       260
56.480       283
56.500       227
56.520       270
56.540       247
56.560       270
56.580       203
56.600       243
56.620       243
56.640       273
56.660       323
56.680       257
56.700       267
56.720       243
56.740       277
56.760       290
56.780       290
56.800       190
56.820       263
56.840       250
56.860       260
56.880       307
56.900       267
56.920       293
56.940       250
56.960       290
56.980       223
57.000       263
57.020       277
57.040       277
57.060       247
57.080       297
57.100       247
57.120       257
57.140       243
57.160       250
57.180       247
57.200       240
57.220       243
57.240       277
57.260       203
57.280       250
57.300       187
57.320       257
57.340       273
57.360       207
57.380       227
57.400       197
57.420       297
57.440       213
57.460       237
57.480       263
57.500       250
57.520       200
57.540       253
57.560       257
57.580       220
57.600       217
57.620       203
57.640       207
57.660       190
57.680       230
57.700       210
57.720       187
57.740       227
57.760       230
57.780       210
57.800       193
57.820       177
57.840       243
57.860       227
57.880       197
57.900       167
57.920       200
57.940       253
57.960       250
57.980       270
58.000       250
58.020       227
58.040       180
58.060       200
58.080       200
58.100       237
58.120       187
58.140       190
58.160       227
58.180       253
58.200       200
58.220       260
58.240       157
58.260       197
58.280       173
58.300       250
58.320       137
58.340       183
58.360       197
58.380       240
58.400       237
58.420       217
58.440       237
58.460       167
58.480       217
58.500       157
58.520       190
58.540       200
58.560       200
58.580       230
58.600       173
58.620       197
58.640       270
58.660       193
58.680       203
58.700       267
58.720       220
58.740       180
58.760       207
58.780       173
58.800       187
58.820       210
58.840       233
58.860       203
58.880       163
58.900       220
58.920       180
58.940       210
58.960       227
58.980       153
59.000       217
59.020       177
59.040       160
59.060       183
59.080       193
59.100       213
59.120       190
59.140       187
59.160       210
59.180       240
59.200       183
59.220       197
59.240       170
59.260       183
59.280       187
59.300       147
59.320       173
59.340       140
59.360       127
59.380       153
59.400       193
59.420       127
59.440       207
59.460       207
59.480       167
59.500       167
59.520       183
59.540       177
59.560       190
59.580       163
59.600       200
59.620       180
59.640       153
59.660       147
59.680       163
59.700       153
59.720       233
59.740       163
59.760       193
59.780       207
59.800       173
59.820       150
59.840       103
59.860       173
59.880       187
59.900       103
59.920       157
59.940       197
59.960       147
59.980       143
60.000       183
60.020       180
60.040       197
60.060       180
60.080       143
60.100       150
60.120       183
60.140       157
60.160       163
60.180       220
60.200       140
60.220       143
60.240       173
60.260       187
60.280       180
60.300       153
60.320       133
60.340       150
60.360       163
60.380       123
60.400       167
60.420       167
60.440       183
60.460       160
60.480       157
60.500       193
60.520       133
60.540       137
60.560       127
60.580       143
60.600       153
60.620       150
60.640       223
60.660       163
60.680       147
60.700       123
60.720       180
60.740       183
60.760       187
60.780       160
60.800       137
60.820       163
60.840       127
60.860       180
60.880       157
60.900       167
60.920       180
60.940       130
60.960       153
60.980       177
61.000       183
61.020       117
61.040       177
61.060       173
61.080       100
61.100       110
61.120       153
61.140       143
61.160       150
61.180       163
61.200       123
61.220       143
61.240       137
61.260       183
61.280       137
61.300       143
61.320       200
61.340       197
61.360       153
61.380       177
61.400       160
61.420       167
61.440       120
61.460       157
61.480       137
61.500       133
61.520       140
61.540       150
61.560       153
61.580       147
61.600       157
61.620       190
61.640       133
61.660       153
61.680       137
61.700       130
61.720       127
61.740       117
61.760       103
61.780       130
61.800       133
61.820       147
61.840       187
61.860       123
61.880       143
61.900       123
61.920       170
61.940       180
61.960        93
61.980       150
62.000       167
62.020       110
62.040       150
62.060       103
62.080        97
62.100       147
62.120       163
62.140       153
62.160       137
62.180       110
62.200       170
62.220       113
62.240        77
62.260       123
62.280       103
62.300       123
62.320       113
62.340       107
62.360       173
62.380       140
62.400       120
62.420       113
62.440       100
62.460       117
62.480       103
62.500       163
62.520       113
62.540       137
62.560       183
62.580       200
62.600       147
62.620       107
62.640       150
62.660       107
62.680       133
62.700       133
62.720       103
62.740       163
62.760        93
62.780       107
62.800       133
62.820       110
62.840       113
62.860       100
62.880       113
62.900       110
62.920       123
62.940       103
62.960       123
62.980       133
63.000       107
63.020       143
63.040       113
63.060       113
63.080       140
63.100       137
63.120       130
63.140       137
63.160       123
63.180       137
63.200       147
63.220       113
63.240       127
63.260       100
63.280       123
63.300       123
63.320       127
63.340       113
63.360       150
63.380       100
63.400       100
63.420       107
63.440       110
63.460       100
63.480       113
63.500       133
63.520       140
63.540       103
63.560       123
63.580        97
63.600       103
63.620       153
63.640       120
63.660       133
63.680       117
63.700        87
63.720       140
63.740       110
63.760       127
63.780        97
63.800       113
63.820       120
63.840       110
63.860       127
63.880       117
63.900        87
63.920       123
63.940       110
63.960       117
63.980       113
64.000       130
64.020        83
64.040        83
64.060       107
64.080       100
64.100       130
64.120        80
64.140       130
64.160        83
64.180        97
64.200       117
64.220       123
64.240       100
64.260       107
64.280        83
64.300        80
64.320        70
64.340        90
64.360       117
64.380       123
64.400       110
64.420       127
64.440       107
64.460        93
64.480        87
64.500        83
64.520       117
64.540       113
64.560       147
64.580       107
64.600       107
64.620       123
64.640        93
64.660       107
64.680       140
64.700       113
64.720       127
64.740       113
64.760       107
64.780       113
64.800       130
64.820       173
64.840       133
64.860       160
64.880       177
64.900       187
64.920       160
64.940       177
64.960       183
64.980       207
65.000       223
65.020       207
65.040       263
65.060       300
65.080       323
65.100       377
65.120       340
65.140       450
65.160       553
65.180       543
65.200       573
65.220       690
65.240       613
65.260       553
65.280       476
65.300       510
65.320       476
65.340       483
65.360       450
65.380       443
65.400       330
65.420       297
65.440       250
65.460       273
65.480       270
65.500       270
65.520       217
65.540       207
65.560       130
65.580       150
65.600        93
65.620       133
65.640       110
65.660       113
65.680       120
65.700       100
65.720        93
65.740        80
65.760        97
65.780        77
65.800        90
65.820       117
65.840       103
65.860       110
65.880        83
65.900        87
65.920        63
65.940        97
65.960       130
65.980       117
66.000       120
66.020        70
66.040        90
66.060       130
66.080        77
66.100        53
66.120        93
66.140        83
66.160       120
66.180        73
66.200        83
66.220        97
66.240        87
66.260        63
66.280        70
66.300        93
66.320        80
66.340       107
66.360        50
66.380       100
66.400        73
66.420       100
66.440       110
66.460        87
66.480       110
66.500        90
66.520        80
66.540        90
66.560       113
66.580        77
66.600        47
66.620        60
66.640        43
66.660        53
66.680       110
66.700        80
66.720        47
66.740        80
66.760        93
66.780        87
66.800        67
66.820        77
66.840        57
66.860        73
66.880        47
66.900        53
66.920       103
66.940        83
66.960       123
66.980        87
67.000        77
67.020        90
67.040        53
67.060       100
67.080        67
67.100        63
67.120       110
67.140        93
67.160        70
67.180        67
67.200        90
67.220        67
67.240        87
67.260        63
67.280        90
67.300       103
67.320       110
67.340        47
67.360        93
67.380        97
67.400        70
67.420        83
67.440       110
67.460        77
67.480        83
67.500       110
67.520       113
67.540        90
67.560       160
67.580       163
67.600       150
67.620       167
67.640       150
67.660       173
67.680       167
67.700       147
67.720       170
67.740       177
67.760       160
67.780       127
67.800       187
67.820       207
67.840       167
67.860       140
67.880       147
67.900        90
67.920       103
67.940       140
67.960       103
67.980       117
68.000        80
68.020       113
68.040        87
68.060        77
68.080       113
68.100        87
68.120        83
68.140        83
68.160        77
68.180        53
68.200        87
68.220        73
68.240        77
68.260        60
68.280        67
68.300        77
68.320        80
68.340        57
68.360        97
68.380        70
68.400        77
68.420        70
68.440        83
68.460        53
68.480        53
68.500        80
68.520        80
68.540        67
68.560        73
68.580        67
68.600        60
68.620       103
68.640        93
68.660        73
68.680        50
68.700        63
68.720        63
68.740        63
68.760        57
68.780        43
68.800        43
68.820        50
68.840        53
68.860        87
68.880        37
68.900        53
68.920        60
68.940        43
68.960        47
68.980        67
69.000        53
69.020        53
69.040        50
69.060        70
69.080        70
69.100        67
69.120        63
69.140        80
69.160        77
69.180        23
69.200        37
69.220        80
69.240        50
69.260        50
69.280        43
69.300        60
69.320        60
69.340        70
69.360        37
69.380        53
69.400        60
69.420        47
69.440        77
69.460        40
69.480        53
69.500        53
69.520        77
69.540        73
69.560        70
69.580        67
69.600        53
69.620        70
69.640        73
69.660        73
69.680        70
69.700        63
69.720        67
69.740        60
69.760        43
69.780        70
69.800        53
69.820        63
69.840        73
69.860        67
69.880        57
69.900        53
69.920        70
69.940        50
69.960        67
69.980        50
70.000        73
70.020        53
70.040        60
70.060        60
70.080        57
70.100        53
70.120        50
70.140        50
70.160        47
70.180        53
70.200        73
70.220        43
70.240        47
70.260        43
70.280        47
70.300        57
70.320        70
70.340        33
70.360        57
70.380        70
70.400        77
70.420        43
70.440        50
70.460        37
70.480        50
70.500        40
70.520        43
70.540        60
70.560        57
70.580        50
70.600        53
70.620        67
70.640        53
70.660        10
70.680        53
70.700        37
70.720        73
70.740        40
70.760        40
70.780        63
70.800        43
70.820        50
70.840        53
70.860        37
70.880        70
70.900        30
70.920        70
70.940        50
70.960        47
70.980        33
71.000        53
71.020        43
71.040        50
71.060        27
71.080        63
71.100        13
71.120        53
71.140        47
71.160        50
71.180        40
71.200        83
71.220        33
71.240        50
71.260        27
71.280        43
71.300        37
71.320        50
71.340        47
71.360        53
71.380        53
71.400        33
71.420        50
71.440        53
71.460        47
71.480        60
71.500        50
71.520        50
71.540        70
71.560        70
71.580        57
71.600        40
71.620        43
71.640        47
71.660        63
71.680        40
71.700        57
71.720        37
71.740        40
71.760        50
71.780        43
71.800        50
71.820        20
71.840        63
71.860        63
71.880        47
71.900        27
71.920        47
71.940        70
71.960        53
71.980        30
72.000        47
72.020        57
72.040        43
72.060        43
72.080        30
72.100        60
72.120        60
72.140        37
72.160        23
72.180        67
72.200        37
72.220        43
72.240        27
72.260        47
72.280        50
72.300        57
72.320        27
72.340        37
72.360        57
72.380        47
72.400        63
72.420        50
72.440        40
72.460        43
72.480        47
72.500        30
72.520        70
72.540        83
72.560        43
72.580        53
72.600        37
72.620        40
72.640        20
72.660        43
72.680        47
72.700        27
72.720        57
72.740        37
72.760        27
72.780        50
72.800        37
72.820        30
72.840        57
72.860        47
72.880        33
72.900        57
72.920        50
72.940        23
72.960        43
72.980        53
73.000        43
73.020        43
73.040        37
73.060        43
73.080        47
73.100        50
73.120        53
73.140        30
73.160        47
73.180        20
73.200        53
73.220        50
73.240        43
73.260        57
73.280        27
73.300        53
73.320        53
73.340        43
73.360        30
73.380        40
73.400        57
73.420        40
73.440        47
73.460        40
73.480        13
73.500        63
73.520        47
73.540        30
73.560        50
73.580        40
73.600        37
73.620        50
73.640        47
73.660        70
73.680        70
73.700        57
73.720        73
73.740        60
73.760       123
73.780       103
73.800       137
73.820       120
73.840        77
73.860        77
73.880        60
73.900        73
73.920        80
73.940        50
73.960        40
73.980        67
74.000        60
74.020        30
74.040        43
74.060        63
74.080        30
74.100        43
74.120        50
74.140        30
74.160        33
74.180        33
74.200        40
74.220        50
74.240        47
74.260        43
74.280        50
74.300        50
74.320        33
74.340        40
74.360        47
74.380        60
74.400        33
74.420        40
74.440        53
74.460        60
74.480        37
74.500        43
74.520        70
74.540        63
74.560        27
74.580        33
74.600        27
74.620        30
74.640        27
74.660        37
74.680        50
74.700        20
74.720        53
74.740        47
74.760        77
74.780        30
74.800        57
74.820        53
74.840        33
74.860        30
74.880        37
74.900        57
74.920        40
74.940        67
74.960        47
74.980        30
75.000        20
75.020        30
75.040        17
75.060        43
75.080        27
75.100        43
75.120        37
75.140        37
75.160        50
75.180        27
75.200        60
75.220        37
75.240        37
75.260        40
75.280        43
75.300        50
75.320        33
75.340        43
75.360        40
75.380        37
75.400        20
75.420        57
75.440        40
75.460        37
75.480        20
75.500        40
75.520        40
75.540        13
75.560        47
75.580        23
75.600        47
75.620        27
75.640        30
75.660        33
75.680        50
75.700        30
75.720        43
75.740        57
75.760        43
75.780        33
75.800        47
75.820        47
75.840        50
75.860        43
75.880        50
75.900        27
75.920        33
75.940        53
75.960        30
75.980        47
76.000        30
76.020        63
76.040        27
76.060        53
76.080        40
76.100        23
76.120        27
76.140        20
76.160        20
76.180        27
76.200        40
76.220        27
76.240        40
76.260        33
76.280        23
76.300        57
76.320        43
76.340        33
76.360        27
76.380        37
76.400        33
76.420        33
76.440        33
76.460        37
76.480        37
76.500        17
76.520        43
76.540        17
76.560        23
76.580        37
76.600        50
76.620        27
76.640        33
76.660        50
76.680        30
76.700        33
76.720        77
76.740        30
76.760        43
76.780        33
76.800        30
76.820        33
76.840        47
76.860        27
76.880        33
76.900        17
76.920        43
76.940        33
76.960        40
76.980        47
77.000        20
77.020        13
77.040        13
77.060        47
77.080        20
77.100        23
77.120        20
77.140        43
77.160        30
77.180        20
77.200        47
77.220        53
77.240        30
77.260        30
77.280        43
77.300        27
77.320        47
77.340        47
77.360        20
77.380        40
77.400        20
77.420        27
77.440        27
77.460        50
77.480        53
77.500        23
77.520        33
77.540        37
77.560        20
77.580        20
77.600        23
77.620        20
77.640        27
77.660        50
77.680        50
77.700        23
77.720        40
77.740        27
77.760        33
77.780        37
77.800        33
77.820        53
77.840        63
77.860        37
77.880        57
77.900        33
77.920        47
77.940        30
77.960        43
77.980        33
78.000        60
78.020        33
78.040        23
78.060        27
78.080        27
78.100        20
78.120        47
78.140        23
78.160        30
78.180        40
78.200        33
78.220        37
78.240        30
78.260        43
78.280        57
78.300        47
78.320        50
78.340        60
78.360        70
78.380        50
78.400        57
78.420        57
78.440        53
78.460        43
78.480        73
78.500        67
78.520        47
78.540        47
78.560        67
78.580        40
78.600        43
78.620        50
78.640        60
78.660        50
78.680        43
78.700        60
78.720        30
78.740        33
78.760        40
78.780        60
78.800        40
78.820        50
78.840        30
78.860        23
78.880        43
78.900        13
78.920        33
78.940        30
78.960        33
78.980        20
79.000        27
79.020        13
79.040        30
79.060        33
79.080        33
79.100        47
79.120        40
79.140        23
79.160        43
79.180        30
79.200        30
79.220        23
79.240        37
79.260        20
79.280        37
79.300        23
79.320        27
79.340        33
79.360        27
79.380        30
79.400        27
79.420        43
79.440        33
79.460        37
79.480        23
79.500        57
79.520        37
79.540        30
79.560        33
79.580        13
79.600        20
79.620        33
79.640        23
79.660        33
79.680        37
79.700        30
79.720        20
79.740        30
79.760        27
79.780        27
79.800        50
79.820        37
79.840        33
79.860        30
79.880        57
79.900        43
79.920        20
79.940        37
79.960        20
79.980        40
80.000        43
80.020        30
80.040        47
80.060        37
80.080        23
80.100        53
80.120        47
80.140        37
80.160        50
80.180        63
80.200        63
80.220        53
80.240        57
80.260        27
80.280        30
80.300        70
80.320        57
80.340        40
80.360        33
80.380        53
80.400        50
80.420        47
80.440        40
80.460        67
80.480        30
80.500        27
80.520        67
80.540        33
80.560        60
80.580        57
80.600        50
80.620        43
80.640        47
80.660        60
80.680        37
80.700        50
80.720        33
80.740        50
80.760        40
80.780        53
80.800        33
80.820        43
80.840        83
80.860        63
80.880        60
80.900        70
80.920        37
80.940        70
80.960        43
80.980        50
81.000        47
81.020        73
81.040        60
81.060        60
81.080        57
81.100       113
81.120        70
81.140        53
81.160        97
81.180        77
81.200        63
81.220        97
81.240        90
81.260        97
81.280       133
81.300       143
81.320       113
81.340       120
81.360       113
81.380       167
81.400       187
81.420       180
81.440       147
81.460       180
81.480       207
81.500       187
81.520       207
81.540       167
81.560       217
81.580       173
81.600       227
81.620       253
81.640       160
81.660       170
81.680       223
81.700       197
81.720       130
81.740       157
81.760       180
81.780       140
81.800       143
81.820       140
81.840       163
81.860       113
81.880       103
81.900        77
81.920       123
81.940        87
81.960        63
81.980        77
82.000        93
82.020        77
82.040        93
82.060        43
82.080        73
82.100        70
82.120        63
82.140        57
82.160        47
82.180        57
82.200        50
82.220        50
82.240        53
82.260        53
82.280        57
82.300        63
82.320        50
82.340        70
82.360        70
82.380        53
82.400        70
82.420        73
82.440        90
82.460        83
82.480        73
82.500        57
82.520       100
82.540        57
82.560       120
82.580       100
82.600       110
82.620       107
82.640        90
82.660       140
82.680       100
82.700       130
82.720       123
82.740       137
82.760       173
82.780       130
82.800       153
82.820       217
82.840       207
82.860       183
82.880       203
82.900       170
82.920       187
82.940       153
82.960       140
82.980       210
83.000       210
83.020       243
83.040       337
83.060       436
83.080       550
83.100       680
83.120       836
83.140      1116
83.160      1363
83.180      2086
83.200      4508
83.220      9033
83.240     12412
83.260     13235
83.280     10896
83.300      6291
83.320      3545
83.340      2192
83.360      1393
83.380      1240
83.400      1226
83.420      1436
83.440      1936
83.460      3132
83.480      5325
83.500      6794
83.520      6244
83.540      4705
83.560      2949
83.580      1556
83.600      1066
83.620       673
83.640       510
83.660       423
83.680       317
83.700       260
83.720       207
83.740       137
83.760       160
83.780       153
83.800       173
83.820       113
83.840        83
83.860       133
83.880       107
83.900       110
83.920       120
83.940       100
83.960        80
83.980        73
84.000       117
84.020        80
84.040        77
84.060        73
84.080        93
84.100        80
84.120        43
84.140        87
84.160        80
84.180        67
84.200        93
84.220        60
84.240        67
84.260        70
84.280        47
84.300        73
84.320        47
84.340        57
84.360        73
84.380        63
84.400        47
84.420        77
84.440        70
84.460        57
84.480        57
84.500        67
84.520        57
84.540        30
84.560        40
84.580        43
84.600        43
84.620        73
84.640        60
84.660        53
84.680        70
84.700        53
84.720        60
84.740        60
84.760        47
84.780        23
84.800        50
84.820        60
84.840        50
84.860        57
84.880        60
84.900        87
84.920        80
84.940        60
84.960        43
84.980        77
85.000        63
85.020        67
85.040        60
85.060        70
85.080        77
85.100        63
85.120        67
85.140        53
85.160        83
85.180        53
85.200        67
85.220        83
85.240        63
85.260        90
85.280        60
85.300        77
85.320       123
85.340        93
85.360       103
85.380        90
85.400       107
85.420       140
85.440        97
85.460       163
85.480       117
85.500       123
85.520       200
85.540       183
85.560       213
85.580       243
85.600       237
85.620       220
85.640       277
85.660       307
85.680       343
85.700       340
85.720       430
85.740       493
85.760       513
85.780       550
85.800       563
85.820       726
85.840       643
85.860       793
85.880       833
85.900       763
85.920       860
85.940       946
85.960       886
85.980       930
86.000       766
86.020       903
86.040       840
86.060       833
86.080       723
86.100       756
86.120       740
86.140       680
86.160       693
86.180       626
86.200       553
86.220       543
86.240       593
86.260       526
86.280       466
86.300       463
86.320       397
86.340       330
86.360       330
86.380       290
86.400       307
86.420       223
86.440       247
86.460       207
86.480       187
86.500       183
86.520       157
86.540       143
86.560       107
86.580       133
86.600       113
86.620       113
86.640       103
86.660        83
86.680        80
86.700        53
86.720        73
86.740        67
86.760        77
86.780        87
86.800        77
86.820        73
86.840        57
86.860        60
86.880        57
86.900        43
86.920        53
86.940        73
86.960        53
86.980        53
87.000        33
87.020        63
87.040        37
87.060        77
87.080        30
87.100        40
87.120        30
87.140        30
87.160        40
87.180        33
87.200        50
87.220        43
87.240        40
87.260        53
87.280        37
87.300        50
87.320        60
87.340        47
87.360        33
87.380        43
87.400        37
87.420        43
87.440        57
87.460        23
87.480        57
87.500        43
87.520        33
87.540        40
87.560        47
87.580        30
87.600        27
87.620        20
87.640        27
87.660        40
87.680        37
87.700        47
87.720        37
87.740        20
87.760        27
87.780        37
87.800        37
87.820        37
87.840        30
87.860        23
87.880        43
87.900        20
87.920         7
87.940        30
87.960        40
87.980        30
88.000        27
88.020        23
88.040        30
88.060        23
88.080        27
88.100        27
88.120        23
88.140        27
88.160        23
88.180        57
88.200        27
88.220        30
88.240        30
88.260        50
88.280        30
88.300        40
88.320        33
88.340        20
88.360        43
88.380        17
88.400        33
88.420        20
88.440        47
88.460        50
88.480        27
88.500        30
88.520        47
88.540        13
88.560        30
88.580        13
88.600        30
88.620        33
88.640        27
88.660        27
88.680        20
88.700        30
88.720        50
88.740        20
88.760        50
88.780        30
88.800        40
88.820        23
88.840        47
88.860        27
88.880        33
88.900        23
88.920        17
88.940        23
88.960         7
88.980        27
89.000        23
89.020        37
89.040        33
89.060        17
89.080        23
89.100        27
89.120        13
89.140        37
89.160        17
89.180        23
89.200        20
89.220        17
89.240        53
89.260        30
89.280        20
89.300        20
89.320        30
89.340        27
89.360        27
89.380        23
89.400        37
89.420        30
89.440        20
89.460        20
89.480        20
89.500        27
89.520        13
89.540        23
89.560        27
89.580         3
89.600         0
89.620         0
89.640         0
89.660         0
89.680         0
89.700         0
89.720         0
89.740         0
89.760         0
89.780         0
89.800         0
89.820         0
89.840         0
89.860         3
89.880         0
89.900         0
89.920         0
89.940         3
89.960         0
89.980         0
90.000         0
