20.000         0
20.010         0
20.020         0
20.030         0
20.040         0
20.050         0
20.060         0
20.070         0
20.080         0
20.090         0
20.100         0
20.110         0
20.120         0
20.130         0
20.140         0
20.150         0
20.160         0
20.170         0
20.180         0
20.190         0
20.200         0
20.210         0
20.220         0
20.230         0
20.240         0
20.250         0
20.260         0
20.270         0
20.280         0
20.290         0
20.300         0
20.310         0
20.320         0
20.330         0
20.340         0
20.350         0
20.360         0
20.370         0
20.380      1386
20.390      1573
20.400      1566
20.410      1439
20.420      1599
20.430      1659
20.440      1473
20.450      1553
20.460      1726
20.470      1493
20.480      1499
20.490      1559
20.500      1466
20.510      1686
20.520      1559
20.530      1373
20.540      1579
20.550      1439
20.560      1566
20.570      1619
20.580      1753
20.590      1766
20.600      1426
20.610      1579
20.620      1579
20.630      1486
20.640      1739
20.650      1539
20.660      1586
20.670      1679
20.680      1473
20.690      1533
20.700      1473
20.710      1719
20.720      1633
20.730      1459
20.740      1606
20.750      1539
20.760      1713
20.770      1373
20.780      1546
20.790      1466
20.800      1526
20.810      1639
20.820      1386
20.830      1479
20.840      1513
20.850      1693
20.860      1593
20.870      1473
20.880      1433
20.890      1559
20.900      1539
20.910      1446
20.920      1673
20.930      1539
20.940      1586
20.950      1366
20.960      1519
20.970      1453
20.980      1333
20.990      1653
21.000      1546
21.010      1566
21.020      1486
21.030      1546
21.040      1393
21.050      1719
21.060      1599
21.070      1426
21.080      1413
21.090      1593
21.100      1399
21.110      1446
21.120      1533
21.130      1546
21.140      1626
21.150      1493
21.160      1559
21.170      1473
21.180      1533
21.190      1293
21.200      1379
21.210      1299
21.220      1373
21.230      1486
21.240      1246
21.250      1399
21.260      1519
21.270      1393
21.280      1399
21.290      1326
21.300      1739
21.310      1426
21.320      1393
21.330      1486
21.340      1393
21.350      1419
21.360      1539
21.370      1459
21.380      1639
21.390      1633
21.400      1613
21.410      1499
21.420      1339
21.430      1406
21.440      1293
21.450      1499
21.460      1486
21.470      1353
21.480      1359
21.490      1339
21.500      1546
21.510      1313
21.520      1453
21.530      1413
21.540      1293
21.550      1306
21.560      1433
21.570      1339
21.580      1273
21.590      1313
21.600      1486
21.610      1253
21.620      1459
21.630      1519
21.640      1546
21.650      1266
21.660      1286
21.670      1613
21.680      1453
21.690      1213
21.700      1479
21.710      1453
21.720      1386
21.730      1319
21.740      1499
21.750      1153
21.760      1246
21.770      1206
21.780      1373
21.790      1233
21.800      1213
21.810      1379
21.820      1226
21.830      1346
21.840      1539
21.850      1379
21.860      1220
21.870      1246
21.880      1253
21.890      1359
21.900      1419
21.910      1319
21.920      1273
21.930      1259
21.940      1319
21.950      1419
21.960      1453
21.970      1359
21.980      1379
21.990      1393
22.000      1186
22.010      1166
22.020      1359
22.030      1379
22.040      1246
22.050      1053
22.060      1286
22.070      1259
22.080      1226
22.090      1259
22.100      1246
22.110      1246
22.120      1286
22.130       986
22.140      1266
22.150      1166
22.160      1293
22.170      1186
22.180      1246
22.190      1060
22.200      1206
22.210      1286
22.220      1246
22.230      1153
22.240      1133
22.250      1326
22.260      1293
22.270      1113
22.280      1399
22.290      1173
22.300      1253
22.310      1386
22.320      1273
22.330      1226
22.340      1293
22.350      1153
22.360      1206
22.370      1040
22.380      1299
22.390      1206
22.400      1266
22.410      1146
22.420      1200
22.430      1013
22.440      1060
22.450      1173
22.460      1046
22.470      1126
22.480      1226
22.490      1266
22.500      1246
22.510      1126
22.520      1193
22.530      1126
22.540      1120
22.550       926
22.560      1200
22.570      1233
22.580      1180
22.590      1146
22.600      1100
22.610      1246
22.620      1220
22.630      1160
22.640      1240
22.650      1113
22.660      1140
22.670      1200
22.680      1086
22.690      1060
22.700      1000
22.710      1060
22.720      1140
22.730      1246
22.740      1173
22.750      1213
22.760      1146
22.770      1153
22.780      1080
22.790      1113
22.800      1120
22.810      1153
22.820      1026
22.830      1060
22.840      1166
22.850       986
22.860      1080
22.870      1060
22.880      1086
22.890      1180
22.900      1100
22.910      1126
22.920      1080
22.930       933
22.940      1106
22.950      1273
22.960      1306
22.970      1193
22.980      1126
22.990      1100
23.000      1086
23.010      1040
23.020      1040
23.030      1193
23.040      1120
23.050      1046
23.060      1113
23.070      1046
23.080      1026
23.090      1086
23.100      1153
23.110      1153
23.120      1073
23.130      1053
23.140      1240
23.150      1173
23.160      1200
23.170      1020
23.180      1146
23.190      1040
23.200      1026
23.210       986
23.220      1246
23.230      1146
23.240      1006
23.250      1140
23.260      1086
23.270      1093
23.280      1073
23.290       960
23.300       966
23.310      1040
23.320      1020
23.330      1060
23.340       926
23.350      1140
23.360       973
23.370      1140
23.380       980
23.390      1126
23.400      1086
23.410      1040
23.420      1053
23.430      1046
23.440      1000
23.450      1133
23.460       913
23.470      1053
23.480      1080
23.490      1279
23.500      1040
23.510      1166
23.520      1206
23.530      1100
23.540      1093
23.550       993
23.560      1033
23.570      1073
23.580      1146
23.590      1100
23.600      1073
23.610       966
23.620      1020
23.630      1000
23.640       946
23.650       886
23.660      1153
23.670      1000
23.680       993
23.690      1000
23.700      1080
23.710       933
23.720      1073
23.730       900
23.740      1066
23.750      1013
23.760       900
23.770      1100
23.780      1113
23.790      1093
23.800      1033
23.810       980
23.820       946
23.830       933
23.840      1040
23.850       873
23.860       973
23.870      1006
23.880       973
23.890       973
23.900      1026
23.910      1073
23.920       846
23.930      1006
23.940      1066
23.950       933
23.960       786
23.970      1080
23.980       980
23.990      1040
24.000       846
24.010       973
24.020      1006
24.030       880
24.040      1046
24.050       973
24.060       893
24.070       973
24.080       880
24.090       886
24.100       853
24.110       906
24.120       953
24.130       780
24.140       913
24.150       986
24.160       906
24.170       920
24.180       826
24.190      1006
24.200       900
24.210      1000
24.220       980
24.230       920
24.240       966
24.250       860
24.260       933
24.270       960
24.280       813
24.290      1020
24.300      1053
24.310       940
24.320      1053
24.330      1033
24.340       860
24.350       846
24.360       873
24.370       846
24.380       933
24.390       806
24.400       793
24.410       940
24.420       886
24.430       866
24.440       940
24.450       820
24.460       986
24.470       820
24.480       920
24.490       853
24.500       913
24.510       920
24.520       840
24.530       920
24.540       786
24.550      1046
24.560       860
24.570       780
24.580      1000
24.590       960
24.600       826
24.610       933
24.620      1106
24.630       826
24.640       920
24.650       953
24.660       953
24.670       960
24.680       866
24.690      1013
24.700       760
24.710       873
24.720       926
24.730       926
24.740       793
24.750       853
24.760       940
24.770       880
24.780       913
24.790       940
24.800      1000
24.810      1073
24.820       973
24.830       893
24.840       933
24.850       866
24.860       833
24.870       853
24.880       926
24.890       753
24.900       866
24.910       800
24.920       706
24.930       873
24.940       826
24.950       753
24.960       860
24.970       853
24.980       740
24.990       786
25.000       773
25.010       840
25.020       873
25.030       673
25.040       893
25.050       773
25.060       760
25.070       873
25.080       926
25.090       913
25.100       740
25.110       746
25.120       706
25.130       686
25.140       826
25.150       746
25.160       793
25.170       773
25.180       866
25.190       746
25.200       766
25.210       893
25.220       700
25.230       840
25.240       806
25.250       613
25.260       740
25.270       840
25.280       860
25.290       700
25.300       780
25.310       760
25.320       806
25.330       740
25.340       640
25.350       746
25.360       613
25.370       620
25.380       673
25.390       633
25.400       613
25.410       700
25.420       786
25.430       706
25.440       886
25.450       773
25.460       713
25.470       580
25.480       726
25.490       720
25.500       613
25.510       680
25.520       673
25.530       726
25.540       520
25.550       666
25.560       553
25.570       660
25.580       666
25.590       626
25.600       533
25.610       526
25.620       613
25.630       666
25.640       600
25.650       473
25.660       673
25.670       626
25.680       673
25.690       660
25.700       546
25.710       520
25.720       533
25.730       506
25.740       540
25.750       440
25.760       526
25.770       506
25.780       433
25.790       453
25.800       520
25.810       540
25.820       473
25.830       453
25.840       540
25.850       526
25.860       466
25.870       460
25.880       420
25.890       520
25.900       500
25.910       367
25.920       533
25.930       440
25.940       393
25.950       480
25.960       486
25.970       446
25.980       466
25.990       473
26.000       526
26.010       473
26.020       373
26.030       360
26.040       426
26.050       426
26.060       440
26.070       500
26.080       367
26.090       500
26.100       373
26.110       553
26.120       453
26.130       426
26.140       560
26.150       460
26.160       466
26.170       493
26.180       473
26.190       413
26.200       373
26.210       480
26.220       426
26.230       446
26.240       486
26.250       426
26.260       460
26.270       413
26.280       480
26.290       453
26.300       413
26.310       433
26.320       387
26.330       546
26.340       446
26.350       287
26.360       407
26.370       327
26.380       453
26.390       466
26.400       413
26.410       426
26.420       367
26.430       387
26.440       440
26.450       433
26.460       367
26.470       393
26.480       313
26.490       433
26.500       407
26.510       473
26.520       407
26.530       380
26.540       513
26.550       433
26.560       453
26.570       520
26.580       493
26.590       387
26.600       400
26.610       453
26.620       420
26.630       393
26.640       360
26.650       320
26.660       333
26.670       380
26.680       380
26.690       353
26.700       367
26.710       493
26.720       393
26.730       320
26.740       300
26.750       407
26.760       400
26.770       360
26.780       420
26.790       387
26.800       373
26.810       380
26.820       373
26.830       473
26.840       400
26.850       373
26.860       313
26.870       360
26.880       267
26.890       267
26.900       407
26.910       440
26.920       380
26.930       433
26.940       387
26.950       413
26.960       307
26.970       333
26.980       407
26.990       380
27.000       333
27.010       280
27.020       400
27.030       380
27.040       407
27.050       333
27.060       327
27.070       440
27.080       453
27.090       347
27.100       380
27.110       453
27.120       387
27.130       247
27.140       287
27.150       340
27.160       360
27.170       300
27.180       407
27.190       420
27.200       327
27.210       320
27.220       353
27.230       307
27.240       367
27.250       247
27.260       307
27.270       320
27.280       313
27.290       400
27.300       300
27.310       340
27.320       340
27.330       280
27.340       267
27.350       273
27.360       280
27.370       233
27.380       300
27.390       347
27.400       287
27.410       313
27.420       300
27.430       360
27.440       267
27.450       353
27.460       227
27.470       360
27.480       253
27.490       360
27.500       293
27.510       293
27.520       240
27.530       360
27.540       320
27.550       387
27.560       300
27.570       347
27.580       353
27.590       300
27.600       353
27.610       327
27.620       260
27.630       287
27.640       247
27.650       273
27.660       253
27.670       353
27.680       247
27.690       347
27.700       307
27.710       333
27.720       287
27.730       300
27.740       360
27.750       267
27.760       300
27.770       233
27.780       273
27.790       273
27.800       220
27.810       280
27.820       293
27.830       300
27.840       273
27.850       280
27.860       260
27.870       307
27.880       293
27.890       280
27.900       300
27.910       367
27.920       260
27.930       233
27.940       293
27.950       287
27.960       307
27.970       300
27.980       220
27.990       347
28.000       273
28.010       293
28.020       273
28.030       280
28.040       280
28.050       327
28.060       240
28.070       367
28.080       253
28.090       253
28.100       313
28.110       260
28.120       273
28.130       233
28.140       293
28.150       287
28.160       260
28.170       213
28.180       213
28.190       307
28.200       247
28.210       240
28.220       320
28.230       233
28.240       193
28.250       300
28.260       220
28.270       287
28.280       353
28.290       233
28.300       273
28.310       300
28.320       247
28.330       307
28.340       273
28.350       213
28.360       220
28.370       187
28.380       233
28.390       300
28.400       273
28.410       213
28.420       260
28.430       200
28.440       320
28.450       280
28.460       353
28.470       267
28.480       240
28.490       247
28.500       240
28.510       247
28.520       180
28.530       233
28.540       247
28.550       273
28.560       220
28.570       260
28.580       240
28.590       313
28.600       273
28.610       187
28.620       253
28.630       293
28.640       320
28.650       227
28.660       207
28.670       180
28.680       213
28.690       207
28.700       227
28.710       267
28.720       307
28.730       280
28.740       333
28.750       240
28.760       247
28.770       213
28.780       193
28.790       233
28.800       227
28.810       180
28.820       320
28.830       200
28.840       260
28.850       200
28.860       193
28.870       287
28.880       253
28.890       147
28.900       273
28.910       280
28.920       240
28.930       220
28.940       300
28.950       213
28.960       287
28.970       280
28.980       260
28.990       300
29.000       220
29.010       273
29.020       280
29.030       300
29.040       200
29.050       327
29.060       213
29.070       253
29.080       373
29.090       267
29.100       293
29.110       340
29.120       287
29.130       407
29.140       307
29.150       347
29.160       400
29.170       413
29.180       367
29.190       353
29.200       367
29.210       453
29.220       520
29.230       500
29.240       453
29.250       493
29.260       466
29.270       546
29.280       433
29.290       500
29.300       473
29.310       493
29.320       513
29.330       433
29.340       453
29.350       460
29.360       320
29.370       320
29.380       367
29.390       373
29.400       340
29.410       227
29.420       233
29.430       267
29.440       267
29.450       260
29.460       233
29.470       233
29.480       247
29.490       287
29.500       320
29.510       380
29.520       500
29.530       393
29.540       446
29.550       380
29.560       367
29.570       400
29.580       400
29.590       307
29.600       407
29.610       333
29.620       287
29.630       300
29.640       360
29.650       207
29.660       187
29.670       273
29.680       180
29.690       207
29.700       307
29.710       240
29.720       260
29.730       260
29.740       267
29.750       187
29.760       253
29.770       227
29.780       187
29.790       253
29.800       213
29.810       247
29.820       280
29.830       160
29.840       260
29.850       300
29.860       193
29.870       233
29.880       267
29.890       227
29.900       240
29.910       273
29.920       127
29.930       167
29.940       240
29.950       213
29.960       173
29.970       247
29.980       173
29.990       213
30.000       233
30.010       140
30.020       187
30.030       247
30.040       200
30.050       213
30.060       273
30.070       233
30.080       220
30.090       240
30.100       207
30.110       180
30.120       233
30.130       220
30.140       213
30.150       193
30.160       187
30.170       220
30.180       193
30.190       173
30.200       240
30.210       193
30.220       153
30.230       187
30.240       140
30.250       160
30.260       273
30.270       220
30.280       247
30.290       280
30.300       193
30.310       200
30.320       233
30.330       247
30.340       193
30.350       220
30.360       200
30.370       260
30.380       267
30.390       173
30.400       240
30.410       240
30.420       333
30.430       273
30.440       260
30.450       227
30.460       287
30.470       273
30.480       320
30.490       207
30.500       287
30.510       300
30.520       327
30.530       360
30.540       373
30.550       453
30.560       367
30.570       513
30.580       453
30.590       513
30.600       533
30.610       426
30.620       613
30.630       380
30.640       540
30.650       500
30.660       400
30.670       506
30.680       506
30.690       493
30.700       367
30.710       500
30.720       526
30.730       446
30.740       400
30.750       353
30.760       347
30.770       360
30.780       320
30.790       327
30.800       240
30.810       220
30.820       320
30.830       213
30.840       227
30.850       200
30.860       220
30.870       160
30.880       180
30.890       213
30.900       227
30.910       220
30.920       267
30.930       260
30.940       233
30.950       227
30.960       193
30.970       133
30.980       187
30.990       253
31.000       220
31.010       147
31.020       240
31.030       247
31.040       200
31.050       167
31.060       247
31.070       153
31.080       207
31.090       213
31.100       180
31.110       227
31.120       200
31.130       247
31.140       287
31.150       267
31.160       227
31.170       240
31.180       227
31.190       280
31.200       193
31.210       227
31.220       233
31.230       267
31.240       220
31.250       260
31.260       253
31.270       153
31.280       187
31.290       220
31.300       260
31.310       220
31.320       233
31.330       227
31.340       313
31.350       227
31.360       187
31.370       200
31.380       240
31.390       260
31.400       213
31.410       193
31.420       280
31.430       320
31.440       213
31.450       167
31.460       227
31.470       227
31.480       267
31.490       273
31.500       253
31.510       207
31.520       200
31.530       147
31.540       247
31.550       273
31.560       227
31.570       213
31.580       233
31.590       200
31.600       260
31.610       293
31.620       320
31.630       280
31.640       227
31.650       227
31.660       213
31.670       173
31.680       227
31.690       260
31.700       173
31.710       273
31.720       267
31.730       240
31.740       313
31.750       220
31.760       287
31.770       333
31.780       233
31.790       293
31.800       367
31.810       400
31.820       513
31.830       486
31.840       626
31.850       533
31.860       473
31.870       533
31.880       486
31.890       506
31.900       680
31.910       653
31.920       620
31.930       620
31.940       666
31.950       586
31.960       720
31.970       673
31.980       613
31.990       633
32.000       893
32.010       800
32.020       920
32.030      1353
32.040      1666
32.050      2679
32.060      4085
32.070      5678
32.080      7304
32.090      7670
32.100      8510
32.110      8517
32.120      7717
32.130      6391
32.140      4525
32.150      3472
32.160      2206
32.170      1659
32.180      1299
32.190       973
32.200      1060
32.210       906
32.220       820
32.230       600
32.240       680
32.250       646
32.260       573
32.270       700
32.280       606
32.290       620
32.300       513
32.310       460
32.320       446
32.330       433
32.340       353
32.350       466
32.360       440
32.370       333
32.380       367
32.390       460
32.400       446
32.410       560
32.420       413
32.430       420
32.440       367
32.450       393
32.460       453
32.470       393
32.480       347
32.490       380
32.500       360
32.510       387
32.520       460
32.530       426
32.540       400
32.550       400
32.560       407
32.570       433
32.580       360
32.590       367
32.600       307
32.610       340
32.620       520
32.630       433
32.640       367
32.650       360
32.660       426
32.670       360
32.680       380
32.690       367
32.700       393
32.710       380
32.720       387
32.730       413
32.740       387
32.750       327
32.760       446
32.770       340
32.780       380
32.790       367
32.800       367
32.810       340
32.820       293
32.830       327
32.840       420
32.850       333
32.860       380
32.870       293
32.880       393
32.890       333
32.900       307
32.910       387
32.920       360
32.930       280
32.940       320
32.950       353
32.960       340
32.970       333
32.980       247
32.990       307
33.000       313
33.010       327
33.020       387
33.030       313
33.040       407
33.050       340
33.060       267
33.070       320
33.080       367
33.090       340
33.100       280
33.110       320
33.120       373
33.130       333
33.140       353
33.150       373
33.160       233
33.170       287
33.180       367
33.190       300
33.200       373
33.210       340
33.220       327
33.230       360
33.240       407
33.250       426
33.260       393
33.270       393
33.280       313
33.290       293
33.300       300
33.310       300
33.320       367
33.330       313
33.340       360
33.350       233
33.360       293
33.370       307
33.380       267
33.390       260
33.400       307
33.410       273
33.420       353
33.430       313
33.440       280
33.450       347
33.460       327
33.470       353
33.480       327
33.490       360
33.500       333
33.510       333
33.520       260
33.530       353
33.540       367
33.550       320
33.560       393
33.570       320
33.580       307
33.590       327
33.600       300
33.610       240
33.620       273
33.630       367
33.640       340
33.650       327
33.660       260
33.670       313
33.680       333
33.690       327
33.700       307
33.710       273
33.720       287
33.730       367
33.740       320
33.750       393
33.760       220
33.770       360
33.780       353
33.790       293
33.800       446
33.810       313
33.820       320
33.830       253
33.840       307
33.850       333
33.860       247
33.870       307
33.880       347
33.890       360
33.900       300
33.910       367
33.920       247
33.930       360
33.940       340
33.950       300
33.960       320
33.970       313
33.980       293
33.990       340
34.000       413
34.010       273
34.020       273
34.030       260
34.040       307
34.050       280
34.060       253
34.070       373
34.080       340
34.090       320
34.100       347
34.110       280
34.120       253
34.130       426
34.140       313
34.150       320
34.160       380
34.170       380
34.180       367
34.190       340
34.200       393
34.210       333
34.220       293
34.230       280
34.240       426
34.250       333
34.260       533
34.270       433
34.280       327
34.290       333
34.300       453
34.310       446
34.320       553
34.330       546
34.340       686
34.350       926
34.360      1093
34.370      1399
34.380      1513
34.390      1646
34.400      2199
34.410      2246
34.420      2512
34.430      2386
34.440      2532
34.450      2579
34.460      2492
34.470      2512
34.480      2412
34.490      2566
34.500      2866
34.510      2719
34.520      2812
34.530      2772
34.540      2626
34.550      2526
34.560      2686
34.570      2672
34.580      2492
34.590      2546
34.600      2546
34.610      2539
34.620      2772
34.630      2586
34.640      2332
34.650      2726
34.660      2812
34.670      2479
34.680      2532
34.690      2732
34.700      2846
34.710      2439
34.720      2839
34.730      2772
34.740      2559
34.750      2652
34.760      2472
34.770      2639
34.780      2772
34.790      2712
34.800      2659
34.810      2712
34.820      2652
34.830      2426
34.840      2346
34.850      2526
34.860      2732
34.870      2492
34.880      2812
34.890      2592
34.900      2766
34.910      2672
34.920      2879
34.930      2779
34.940      2606
34.950      2766
34.960      2872
34.970      2646
34.980      2792
34.990      2872
35.000      2639
35.010      2819
35.020      2779
35.030      2925
35.040      2972
35.050      3145
35.060      3052
35.070      3025
35.080      3299
35.090      2892
35.100      3072
35.110      2945
35.120      2846
35.130      2992
35.140      3379
35.150      3112
35.160      3359
35.170      3285
35.180      3572
35.190      3319
35.200      3265
35.210      3405
35.220      4145
35.230      3825
35.240      3685
35.250      3765
35.260      3712
35.270      4378
35.280      4038
35.290      4352
35.300      4625
35.310      4671
35.320      4905
35.330      5191
35.340      5271
35.350      5838
35.360      6644
35.370      6611
35.380      8450
35.390     10089
35.400     12162
35.410     15087
35.420     18866
35.430     22211
35.440     26190
35.450     30454
35.460     34320
35.470     37158
35.480     39151
35.490     41950
35.500     43649
35.510     45129
35.520     48027
35.530     52053
35.540     57824
35.550     68519
35.560     90257
35.570    137578
35.580    217680
35.590    280155
35.600    304738
35.610    301719
35.620    297461
35.630    298441
35.640    298107
35.650    303372
35.660    300580
35.670    290650
35.680    278182
35.690    276296
35.700    281974
35.710    285746
35.720    286126
35.730    285233
35.740    272778
35.750    247621
35.760    200413
35.770    146941
35.780     95862
35.790     63854
35.800     47448
35.810     37039
35.820     31974
35.830     26703
35.840     22977
35.850     20618
35.860     17666
35.870     16080
35.880     13448
35.890     11955
35.900     10076
35.910      9163
35.920      8457
35.930      7031
35.940      7277
35.950      6431
35.960      5911
35.970      5691
35.980      5365
35.990      5071
36.000      4925
36.010      4785
36.020      4725
36.030      4758
36.040      4385
36.050      4178
36.060      4205
36.070      4092
36.080      4045
36.090      3925
36.100      3865
36.110      3739
36.120      3319
36.130      3952
36.140      3585
36.150      3672
36.160      3519
36.170      3492
36.180      3199
36.190      3125
36.200      3239
36.210      3139
36.220      3039
36.230      3319
36.240      3012
36.250      3019
36.260      2792
36.270      2886
36.280      2846
36.290      2652
36.300      2692
36.310      2632
36.320      2512
36.330      2639
36.340      2546
36.350      2432
36.360      2566
36.370      2546
36.380      2559
36.390      2452
36.400      2519
36.410      2406
36.420      2366
36.430      2252
36.440      2199
36.450      2446
36.460      2366
36.470      2526
36.480      2132
36.490      2186
36.500      2179
36.510      2326
36.520      2272
36.530      2266
36.540      1993
36.550      2239
36.560      2306
36.570      2019
36.580      2239
36.590      1999
36.600      2146
36.610      2192
36.620      2172
36.630      2232
36.640      2053
36.650      2086
36.660      2259
36.670      2013
36.680      1919
36.690      1866
36.700      2019
36.710      1879
36.720      1933
36.730      1859
36.740      1979
36.750      1873
36.760      1946
36.770      1946
36.780      1846
36.790      1913
36.800      1993
36.810      1853
36.820      1879
36.830      1706
36.840      1906
36.850      1973
36.860      1926
36.870      1819
36.880      1819
36.890      1739
36.900      1706
36.910      2026
36.920      1826
36.930      1946
36.940      1866
36.950      1733
36.960      1566
36.970      1659
36.980      1679
36.990      1766
37.000      1893
37.010      1893
37.020      1846
37.030      1633
37.040      1759
37.050      1746
37.060      1813
37.070      1553
37.080      1733
37.090      1599
37.100      1706
37.110      1873
37.120      1746
37.130      1773
37.140      1593
37.150      1586
37.160      1626
37.170      1466
37.180      1759
37.190      1533
37.200      1653
37.210      1546
37.220      1713
37.230      1699
37.240      1653
37.250      1733
37.260      1666
37.270      1546
37.280      1526
37.290      1633
37.300      1613
37.310      1499
37.320      1459
37.330      1399
37.340      1926
37.350      1619
37.360      1586
37.370      1573
37.380      1519
37.390      1419
37.400      1433
37.410      1546
37.420      1626
37.430      1433
37.440      1446
37.450      1439
37.460      1533
37.470      1499
37.480      1459
37.490      1533
37.500      1459
37.510      1553
37.520      1426
37.530      1533
37.540      1379
37.550      1473
37.560      1499
37.570      1659
37.580      1273
37.590      1466
37.600      1686
37.610      1699
37.620      1526
37.630      1626
37.640      1513
37.650      1546
37.660      1573
37.670      1666
37.680      1693
37.690      1459
37.700      1619
37.710      1473
37.720      1766
37.730      1693
37.740      1693
37.750      1866
37.760      1893
37.770      1886
37.780      1919
37.790      2013
37.800      1786
37.810      1966
37.820      1853
37.830      1973
37.840      2092
37.850      1999
37.860      1993
37.870      1913
37.880      1799
37.890      1866
37.900      1706
37.910      1906
37.920      1419
37.930      1713
37.940      1653
37.950      1599
37.960      1653
37.970      1559
37.980      1619
37.990      1519
38.000      1319
38.010      1333
38.020      1393
38.030      1379
38.040      1173
38.050      1406
38.060      1233
38.070      1213
38.080      1359
38.090      1200
38.100      1240
38.110      1299
38.120      1319
38.130      1286
38.140      1313
38.150      1166
38.160      1359
38.170      1240
38.180      1333
38.190      1240
38.200      1306
38.210      1186
38.220      1439
38.230      1253
38.240      1226
38.250      1000
38.260      1233
38.270      1220
38.280      1146
38.290      1146
38.300      1339
38.310      1379
38.320      1200
38.330      1259
38.340      1226
38.350      1379
38.360      1053
38.370      1180
38.380      1273
38.390      1133
38.400      1053
38.410      1346
38.420      1373
38.430      1040
38.440      1279
38.450      1319
38.460      1226
38.470      1240
38.480      1220
38.490      1080
38.500      1413
38.510      1226
38.520      1226
38.530      1193
38.540      1193
38.550      1193
38.560      1100
38.570      1100
38.580      1133
38.590      1100
38.600      1053
38.610      1273
38.620      1040
38.630      1086
38.640      1299
38.650      1080
38.660      1106
38.670      1160
38.680      1126
38.690      1093
38.700       913
38.710      1113
38.720      1113
38.730      1066
38.740      1066
38.750      1073
38.760      1279
38.770      1166
38.780      1120
38.790       960
38.800      1193
38.810      1193
38.820       966
38.830      1173
38.840      1153
38.850       953
38.860      1133
38.870      1200
38.880      1040
38.890      1060
38.900      1080
38.910      1166
38.920      1246
38.930      1080
38.940      1146
38.950      1180
38.960      1160
38.970      1033
38.980      1100
38.990      1173
39.000      1046
39.010      1100
39.020      1046
39.030      1020
39.040      1086
39.050       993
39.060      1006
39.070      1060
39.080      1073
39.090      1033
39.100      1126
39.110      1073
39.120      1013
39.130      1186
39.140      1113
39.150      1133
39.160       986
39.170      1006
39.180      1080
39.190      1073
39.200      1006
39.210      1046
39.220      1093
39.230      1000
39.240       940
39.250      1053
39.260      1046
39.270       973
39.280      1073
39.290      1120
39.300      1053
39.310      1073
39.320      1000
39.330       933
39.340      1133
39.350       900
39.360      1026
39.370      1066
39.380       993
39.390      1060
39.400       986
39.410      1166
39.420       946
39.430       920
39.440       906
39.450      1020
39.460       940
39.470       940
39.480      1033
39.490      1006
39.500       920
39.510       946
39.520      1000
39.530      1100
39.540       826
39.550       940
39.560       966
39.570       840
39.580       993
39.590       866
39.600       880
39.610       900
39.620      1013
39.630       920
39.640       900
39.650      1073
39.660       880
39.670      1000
39.680       973
39.690      1020
39.700       900
39.710       980
39.720       906
39.730       906
39.740       820
39.750       846
39.760       886
39.770       873
39.780       866
39.790      1020
39.800       846
39.810       926
39.820       873
39.830       793
39.840       940
39.850      1126
39.860       880
39.870       913
39.880       886
39.890       860
39.900       913
39.910       726
39.920       933
39.930       926
39.940       873
39.950       806
39.960       973
39.970       973
39.980       946
39.990       906
40.000       940
40.010       773
40.020       886
40.030       893
40.040       833
40.050       780
40.060       766
40.070       813
40.080       866
40.090       880
40.100       820
40.110       760
40.120       813
40.130       693
40.140      1006
40.150       833
40.160       893
40.170       926
40.180       833
40.190       780
40.200       820
40.210       840
40.220       640
40.230       886
40.240       806
40.250       713
40.260       833
40.270       860
40.280       786
40.290       846
40.300       880
40.310       980
40.320       726
40.330       773
40.340       813
40.350       806
40.360       733
40.370       733
40.380       773
40.390       720
40.400       773
40.410       760
40.420      1040
40.430       646
40.440       833
40.450       733
40.460       960
40.470       893
40.480       933
40.490       780
40.500       766
40.510       740
40.520       920
40.530       633
40.540       733
40.550       680
40.560       860
40.570       673
40.580       813
40.590       806
40.600       873
40.610       800
40.620       893
40.630       786
40.640       813
40.650       833
40.660       753
40.670       853
40.680       946
40.690       646
40.700       713
40.710       880
40.720       700
40.730       726
40.740       726
40.750       733
40.760       673
40.770       753
40.780       693
40.790       780
40.800       753
40.810       593
40.820       706
40.830       693
40.840       766
40.850       726
40.860       853
40.870       706
40.880       766
40.890       793
40.900       800
40.910       693
40.920       760
40.930       766
40.940       760
40.950       746
40.960       826
40.970       820
40.980       673
40.990       773
41.000       600
41.010       666
41.020       833
41.030       726
41.040       713
41.050       786
41.060       666
41.070       606
41.080       640
41.090       706
41.100       800
41.110       853
41.120       733
41.130       760
41.140       720
41.150       746
41.160       613
41.170       720
41.180       613
41.190       753
41.200       700
41.210       653
41.220       713
41.230       613
41.240       766
41.250       733
41.260       766
41.270       653
41.280       606
41.290       693
41.300       640
41.310       693
41.320       700
41.330       753
41.340       653
41.350       653
41.360       786
41.370       546
41.380       786
41.390       673
41.400       613
41.410       766
41.420       700
41.430       700
41.440       840
41.450       653
41.460       720
41.470       713
41.480       626
41.490       673
41.500       673
41.510       526
41.520       786
41.530       726
41.540       586
41.550       700
41.560       706
41.570       740
41.580       646
41.590       653
41.600       553
41.610       633
41.620       686
41.630       580
41.640       713
41.650       746
41.660       726
41.670       693
41.680       653
41.690       586
41.700       666
41.710       706
41.720       660
41.730       546
41.740       726
41.750       580
41.760       793
41.770       593
41.780       766
41.790       846
41.800       806
41.810       900
41.820       766
41.830       813
41.840       933
41.850       880
41.860       646
41.870       646
41.880       826
41.890       800
41.900       860
41.910       746
41.920       720
41.930       680
41.940       673
41.950       646
41.960       753
41.970       713
41.980       713
41.990       560
42.000       706
42.010       573
42.020       646
42.030       720
42.040       606
42.050       613
42.060       533
42.070       660
42.080       746
42.090       466
42.100       613
42.110       653
42.120       526
42.130       526
42.140       680
42.150       626
42.160       586
42.170       606
42.180       633
42.190       540
42.200       466
42.210       566
42.220       640
42.230       593
42.240       580
42.250       633
42.260       593
42.270       646
42.280       486
42.290       520
42.300       653
42.310       526
42.320       626
42.330       600
42.340       593
42.350       493
42.360       606
42.370       593
42.380       653
42.390       660
42.400       566
42.410       513
42.420       580
42.430       653
42.440       626
42.450       633
42.460       613
42.470       553
42.480       460
42.490       513
42.500       526
42.510       580
42.520       453
42.530       626
42.540       586
42.550       513
42.560       626
42.570       453
42.580       600
42.590       506
42.600       480
42.610       620
42.620       620
42.630       466
42.640       566
42.650       506
42.660       533
42.670       486
42.680       540
42.690       513
42.700       506
42.710       600
42.720       433
42.730       613
42.740       606
42.750       553
42.760       506
42.770       553
42.780       533
42.790       560
42.800       546
42.810       593
42.820       553
42.830       600
42.840       620
42.850       573
42.860       533
42.870       600
42.880       453
42.890       600
42.900       460
42.910       353
42.920       626
42.930       513
42.940       586
42.950       593
42.960       540
42.970       506
42.980       526
42.990       586
43.000       666
43.010       600
43.020       626
43.030       546
43.040       426
43.050       566
43.060       460
43.070       720
43.080       546
43.090       546
43.100       606
43.110       513
43.120       573
43.130       593
43.140       506
43.150       433
43.160       506
43.170       466
43.180       600
43.190       500
43.200       573
43.210       407
43.220       473
43.230       580
43.240       466
43.250       480
43.260       573
43.270       540
43.280       480
43.290       493
43.300       506
43.310       520
43.320       586
43.330       486
43.340       480
43.350       466
43.360       586
43.370       546
43.380       473
43.390       480
43.400       500
43.410       407
43.420       440
43.430       373
43.440       520
43.450       460
43.460       407
43.470       513
43.480       480
43.490       480
43.500       313
43.510       500
43.520       380
43.530       466
43.540       453
43.550       473
43.560       486
43.570       466
43.580       453
43.590       586
43.600       373
43.610       533
43.620       500
43.630       446
43.640       413
43.650       466
43.660       513
43.670       506
43.680       453
43.690       453
43.700       513
43.710       446
43.720       433
43.730       440
43.740       407
43.750       493
43.760       420
43.770       466
43.780       407
43.790       540
43.800       446
43.810       580
43.820       353
43.830       407
43.840       453
43.850       553
43.860       533
43.870       407
43.880       513
43.890       453
43.900       407
43.910       387
43.920       560
43.930       426
43.940       387
43.950       440
43.960       520
43.970       473
43.980       433
43.990       380
44.000       453
44.010       493
44.020       466
44.030       407
44.040       333
44.050       526
44.060       393
44.070       453
44.080       480
44.090       466
44.100       400
44.110       407
44.120       433
44.130       500
44.140       373
44.150       413
44.160       420
44.170       360
44.180       413
44.190       400
44.200       393
44.210       500
44.220       433
44.230       473
44.240       333
44.250       420
44.260       367
44.270       473
44.280       413
44.290       426
44.300       407
44.310       373
44.320       313
44.330       433
44.340       466
44.350       480
44.360       313
44.370       426
44.380       360
44.390       360
44.400       353
44.410       440
44.420       393
44.430       440
44.440       293
44.450       333
44.460       400
44.470       433
44.480       353
44.490       460
44.500       453
44.510       440
44.520       340
44.530       387
44.540       407
44.550       360
44.560       353
44.570       473
44.580       393
44.590       413
44.600       387
44.610       486
44.620       373
44.630       407
44.640       413
44.650       387
44.660       393
44.670       526
44.680       400
44.690       433
44.700       373
44.710       407
44.720       347
44.730       407
44.740       300
44.750       493
44.760       393
44.770       320
44.780       307
44.790       400
44.800       360
44.810       327
44.820       393
44.830       340
44.840       313
44.850       407
44.860       333
44.870       293
44.880       360
44.890       353
44.900       387
44.910       340
44.920       340
44.930       480
44.940       387
44.950       407
44.960       426
44.970       373
44.980       320
44.990       293
45.000       387
45.010       387
45.020       320
45.030       307
45.040       380
45.050       333
45.060       426
45.070       320
45.080       413
45.090       367
45.100       327
45.110       293
45.120       327
45.130       333
45.140       327
45.150       287
45.160       320
45.170       453
45.180       340
45.190       327
45.200       347
45.210       347
45.220       426
45.230       433
45.240       293
45.250       333
45.260       347
45.270       300
45.280       380
45.290       327
45.300       380
45.310       360
45.320       327
45.330       380
45.340       313
45.350       333
45.360       360
45.370       307
45.380       307
45.390       360
45.400       393
45.410       307
45.420       327
45.430       426
45.440       353
45.450       353
45.460       387
45.470       247
45.480       320
45.490       320
45.500       253
45.510       340
45.520       300
45.530       253
45.540       327
45.550       400
45.560       267
45.570       367
45.580       393
45.590       327
45.600       327
45.610       373
45.620       327
45.630       347
45.640       333
45.650       300
45.660       353
45.670       367
45.680       367
45.690       367
45.700       360
45.710       327
45.720       300
45.730       380
45.740       347
45.750       340
45.760       327
45.770       313
45.780       327
45.790       380
45.800       313
45.810       273
45.820       287
45.830       313
45.840       273
45.850       260
45.860       280
45.870       293
45.880       340
45.890       313
45.900       267
45.910       340
45.920       240
45.930       320
45.940       340
45.950       300
45.960       267
45.970       333
45.980       320
45.990       300
46.000       300
46.010       313
46.020       313
46.030       353
46.040       260
46.050       327
46.060       320
46.070       260
46.080       267
46.090       280
46.100       273
46.110       287
46.120       353
46.130       380
46.140       253
46.150       280
46.160       287
46.170       373
46.180       253
46.190       347
46.200       267
46.210       247
46.220       300
46.230       373
46.240       327
46.250       280
46.260       273
46.270       273
46.280       353
46.290       293
46.300       253
46.310       267
46.320       253
46.330       293
46.340       360
46.350       187
46.360       360
46.370       280
46.380       300
46.390       307
46.400       373
46.410       287
46.420       273
46.430       333
46.440       247
46.450       353
46.460       260
46.470       313
46.480       327
46.490       293
46.500       233
46.510       347
46.520       233
46.530       213
46.540       280
46.550       307
46.560       353
46.570       260
46.580       307
46.590       247
46.600       347
46.610       260
46.620       320
46.630       187
46.640       260
46.650       293
46.660       253
46.670       267
46.680       273
46.690       327
46.700       287
46.710       327
46.720       313
46.730       307
46.740       267
46.750       280
46.760       280
46.770       293
46.780       200
46.790       267
46.800       300
46.810       313
46.820       293
46.830       340
46.840       367
46.850       267
46.860       273
46.870       340
46.880       227
46.890       287
46.900       273
46.910       307
46.920       220
46.930       333
46.940       280
46.950       307
46.960       293
46.970       307
46.980       300
46.990       307
47.000       360
47.010       287
47.020       300
47.030       293
47.040       307
47.050       347
47.060       293
47.070       320
47.080       260
47.090       247
47.100       280
47.110       347
47.120       327
47.130       253
47.140       353
47.150       300
47.160       347
47.170       267
47.180       353
47.190       273
47.200       327
47.210       313
47.220       293
47.230       273
47.240       273
47.250       460
47.260       360
47.270       313
47.280       327
47.290       353
47.300       380
47.310       353
47.320       340
47.330       333
47.340       387
47.350       373
47.360       307
47.370       426
47.380       313
47.390       413
47.400       353
47.410       373
47.420       393
47.430       340
47.440       453
47.450       280
47.460       300
47.470       280
47.480       273
47.490       227
47.500       373
47.510       393
47.520       387
47.530       233
47.540       267
47.550       360
47.560       307
47.570       313
47.580       307
47.590       333
47.600       287
47.610       293
47.620       207
47.630       273
47.640       260
47.650       247
47.660       240
47.670       247
47.680       300
47.690       287
47.700       227
47.710       220
47.720       207
47.730       227
47.740       213
47.750       187
47.760       213
47.770       253
47.780       327
47.790       253
47.800       213
47.810       133
47.820       220
47.830       173
47.840       287
47.850       220
47.860       233
47.870       193
47.880       267
47.890       260
47.900       240
47.910       193
47.920       260
47.930       247
47.940       247
47.950       193
47.960       227
47.970       273
47.980       253
47.990       207
48.000       233
48.010       233
48.020       267
48.030       247
48.040       220
48.050       233
48.060       320
48.070       353
48.080       187
48.090       267
48.100       293
48.110       413
48.120       433
48.130       393
48.140       320
48.150       273
48.160       380
48.170       333
48.180       293
48.190       267
48.200       320
48.210       253
48.220       313
48.230       373
48.240       293
48.250       293
48.260       413
48.270       413
48.280       280
48.290       293
48.300       327
48.310       387
48.320       307
48.330       373
48.340       313
48.350       373
48.360       260
48.370       380
48.380       273
48.390       353
48.400       320
48.410       313
48.420       453
48.430       267
48.440       327
48.450       420
48.460       300
48.470       240
48.480       300
48.490       273
48.500       333
48.510       320
48.520       313
48.530       260
48.540       293
48.550       287
48.560       320
48.570       213
48.580       273
48.590       313
48.600       267
48.610       293
48.620       293
48.630       233
48.640       233
48.650       213
48.660       220
48.670       207
48.680       253
48.690       273
48.700       233
48.710       267
48.720       233
48.730       273
48.740       220
48.750       280
48.760       213
48.770       220
48.780       287
48.790       207
48.800       213
48.810       273
48.820       200
48.830       273
48.840       187
48.850       240
48.860       233
48.870       247
48.880       293
48.890       240
48.900       173
48.910       213
48.920       293
48.930       187
48.940       193
48.950       240
48.960       240
48.970       233
48.980       273
48.990       260
49.000       187
49.010       200
49.020       247
49.030       220
49.040       273
49.050       307
49.060       253
49.070       233
49.080       353
49.090       207
49.100       247
49.110       173
49.120       240
49.130       347
49.140       173
49.150       247
49.160       213
49.170       213
49.180       193
49.190       207
49.200       267
49.210       220
49.220       240
49.230       240
49.240       300
49.250       220
49.260       220
49.270       213
49.280       240
49.290       267
49.300       213
49.310       260
49.320       260
49.330       213
49.340       220
49.350       160
49.360       220
49.370       180
49.380       213
49.390       180
49.400       173
49.410       247
49.420       200
49.430       153
49.440       240
49.450       200
49.460       240
49.470       240
49.480       207
49.490       207
49.500       200
49.510       160
49.520       247
49.530       220
49.540       253
49.550       173
49.560       180
49.570       267
49.580       180
49.590       207
49.600       220
49.610       227
49.620       247
49.630       173
49.640       187
49.650       260
49.660       287
49.670       240
49.680       227
49.690       173
49.700       253
49.710       127
49.720       220
49.730       180
49.740       233
49.750       293
49.760       193
49.770       147
49.780       187
49.790       160
49.800       147
49.810       220
49.820       240
49.830       167
49.840       173
49.850       227
49.860       133
49.870       207
49.880       173
49.890       273
49.900       180
49.910       327
49.920       227
49.930       187
49.940       247
49.950       167
49.960       207
49.970       207
49.980       247
49.990       240
50.000       253
50.010       127
50.020       220
50.030       333
50.040       260
50.050       167
50.060       187
50.070       220
50.080       233
50.090       240
50.100       307
50.110       233
50.120       153
50.130       200
50.140       153
50.150       247
50.160       193
50.170       167
50.180       153
50.190       127
50.200       260
50.210       187
50.220       193
50.230       233
50.240       267
50.250       147
50.260       227
50.270       213
50.280       220
50.290       253
50.300       133
50.310       173
50.320       187
50.330       180
50.340       213
50.350       173
50.360       180
50.370       200
50.380       233
50.390       253
50.400       240
50.410       187
50.420       173
50.430       187
50.440       253
50.450       133
50.460       240
50.470       247
50.480       220
50.490       187
50.500       187
50.510       180
50.520       120
50.530       187
50.540       220
50.550       160
50.560       207
50.570       233
50.580       240
50.590       180
50.600       147
50.610       180
50.620       280
50.630       213
50.640       220
50.650       233
50.660       193
50.670       200
50.680       213
50.690       180
50.700       207
50.710       120
50.720       260
50.730       220
50.740       187
50.750       207
50.760       220
50.770       187
50.780       173
50.790       247
50.800        87
50.810       193
50.820       273
50.830       233
50.840       200
50.850       247
50.860       173
50.870       180
50.880       227
50.890       180
50.900       213
50.910       213
50.920       253
50.930       233
50.940       187
50.950       227
50.960       227
50.970       173
50.980       167
50.990       213
51.000       147
51.010       167
51.020       187
51.030       207
51.040       200
51.050       213
51.060       253
51.070       233
51.080       160
51.090       220
51.100       153
51.110       240
51.120       187
51.130       227
51.140       100
51.150       253
51.160       180
51.170       187
51.180       140
51.190       213
51.200       193
51.210       187
51.220       120
51.230       160
51.240       113
51.250       220
51.260       113
51.270       153
51.280       147
51.290       193
51.300       220
51.310       227
51.320       233
51.330       187
51.340       120
51.350       280
51.360       113
51.370       173
51.380       293
51.390       127
51.400       187
51.410       180
51.420       147
51.430       153
51.440        73
51.450       207
51.460       187
51.470       193
51.480       167
51.490       160
51.500       187
51.510       187
51.520       160
51.530       187
51.540       213
51.550       187
51.560       233
51.570       187
51.580       233
51.590       173
51.600       147
51.610       200
51.620       160
51.630       173
51.640       160
51.650       153
51.660       133
51.670       120
51.680       247
51.690       160
51.700       180
51.710       193
51.720       187
51.730       193
51.740       160
51.750       180
51.760       153
51.770       187
51.780       220
51.790       200
51.800       100
51.810       240
51.820       207
51.830       220
51.840       187
51.850       213
51.860       167
51.870       200
51.880       153
51.890       207
51.900       213
51.910       213
51.920       213
51.930       233
51.940       173
51.950       253
51.960       227
51.970       147
51.980       160
51.990       180
52.000       153
52.010       180
52.020       187
52.030       207
52.040       220
52.050       160
52.060       207
52.070       280
52.080       113
52.090       167
52.100       173
52.110       207
52.120       180
52.130       167
52.140       167
52.150       253
52.160       140
52.170       120
52.180       153
52.190       153
52.200       180
52.210       187
52.220       200
52.230       200
52.240       207
52.250       167
52.260       173
52.270       120
52.280       200
52.290       240
52.300       193
52.310       133
52.320       153
52.330       120
52.340       173
52.350       207
52.360       147
52.370       127
52.380       260
52.390       147
52.400       220
52.410       200
52.420       240
52.430       160
52.440       107
52.450       180
52.460       187
52.470       127
52.480       120
52.490       160
52.500       180
52.510       220
52.520       220
52.530       227
52.540       220
52.550       173
52.560       233
52.570       187
52.580       247
52.590       153
52.600       200
52.610       160
52.620       180
52.630       187
52.640       147
52.650       247
52.660       233
52.670       180
52.680       147
52.690       140
52.700       180
52.710       207
52.720       167
52.730       187
52.740       173
52.750       153
52.760       207
52.770       147
52.780       153
52.790       233
52.800       167
52.810       200
52.820       140
52.830       180
52.840       160
52.850       207
52.860       153
52.870       173
52.880       113
52.890       140
52.900       153
52.910       140
52.920       260
52.930       227
52.940       140
52.950       167
52.960       133
52.970       153
52.980       173
52.990       180
53.000       173
53.010       273
53.020       267
53.030       140
53.040       147
53.050       153
53.060       160
53.070       173
53.080       180
53.090       187
53.100       153
53.110       147
53.120       240
53.130       100
53.140       207
53.150       180
53.160       147
53.170       153
53.180       133
53.190       193
53.200       240
53.210       180
53.220       207
53.230       180
53.240       247
53.250       180
53.260       180
53.270       200
53.280       233
53.290       193
53.300       160
53.310       233
53.320       107
53.330       213
53.340       160
53.350       153
53.360       187
53.370       213
53.380       207
53.390       140
53.400       220
53.410       167
53.420       200
53.430       227
53.440       173
53.450       207
53.460       180
53.470       213
53.480       153
53.490       153
53.500       127
53.510       120
53.520       193
53.530       147
53.540       167
53.550       153
53.560       187
53.570       167
53.580       207
53.590       187
53.600       147
53.610       167
53.620       160
53.630       173
53.640       200
53.650       133
53.660       167
53.670       227
53.680       140
53.690       233
53.700       193
53.710       160
53.720       180
53.730       180
53.740       220
53.750       200
53.760       140
53.770       140
53.780       220
53.790       180
53.800       173
53.810       193
53.820       187
53.830       273
53.840       187
53.850       180
53.860       187
53.870       240
53.880       160
53.890       187
53.900       133
53.910       153
53.920       113
53.930       180
53.940       140
53.950       147
53.960       233
53.970       220
53.980       180
53.990       173
54.000       227
54.010       240
54.020       200
54.030       193
54.040       133
54.050       140
54.060       187
54.070       173
54.080       160
54.090       173
54.100       173
54.110       173
54.120       200
54.130       133
54.140       233
54.150       200
54.160       187
54.170       193
54.180       153
54.190       227
54.200       227
54.210       273
54.220       200
54.230       200
54.240       280
54.250       220
54.260       260
54.270       180
54.280       227
54.290       220
54.300       293
54.310       320
54.320       267
54.330       347
54.340       340
54.350       333
54.360       360
54.370       360
54.380       407
54.390       480
54.400       420
54.410       566
54.420       606
54.430       646
54.440       646
54.450       633
54.460       726
54.470       833
54.480       806
54.490       940
54.500       893
54.510       793
54.520       913
54.530       846
54.540      1113
54.550       953
54.560      1040
54.570       973
54.580       980
54.590       873
54.600      1086
54.610       940
54.620       946
54.630       893
54.640      1006
54.650       833
54.660       786
54.670       686
54.680       766
54.690       700
54.700       666
54.710       586
54.720       540
54.730       600
54.740       533
54.750       407
54.760       526
54.770       466
54.780       486
54.790       433
54.800       380
54.810       446
54.820       347
54.830       480
54.840       313
54.850       227
54.860       247
54.870       227
54.880       240
54.890       213
54.900       240
54.910       220
54.920       207
54.930       200
54.940       300
54.950       287
54.960       253
54.970       227
54.980       240
54.990       200
55.000       227
55.010       173
55.020       193
55.030       180
55.040       160
55.050       247
55.060       193
55.070       133
55.080       180
55.090       227
55.100       227
55.110       213
55.120       260
55.130       127
55.140       213
55.150       187
55.160       200
55.170       213
55.180       113
55.190       107
55.200       187
55.210       160
55.220       140
55.230       160
55.240       167
55.250       200
55.260       140
55.270       153
55.280       153
55.290       160
55.300       167
55.310       193
55.320       100
55.330       200
55.340       253
55.350       167
55.360       153
55.370       167
55.380       120
55.390       133
55.400       147
55.410       180
55.420       153
55.430       207
55.440       180
55.450       160
55.460       220
55.470       113
55.480       187
55.490       153
55.500       133
55.510       180
55.520       160
55.530       187
55.540       213
55.550       160
55.560       147
55.570       167
55.580       180
55.590       147
55.600       207
55.610       180
55.620       167
55.630       133
55.640       113
55.650       167
55.660       160
55.670        93
55.680       200
55.690       127
55.700       100
55.710       213
55.720       187
55.730       160
55.740       153
55.750       193
55.760       180
55.770       180
55.780       133
55.790       140
55.800       140
55.810       107
55.820       160
55.830       133
55.840       133
55.850       200
55.860       180
55.870       127
55.880       220
55.890       160
55.900       167
55.910       133
55.920       153
55.930       147
55.940       173
55.950        73
55.960       187
55.970       207
55.980       200
55.990       207
56.000       167
56.010       160
56.020       200
56.030       160
56.040       153
56.050       113
56.060       293
56.070       220
56.080       133
56.090       213
56.100       113
56.110       227
56.120       187
56.130       180
56.140       133
56.150       180
56.160       227
56.170       133
56.180       207
56.190       180
56.200       167
56.210       213
56.220       127
56.230       180
56.240       133
56.250       160
56.260       207
56.270       147
56.280       133
56.290       160
56.300       240
56.310       213
56.320       153
56.330       173
56.340       187
56.350       173
56.360       200
56.370       167
56.380       187
56.390       180
56.400       247
56.410       227
56.420       207
56.430       213
56.440       253
56.450       200
56.460       180
56.470       167
56.480       200
56.490       213
56.500       200
56.510       207
56.520       140
56.530       140
56.540       213
56.550       180
56.560       180
56.570       193
56.580       207
56.590       193
56.600       160
56.610       180
56.620       213
56.630       153
56.640       160
56.650       187
56.660       233
56.670       160
56.680       147
56.690       180
56.700       147
56.710       193
56.720       127
56.730       187
56.740       200
56.750       173
56.760       133
56.770       140
56.780       180
56.790       133
56.800       100
56.810       167
56.820       187
56.830       167
56.840       167
56.850        87
56.860       167
56.870       167
56.880       193
56.890       213
56.900       173
56.910       167
56.920       153
56.930       153
56.940       160
56.950       153
56.960       127
56.970       167
56.980       180
56.990       180
57.000       167
57.010       127
57.020       193
57.030       193
57.040        93
57.050       207
57.060       127
57.070       167
57.080       200
57.090       227
57.100       207
57.110       180
57.120       193
57.130       147
57.140       180
57.150       280
57.160       200
57.170       167
57.180       173
57.190       267
57.200       213
57.210       160
57.220       180
57.230       160
57.240       167
57.250       187
57.260       213
57.270       173
57.280       200
57.290       173
57.300       173
57.310       153
57.320       227
57.330       173
57.340       167
57.350       147
57.360       187
57.370       173
57.380       173
57.390       207
57.400       200
57.410       173
57.420       233
57.430       200
57.440       133
57.450       120
57.460       153
57.470       180
57.480       173
57.490       193
57.500       213
57.510       153
57.520       107
57.530        73
57.540       173
57.550       213
57.560       167
57.570       127
57.580       213
57.590       160
57.600       180
57.610       147
57.620       180
57.630       167
57.640       207
57.650       107
57.660        80
57.670       180
57.680       153
57.690       187
57.700       140
57.710       180
57.720       127
57.730       153
57.740       167
57.750       120
57.760       147
57.770       120
57.780       247
57.790       193
57.800       100
57.810       133
57.820       213
57.830       113
57.840       140
57.850       153
57.860       233
57.870       133
57.880       127
57.890       180
57.900       127
57.910       140
57.920       173
57.930       193
57.940       173
57.950       213
57.960       173
57.970       133
57.980       160
57.990       127
58.000       173
58.010       120
58.020       153
58.030       147
58.040       173
58.050       193
58.060       133
58.070       153
58.080       187
58.090       233
58.100       180
58.110       120
58.120       120
58.130       153
58.140       140
58.150       147
58.160       193
58.170       153
58.180       253
58.190       113
58.200       153
58.210       173
58.220       220
58.230       187
58.240       187
58.250       180
58.260       127
58.270       220
58.280       167
58.290       180
58.300       133
58.310       167
58.320       160
58.330       120
58.340       147
58.350       180
58.360       160
58.370       147
58.380       113
58.390       133
58.400       253
58.410       247
58.420       107
58.430       187
58.440       160
58.450       167
58.460       147
58.470       100
58.480       167
58.490       173
58.500       153
58.510       180
58.520       113
58.530       167
58.540       167
58.550       133
58.560       160
58.570       120
58.580       153
58.590        93
58.600       127
58.610       233
58.620       160
58.630       160
58.640       173
58.650       180
58.660       133
58.670       167
58.680       120
58.690       107
58.700       140
58.710        80
58.720       107
58.730       127
58.740       153
58.750       127
58.760       207
58.770       100
58.780       140
58.790       107
58.800       153
58.810       147
58.820       220
58.830       213
58.840       113
58.850        93
58.860       107
58.870       133
58.880       113
58.890       113
58.900       113
58.910        93
58.920       160
58.930       160
58.940       127
58.950       127
58.960       107
58.970        87
58.980        87
58.990       173
59.000       180
59.010       167
59.020       180
59.030       193
59.040       133
59.050       140
59.060       153
59.070        87
59.080        67
59.090       120
59.100       133
59.110       193
59.120       147
59.130        73
59.140       153
59.150       147
59.160       120
59.170       147
59.180       167
59.190       167
59.200       140
59.210       127
59.220        87
59.230       140
59.240       140
59.250       113
59.260       120
59.270       233
59.280       153
59.290       120
59.300       127
59.310       200
59.320       207
59.330       173
59.340       173
59.350       160
59.360       140
59.370       127
59.380       180
59.390       120
59.400       200
59.410       207
59.420       100
59.430       187
59.440       213
59.450       127
59.460       113
59.470       167
59.480       153
59.490       153
59.500       113
59.510       140
59.520       180
59.530       140
59.540       187
59.550       167
59.560       147
59.570       120
59.580       140
59.590       147
59.600       113
59.610       147
59.620       173
59.630        80
59.640       100
59.650       160
59.660       193
59.670       147
59.680       160
59.690       220
59.700       140
59.710       233
59.720       113
59.730       153
59.740       167
59.750       147
59.760       173
59.770       153
59.780       120
59.790       200
59.800       133
59.810       193
59.820       140
59.830       193
59.840       133
59.850       120
59.860       140
59.870       127
59.880       120
59.890       127
59.900       160
59.910       207
59.920       147
59.930       113
59.940        87
59.950       120
59.960       140
59.970       147
59.980       160
59.990       127
60.000       207
