20.000       130
20.010       110
20.020       123
20.030       153
20.040       127
20.050       127
20.060       140
20.070       167
20.080       173
20.090       127
20.100       133
20.110       130
20.120       163
20.130       157
20.140       130
20.150       140
20.160       133
20.170       150
20.180       123
20.190       183
20.200       127
20.210       160
20.220       127
20.230       150
20.240       143
20.250       113
20.260       147
20.270       197
20.280       133
20.290       120
20.300       157
20.310       110
20.320       120
20.330       170
20.340       127
20.350       160
20.360       147
20.370       123
20.380       163
20.390       110
20.400       127
20.410       120
20.420       127
20.430        90
20.440       137
20.450       160
20.460       160
20.470       140
20.480       157
20.490       147
20.500       120
20.510       170
20.520       117
20.530       113
20.540       127
20.550       103
20.560       113
20.570       133
20.580       143
20.590       117
20.600       113
20.610        97
20.620       143
20.630       153
20.640       150
20.650       147
20.660       173
20.670       190
20.680       140
20.690       173
20.700       160
20.710       147
20.720       120
20.730       143
20.740       147
20.750       150
20.760       187
20.770       150
20.780       130
20.790       177
20.800       140
20.810        97
20.820       157
20.830       120
20.840       123
20.850       147
20.860       100
20.870       127
20.880       157
20.890       170
20.900       163
20.910       153
20.920       167
20.930       123
20.940       187
20.950       100
20.960       113
20.970       147
20.980       120
20.990        87
21.000       157
21.010       200
21.020       157
21.030       123
21.040       167
21.050       137
21.060       160
21.070       177
21.080       180
21.090       167
21.100       173
21.110       137
21.120       107
21.130       133
21.140       170
21.150       140
21.160       113
21.170       147
21.180       147
21.190       173
21.200       103
21.210       150
21.220       163
21.230       150
21.240       190
21.250       120
21.260       137
21.270       103
21.280       113
21.290       130
21.300       117
21.310       137
21.320       177
21.330       153
21.340       170
21.350       137
21.360       143
21.370       183
21.380       153
21.390       193
21.400       167
21.410       140
21.420       157
21.430       153
21.440       120
21.450       163
21.460       160
21.470       133
21.480       130
21.490       170
21.500       167
21.510       170
21.520       140
21.530       170
21.540       160
21.550       143
21.560       153
21.570       117
21.580       107
21.590       147
21.600       143
21.610       147
21.620       130
21.630       133
21.640       197
21.650       153
21.660       123
21.670       160
21.680       120
21.690       123
21.700       130
21.710       123
21.720       173
21.730       183
21.740       170
21.750       153
21.760       123
21.770       133
21.780       187
21.790       143
21.800       147
21.810       167
21.820       157
21.830       143
21.840       147
21.850       183
21.860       130
21.870       110
21.880       197
21.890       197
21.900       170
21.910       110
21.920       147
21.930       157
21.940       160
21.950       150
21.960       137
21.970       133
21.980       163
21.990       170
22.000       157
22.010       130
22.020       177
22.030       147
22.040       120
22.050       133
22.060       140
22.070       130
22.080       203
22.090       147
22.100       173
22.110       163
22.120       170
22.130       160
22.140       173
22.150       127
22.160       170
22.170       163
22.180       113
22.190       153
22.200       137
22.210       143
22.220       150
22.230        93
22.240       143
22.250       120
22.260       163
22.270       153
22.280       143
22.290       180
22.300       147
22.310       120
22.320       147
22.330       153
22.340       193
22.350       123
22.360       163
22.370       140
22.380       157
22.390       160
22.400       153
22.410       120
22.420       163
22.430       140
22.440       150
22.450       167
22.460       120
22.470       190
22.480       140
22.490       187
22.500       160
22.510       183
22.520       187
22.530       133
22.540       177
22.550       120
22.560       167
22.570       137
22.580       113
22.590       153
22.600       217
22.610       180
22.620       200
22.630       213
22.640       193
22.650       143
22.660       173
22.670       163
22.680       197
22.690       140
22.700       180
22.710       157
22.720       140
22.730       143
22.740       167
22.750       223
22.760       157
22.770       147
22.780       173
22.790       183
22.800       193
22.810       173
22.820       190
22.830       150
22.840       190
22.850       137
22.860       193
22.870       187
22.880       183
22.890       167
22.900       140
22.910       197
22.920       200
22.930       197
22.940       230
22.950       207
22.960       190
22.970       197
22.980       197
22.990       143
23.000       190
23.010       210
23.020       193
23.030       153
23.040       260
23.050       233
23.060       313
23.070       377
23.080       390
23.090       413
23.100       500
23.110       403
23.120       397
23.130       403
23.140       370
23.150       287
23.160       177
23.170       230
23.180       237
23.190       237
23.200       243
23.210       150
23.220       213
23.230       167
23.240       210
23.250       197
23.260       213
23.270       240
23.280       230
23.290       157
23.300       187
23.310       183
23.320       183
23.330       193
23.340       207
23.350       187
23.360       190
23.370       153
23.380       160
23.390       203
23.400       227
23.410       237
23.420       207
23.430       213
23.440       210
23.450       240
23.460       260
23.470       183
23.480       213
23.490       200
23.500       260
23.510       220
23.520       207
23.530       157
23.540       207
23.550       210
23.560       230
23.570       247
23.580       193
23.590       223
23.600       170
23.610       167
23.620       223
23.630       187
23.640       237
23.650       187
23.660       207
23.670       147
23.680       210
23.690       167
23.700       193
23.710       233
23.720       213
23.730       173
23.740       240
23.750       197
23.760       227
23.770       170
23.780       207
23.790       197
23.800       197
23.810       187
23.820       257
23.830       203
23.840       213
23.850       217
23.860       200
23.870       180
23.880       193
23.890       200
23.900       177
23.910       227
23.920       227
23.930       197
23.940       220
23.950       253
23.960       223
23.970       197
23.980       210
23.990       203
24.000       193
24.010       180
24.020       217
24.030       173
24.040       203
24.050       203
24.060       223
24.070       163
24.080       207
24.090       223
24.100       247
24.110       193
24.120       227
24.130       233
24.140       223
24.150       183
24.160       217
24.170       237
24.180       237
24.190       237
24.200       213
24.210       260
24.220       200
24.230       240
24.240       197
24.250       233
24.260       200
24.270       173
24.280       233
24.290       213
24.300       213
24.310       217
24.320       247
24.330       213
24.340       237
24.350       217
24.360       210
24.370       290
24.380       227
24.390       160
24.400       200
24.410       237
24.420       223
24.430       267
24.440       213
24.450       243
24.460       217
24.470       210
24.480       217
24.490       213
24.500       247
24.510       217
24.520       213
24.530       223
24.540       240
24.550       227
24.560       243
24.570       210
24.580       227
24.590       237
24.600       213
24.610       237
24.620       227
24.630       203
24.640       257
24.650       233
24.660       283
24.670       220
24.680       203
24.690       320
24.700       297
24.710       287
24.720       283
24.730       403
24.740       397
24.750       430
24.760       387
24.770       383
24.780       293
24.790       337
24.800       383
24.810       350
24.820       363
24.830       400
24.840       400
24.850       390
24.860       403
24.870       327
24.880       377
24.890       300
24.900       370
24.910       333
24.920       433
24.930       323
24.940       353
24.950       283
24.960       273
24.970       317
24.980       363
24.990       333
25.000       333
25.010       400
25.020       436
25.030       320
25.040       323
25.050       293
25.060       323
25.070       300
25.080       263
25.090       333
25.100       300
25.110       327
25.120       310
25.130       340
25.140       317
25.150       367
25.160       300
25.170       343
25.180       393
25.190       347
25.200       337
25.210       383
25.220       313
25.230       373
25.240       377
25.250       430
25.260       377
25.270       426
25.280       493
25.290       496
25.300       653
25.310       660
25.320       816
25.330       896
25.340       946
25.350      1043
25.360      1160
25.370      1496
25.380      1676
25.390      1779
25.400      1866
25.410      2206
25.420      2339
25.430      2569
25.440      2552
25.450      2802
25.460      2779
25.470      2702
25.480      2965
25.490      3212
25.500      3302
25.510      3199
25.520      3449
25.530      3885
25.540      5198
25.550      8157
25.560     13285
25.570     19482
25.580     24537
25.590     28299
25.600     30594
25.610     32137
25.620     32794
25.630     32227
25.640     28419
25.650     23814
25.660     19262
25.670     16507
25.680     16630
25.690     14637
25.700     11899
25.710      8090
25.720      4625
25.730      2699
25.740      1613
25.750      1216
25.760      1143
25.770       913
25.780       903
25.790       763
25.800       690
25.810       583
25.820       576
25.830       576
25.840       493
25.850       410
25.860       410
25.870       360
25.880       410
25.890       450
25.900       313
25.910       407
25.920       387
25.930       380
25.940       407
25.950       413
25.960       390
25.970       380
25.980       370
25.990       320
26.000       333
26.010       313
26.020       360
26.030       320
26.040       300
26.050       330
26.060       350
26.070       330
26.080       327
26.090       320
26.100       330
26.110       393
26.120       317
26.130       343
26.140       310
26.150       360
26.160       267
26.170       417
26.180       290
26.190       330
26.200       297
26.210       313
26.220       340
26.230       300
26.240       350
26.250       343
26.260       300
26.270       303
26.280       333
26.290       353
26.300       263
26.310       283
26.320       280
26.330       300
26.340       330
26.350       290
26.360       347
26.370       293
26.380       317
26.390       273
26.400       280
26.410       317
26.420       303
26.430       287
26.440       307
26.450       277
26.460       337
26.470       320
26.480       250
26.490       273
26.500       313
26.510       307
26.520       323
26.530       293
26.540       367
26.550       220
26.560       273
26.570       280
26.580       300
26.590       327
26.600       247
26.610       330
26.620       297
26.630       287
26.640       270
26.650       323
26.660       333
26.670       267
26.680       267
26.690       253
26.700       217
26.710       330
26.720       270
26.730       317
26.740       260
26.750       283
26.760       340
26.770       243
26.780       303
26.790       363
26.800       283
26.810       340
26.820       303
26.830       337
26.840       280
26.850       287
26.860       330
26.870       283
26.880       300
26.890       283
26.900       327
26.910       237
26.920       263
26.930       277
26.940       280
26.950       277
26.960       290
26.970       300
26.980       313
26.990       253
27.000       320
27.010       310
27.020       303
27.030       323
27.040       300
27.050       290
27.060       270
27.070       253
27.080       297
27.090       290
27.100       247
27.110       263
27.120       243
27.130       290
27.140       260
27.150       280
27.160       280
27.170       300
27.180       230
27.190       287
27.200       317
27.210       273
27.220       323
27.230       277
27.240       290
27.250       243
27.260       283
27.270       260
27.280       317
27.290       260
27.300       270
27.310       293
27.320       240
27.330       280
27.340       273
27.350       240
27.360       260
27.370       263
27.380       267
27.390       293
27.400       303
27.410       257
27.420       247
27.430       287
27.440       273
27.450       280
27.460       273
27.470       240
27.480       290
27.490       273
27.500       277
27.510       303
27.520       227
27.530       197
27.540       293
27.550       280
27.560       257
27.570       283
27.580       203
27.590       337
27.600       310
27.610       237
27.620       210
27.630       277
27.640       217
27.650       223
27.660       220
27.670       267
27.680       293
27.690       273
27.700       267
27.710       283
27.720       283
27.730       233
27.740       273
27.750       310
27.760       277
27.770       243
27.780       300
27.790       253
27.800       223
27.810       220
27.820       253
27.830       187
27.840       327
27.850       243
27.860       293
27.870       233
27.880       237
27.890       270
27.900       277
27.910       253
27.920       273
27.930       183
27.940       270
27.950       290
27.960       263
27.970       293
27.980       290
27.990       180
28.000       303
28.010       197
28.020       227
28.030       260
28.040       223
28.050       293
28.060       243
28.070       260
28.080       233
28.090       290
28.100       293
28.110       287
28.120       277
28.130       237
28.140       240
28.150       233
28.160       277
28.170       253
28.180       260
28.190       283
28.200       247
28.210       280
28.220       260
28.230       223
28.240       303
28.250       273
28.260       250
28.270       300
28.280       230
28.290       203
28.300       297
28.310       267
28.320       277
28.330       260
28.340       257
28.350       277
28.360       257
28.370       253
28.380       240
28.390       237
28.400       250
28.410       243
28.420       260
28.430       233
28.440       197
28.450       203
28.460       187
28.470       273
28.480       247
28.490       173
28.500       217
28.510       197
28.520       210
28.530       250
28.540       247
28.550       233
28.560       253
28.570       220
28.580       277
28.590       217
28.600       227
28.610       250
28.620       237
28.630       253
28.640       267
28.650       303
28.660       293
28.670       227
28.680       257
28.690       210
28.700       260
28.710       220
28.720       243
28.730       260
28.740       250
28.750       210
28.760       233
28.770       237
28.780       240
28.790       250
28.800       200
28.810       243
28.820       247
28.830       257
28.840       223
28.850       217
28.860       220
28.870       243
28.880       253
28.890       237
28.900       277
28.910       277
28.920       200
28.930       283
28.940       263
28.950       250
28.960       230
28.970       270
28.980       193
28.990       263
29.000       293
29.010       233
29.020       253
29.030       243
29.040       290
29.050       257
29.060       287
29.070       280
29.080       237
29.090       247
29.100       237
29.110       247
29.120       250
29.130       253
29.140       253
29.150       313
29.160       240
29.170       300
29.180       233
29.190       287
29.200       340
29.210       300
29.220       300
29.230       337
29.240       287
29.250       313
29.260       300
29.270       320
29.280       340
29.290       317
29.300       337
29.310       393
29.320       280
29.330       330
29.340       327
29.350       303
29.360       333
29.370       363
29.380       317
29.390       263
29.400       257
29.410       297
29.420       333
29.430       270
29.440       287
29.450       283
29.460       273
29.470       217
29.480       307
29.490       200
29.500       203
29.510       240
29.520       183
29.530       277
29.540       243
29.550       240
29.560       203
29.570       207
29.580       243
29.590       220
29.600       220
29.610       230
29.620       203
29.630       280
29.640       210
29.650       207
29.660       220
29.670       210
29.680       253
29.690       267
29.700       227
29.710       227
29.720       190
29.730       223
29.740       273
29.750       177
29.760       203
29.770       207
29.780       203
29.790       230
29.800       207
29.810       167
29.820       223
29.830       193
29.840       190
29.850       247
29.860       240
29.870       247
29.880       247
29.890       217
29.900       187
29.910       223
29.920       183
29.930       180
29.940       257
29.950       203
29.960       210
29.970       203
29.980       227
29.990       237
30.000       223
30.010       230
30.020       233
30.030       257
30.040       193
30.050       173
30.060       253
30.070       210
30.080       230
30.090       193
30.100       170
30.110       227
30.120       220
30.130       227
30.140       237
30.150       200
30.160       180
30.170       173
30.180       213
30.190       193
30.200       217
30.210       183
30.220       150
30.230       230
30.240       207
30.250       233
30.260       203
30.270       170
30.280       253
30.290       207
30.300       213
30.310       257
30.320       250
30.330       197
30.340       180
30.350       200
30.360       247
30.370       203
30.380       193
30.390       150
30.400       217
30.410       253
30.420       203
30.430       207
30.440       197
30.450       177
30.460       193
30.470       180
30.480       260
30.490       257
30.500       197
30.510       233
30.520       197
30.530       177
30.540       203
30.550       163
30.560       193
30.570       223
30.580       223
30.590       250
30.600       213
30.610       220
30.620       270
30.630       270
30.640       230
30.650       233
30.660       183
30.670       250
30.680       253
30.690       230
30.700       263
30.710       267
30.720       270
30.730       253
30.740       250
30.750       237
30.760       263
30.770       247
30.780       260
30.790       250
30.800       237
30.810       190
30.820       230
30.830       227
30.840       227
30.850       207
30.860       253
30.870       197
30.880       250
30.890       223
30.900       210
30.910       207
30.920       203
30.930       197
30.940       203
30.950       167
30.960       207
30.970       193
30.980       190
30.990       183
31.000       187
31.010       157
31.020       177
31.030       207
31.040       253
31.050       213
31.060       163
31.070       227
31.080       177
31.090       153
31.100       220
31.110       203
31.120       163
31.130       183
31.140       183
31.150       173
31.160       223
31.170       213
31.180       180
31.190       190
31.200       167
31.210       207
31.220       163
31.230       173
31.240       173
31.250       187
31.260       220
31.270       220
31.280       210
31.290       140
31.300       150
31.310       170
31.320       197
31.330       157
31.340       153
31.350       140
31.360       180
31.370       170
31.380       163
31.390       187
31.400       213
31.410       217
31.420       177
31.430       160
31.440       170
31.450       180
31.460       177
31.470       130
31.480       133
31.490       153
31.500       120
31.510       213
31.520       147
31.530       183
31.540       163
31.550       180
31.560       153
31.570       180
31.580       153
31.590       127
31.600       233
31.610       180
31.620       193
31.630       160
31.640       183
31.650       103
31.660       147
31.670       190
31.680       190
31.690       217
31.700       190
31.710       160
31.720       180
31.730       133
31.740       183
31.750       120
31.760       190
31.770       143
31.780       150
31.790       147
31.800       170
31.810       157
31.820       140
31.830       150
31.840       190
31.850       187
31.860       160
31.870       167
31.880       180
31.890       167
31.900       160
31.910       180
31.920       123
31.930       173
31.940       120
31.950       143
31.960       133
31.970       153
31.980       153
31.990       150
32.000       163
32.010       150
32.020       123
32.030       150
32.040       163
32.050       203
32.060       170
32.070       143
32.080       180
32.090       167
32.100       143
32.110       133
32.120       160
32.130       133
32.140       173
32.150       173
32.160       147
32.170       187
32.180       153
32.190       140
32.200       133
32.210       123
32.220       180
32.230       163
32.240       133
32.250       130
32.260       147
32.270       130
32.280       153
32.290       140
32.300       133
32.310       133
32.320       140
32.330       177
32.340       150
32.350       130
32.360       173
32.370       140
32.380       150
32.390       183
32.400       190
32.410       123
32.420       113
32.430       113
32.440       160
32.450       167
32.460       123
32.470       137
32.480       120
32.490       127
32.500       110
32.510       173
32.520       120
32.530       147
32.540       153
32.550       167
32.560        93
32.570       133
32.580       163
32.590       147
32.600       137
32.610       137
32.620       147
32.630       137
32.640       133
32.650       153
32.660       117
32.670       130
32.680       127
32.690       147
32.700       127
32.710       173
32.720       183
32.730       137
32.740       123
32.750       143
32.760       127
32.770        97
32.780       170
32.790       190
32.800       120
32.810       127
32.820       147
32.830       140
32.840       140
32.850       110
32.860       177
32.870       130
32.880       160
32.890       123
32.900       110
32.910       133
32.920       130
32.930       153
32.940       110
32.950       187
32.960       140
32.970       157
32.980       157
32.990       153
33.000       157
33.010       143
33.020       123
33.030       110
33.040       163
33.050       133
33.060       157
33.070       130
33.080       117
33.090       147
33.100       157
33.110       143
33.120       137
33.130       147
33.140       123
33.150       137
33.160       120
33.170       100
33.180       107
33.190       163
33.200        93
33.210       127
33.220       140
33.230       133
33.240       130
33.250        93
33.260       150
33.270       133
33.280       133
33.290       153
33.300       157
33.310       117
33.320       153
33.330       127
33.340       127
33.350        90
33.360       117
33.370       103
33.380       157
33.390       103
33.400       153
33.410       157
33.420       113
33.430       130
33.440       147
33.450       140
33.460       103
33.470       120
33.480       150
33.490       143
33.500       113
33.510       150
33.520       110
33.530       123
33.540        90
33.550       180
33.560       133
33.570       117
33.580       140
33.590       130
33.600       120
33.610       103
33.620       113
33.630       120
33.640       100
33.650        97
33.660       120
33.670       127
33.680       120
33.690       110
33.700        63
33.710       100
33.720       157
33.730       143
33.740       107
33.750       117
33.760       127
33.770       160
33.780       107
33.790       127
33.800        90
33.810       100
33.820       110
33.830       113
33.840       110
33.850       120
33.860       117
33.870       117
33.880       100
33.890       137
33.900       100
33.910       103
33.920       147
33.930       137
33.940       120
33.950       100
33.960        93
33.970        93
33.980       143
33.990       113
34.000        97
34.010       117
34.020       110
34.030       123
34.040       120
34.050       140
34.060       130
34.070        83
34.080        70
34.090       123
34.100       157
34.110       133
34.120        93
34.130       103
34.140       130
34.150       120
34.160       123
34.170        87
34.180       137
34.190        83
34.200        90
34.210        87
34.220       107
34.230        87
34.240        80
34.250       137
34.260       107
34.270       100
34.280        90
34.290       127
34.300       120
34.310       113
34.320        97
34.330       120
34.340       117
34.350        73
34.360       113
34.370       147
34.380       113
34.390       103
34.400       110
34.410        87
34.420       113
34.430       120
34.440       120
34.450       137
34.460       127
34.470       103
34.480       113
34.490       150
34.500       100
34.510        87
34.520       107
34.530       150
34.540       107
34.550       107
34.560       130
34.570       117
34.580       123
34.590       103
34.600       133
34.610       100
34.620        93
34.630       110
34.640       147
34.650        90
34.660       117
34.670       107
34.680        90
34.690        73
34.700        93
34.710        73
34.720       110
34.730        83
34.740       120
34.750        57
34.760        77
34.770       137
34.780       120
34.790       117
34.800       137
34.810        90
34.820        83
34.830        97
34.840       120
34.850       120
34.860        97
34.870       100
34.880       103
34.890        93
34.900        93
34.910       100
34.920       100
34.930       127
34.940       143
34.950       100
34.960       107
34.970       117
34.980       100
34.990        97
35.000        63
35.010       103
35.020       120
35.030       107
35.040       100
35.050        63
35.060       100
35.070        67
35.080       120
35.090        97
35.100        80
35.110       103
35.120       103
35.130       103
35.140       107
35.150       103
35.160        90
35.170       107
35.180        77
35.190       103
35.200        97
35.210       143
35.220        80
35.230        83
35.240       130
35.250       117
35.260       107
35.270       117
35.280        90
35.290       100
35.300        77
35.310        67
35.320        87
35.330        80
35.340        77
35.350       127
35.360       103
35.370        80
35.380       107
35.390        97
35.400       110
35.410        87
35.420       110
35.430       110
35.440        60
35.450       150
35.460       123
35.470        73
35.480       113
35.490       107
35.500       123
35.510       113
35.520       117
35.530       117
35.540        87
35.550       100
35.560       107
35.570        53
35.580        93
35.590       137
35.600        77
35.610       107
35.620        77
35.630       107
35.640       103
35.650        90
35.660       127
35.670        93
35.680        83
35.690        93
35.700       107
35.710       113
35.720        87
35.730        97
35.740       107
35.750        70
35.760       100
35.770        83
35.780       110
35.790       110
35.800        90
35.810        93
35.820       140
35.830       113
35.840       127
35.850       103
35.860       117
35.870       127
35.880       137
35.890       113
35.900       120
35.910       110
35.920        77
35.930       140
35.940       107
35.950       133
35.960       123
35.970       113
35.980       110
35.990       100
36.000       130
36.010        73
36.020       133
36.030        80
36.040        83
36.050       100
36.060       100
36.070       103
36.080       117
36.090        90
36.100        83
36.110        70
36.120       113
36.130       113
36.140        67
36.150       113
36.160        70
36.170        83
36.180        80
36.190        90
36.200       107
36.210       120
36.220        97
36.230        80
36.240       107
36.250        63
36.260        97
36.270        63
36.280       107
36.290        70
36.300       110
36.310       100
36.320       103
36.330        23
36.340       127
36.350        90
36.360        90
36.370        90
36.380        90
36.390        93
36.400        50
36.410        80
36.420        70
36.430        63
36.440        80
36.450        93
36.460       107
36.470        93
36.480       130
36.490        77
36.500       100
36.510        80
36.520        97
36.530        63
36.540        57
36.550        80
36.560       107
36.570       130
36.580        87
36.590        93
36.600        63
36.610        70
36.620        90
36.630        83
36.640        87
36.650        97
36.660        60
36.670        93
36.680        73
36.690        90
36.700        70
36.710        67
36.720       110
36.730        57
36.740        83
36.750       127
36.760       110
36.770        67
36.780       113
36.790       113
36.800        60
36.810        90
36.820        87
36.830        73
36.840        83
36.850        87
36.860        70
36.870        87
36.880       110
36.890        70
36.900        70
36.910        67
36.920        50
36.930        77
36.940        87
36.950        97
36.960        73
36.970        73
36.980        77
36.990       117
37.000        70
37.010        87
37.020        77
37.030       107
37.040        97
37.050        73
37.060        73
37.070        73
37.080        63
37.090        60
37.100        70
37.110        83
37.120        93
37.130        57
37.140        77
37.150        63
37.160        73
37.170       100
37.180        87
37.190        77
37.200        60
37.210        63
37.220        87
37.230        73
37.240        70
37.250        97
37.260        70
37.270        57
37.280        53
37.290        73
37.300        67
37.310        63
37.320        77
37.330        67
37.340        97
37.350        90
37.360        90
37.370        63
37.380        57
37.390        90
37.400        73
37.410        87
37.420        87
37.430        87
37.440       120
37.450        80
37.460        80
37.470        93
37.480        83
37.490        70
37.500        87
37.510        73
37.520       103
37.530        83
37.540        90
37.550        93
37.560        67
37.570        80
37.580        83
37.590        97
37.600        87
37.610       113
37.620       103
37.630        73
37.640       100
37.650       103
37.660       140
37.670       137
37.680       110
37.690        93
37.700       103
37.710       100
37.720       130
37.730       123
37.740       107
37.750       107
37.760       163
37.770       127
37.780       140
37.790       173
37.800       180
37.810       227
37.820       230
37.830       330
37.840       270
37.850       267
37.860       290
37.870       323
37.880       360
37.890       377
37.900       370
37.910       360
37.920       297
37.930       270
37.940       293
37.950       263
37.960       277
37.970       257
37.980       303
37.990       213
38.000       237
38.010       207
38.020       203
38.030       167
38.040       137
38.050       140
38.060       127
38.070       140
38.080       117
38.090       100
38.100       100
38.110        83
38.120       110
38.130       110
38.140       100
38.150        90
38.160        73
38.170        87
38.180        43
38.190        80
38.200        57
38.210        63
38.220        97
38.230        80
38.240        90
38.250        77
38.260        53
38.270        77
38.280        70
38.290        97
38.300        80
38.310        73
38.320        83
38.330        70
38.340        97
38.350       107
38.360        87
38.370        83
38.380        93
38.390        97
38.400        67
38.410        63
38.420        67
38.430        83
38.440        73
38.450        63
38.460        80
38.470        67
38.480        83
38.490        53
38.500        70
38.510        73
38.520        73
38.530        67
38.540        60
38.550        60
38.560        67
38.570        63
38.580        47
38.590        70
38.600        73
38.610        60
38.620        53
38.630        83
38.640        77
38.650        80
38.660        57
38.670        77
38.680        83
38.690        70
38.700        77
38.710        77
38.720        57
38.730        83
38.740        87
38.750        47
38.760        43
38.770        50
38.780        57
38.790        63
38.800        83
38.810        57
38.820        67
38.830        60
38.840        47
38.850        43
38.860        87
38.870        87
38.880        83
38.890        53
38.900        47
38.910        63
38.920        73
38.930        67
38.940        73
38.950        60
38.960        63
38.970        50
38.980        80
38.990        90
39.000       100
39.010        67
39.020        70
39.030        63
39.040        87
39.050        80
39.060        67
39.070        93
39.080        77
39.090        90
39.100        73
39.110        53
39.120        70
39.130        83
39.140        60
39.150        73
39.160        73
39.170       103
39.180        90
39.190        83
39.200       107
39.210        63
39.220        67
39.230        93
39.240        87
39.250        87
39.260       107
39.270        57
39.280        77
39.290        93
39.300       100
39.310        97
39.320        77
39.330        97
39.340       117
39.350        83
39.360        80
39.370        80
39.380        77
39.390        70
39.400        87
39.410        87
39.420        73
39.430       100
39.440        87
39.450        87
39.460        73
39.470        73
39.480        73
39.490        70
39.500        73
39.510        67
39.520        77
39.530        60
39.540        77
39.550        73
39.560        37
39.570        63
39.580        50
39.590        60
39.600        40
39.610        73
39.620        57
39.630        33
39.640        57
39.650        50
39.660        57
39.670        63
39.680        40
39.690        60
39.700        37
39.710        53
39.720        50
39.730        63
39.740        60
39.750        43
39.760        47
39.770        60
39.780        87
39.790        47
39.800        63
39.810       113
39.820        53
39.830        37
39.840        80
39.850        50
39.860        70
39.870        60
39.880        63
39.890        67
39.900        50
39.910        43
39.920        40
39.930        53
39.940        50
39.950        80
39.960        67
39.970        57
39.980        37
39.990        40
40.000        67
40.010        63
40.020        73
40.030        57
40.040        47
40.050        30
40.060        37
40.070        77
40.080        63
40.090        60
40.100        30
40.110        43
40.120        60
40.130        53
40.140        53
40.150        47
40.160        43
40.170        50
40.180        60
40.190        50
40.200        63
40.210        57
40.220        47
40.230        57
40.240        57
40.250        73
40.260        37
40.270        47
40.280        70
40.290        73
40.300        50
40.310        80
40.320        70
40.330        50
40.340        60
40.350        57
40.360        43
40.370        57
40.380        57
40.390        57
40.400        70
40.410        50
40.420        47
40.430        53
40.440        53
40.450        50
40.460        53
40.470        50
40.480        77
40.490        37
40.500        53
40.510        57
40.520        83
40.530        57
40.540        43
40.550        57
40.560        57
40.570        77
40.580        53
40.590        33
40.600        47
40.610        40
40.620        53
40.630        53
40.640        53
40.650        53
40.660        50
40.670        73
40.680        53
40.690        50
40.700        63
40.710        70
40.720        80
40.730        53
40.740        27
40.750        47
40.760        63
40.770        53
40.780        53
40.790        77
40.800        57
40.810        80
40.820        50
40.830        70
40.840        77
40.850        40
40.860        27
40.870        27
40.880        33
40.890        53
40.900        37
40.910        50
40.920        70
40.930        47
40.940        33
40.950        53
40.960        40
40.970        43
40.980        50
40.990        33
41.000        33
41.010        43
41.020        50
41.030        43
41.040        80
41.050        70
41.060        30
41.070        43
41.080        43
41.090        37
41.100        50
41.110        37
41.120        47
41.130        53
41.140        43
41.150        50
41.160        37
41.170        40
41.180        67
41.190        60
41.200        63
41.210        40
41.220        53
41.230        57
41.240        47
41.250        40
41.260        30
41.270        33
41.280        60
41.290        47
41.300        60
41.310        73
41.320        53
41.330        53
41.340        53
41.350        67
41.360        53
41.370        77
41.380        60
41.390        40
41.400        57
41.410        37
41.420        33
41.430        33
41.440        37
41.450        43
41.460        43
41.470        47
41.480        67
41.490        47
41.500        27
41.510        70
41.520        73
41.530        67
41.540        53
41.550        30
41.560        40
41.570        53
41.580        70
41.590        37
41.600        47
41.610        73
41.620        80
41.630        53
41.640        33
41.650        50
41.660        63
41.670        67
41.680        63
41.690        63
41.700        33
41.710        47
41.720        43
41.730        60
41.740        53
41.750        60
41.760        53
41.770        53
41.780        80
41.790        50
41.800        57
41.810        53
41.820        60
41.830        57
41.840        43
41.850        57
41.860        83
41.870        60
41.880        33
41.890        43
41.900        67
41.910        40
41.920        57
41.930        43
41.940        40
41.950        67
41.960        27
41.970        37
41.980        40
41.990        37
42.000        40
42.010        47
42.020        37
42.030        30
42.040        33
42.050        43
42.060        47
42.070        47
42.080        37
42.090        40
42.100        50
42.110        70
42.120        37
42.130        30
42.140        60
42.150        67
42.160        57
42.170        57
42.180        40
42.190        40
42.200        50
42.210        30
42.220        53
42.230        57
42.240        40
42.250        37
42.260        50
42.270        43
42.280        20
42.290        43
42.300        43
42.310        43
42.320        67
42.330        77
42.340        50
42.350        43
42.360        33
42.370        50
42.380        57
42.390        57
42.400        57
42.410        43
42.420        37
42.430        67
42.440        70
42.450        37
42.460        57
42.470        33
42.480        43
42.490        40
42.500        50
42.510        47
42.520        43
42.530        37
42.540        33
42.550        53
42.560        50
42.570        37
42.580        37
42.590        53
42.600        50
42.610        53
42.620        40
42.630        43
42.640        57
42.650        37
42.660        50
42.670        37
42.680        43
42.690        63
42.700        57
42.710        53
42.720        50
42.730        57
42.740        47
42.750        43
42.760        30
42.770        53
42.780        63
42.790        43
42.800        70
42.810        60
42.820        77
42.830        70
42.840        77
42.850        60
42.860        67
42.870        50
42.880        50
42.890        50
42.900        77
42.910        27
42.920        60
42.930        60
42.940        43
42.950        30
42.960        67
42.970        57
42.980       110
42.990        43
43.000        67
43.010        63
43.020        60
43.030        77
43.040        47
43.050       110
43.060        73
43.070        73
43.080        70
43.090        87
43.100        97
43.110        83
43.120        93
43.130        67
43.140        57
43.150        87
43.160        63
43.170        50
43.180        73
43.190        57
43.200        73
43.210        57
43.220        63
43.230        90
43.240        73
43.250        63
43.260        67
43.270        70
43.280        63
43.290        43
43.300        60
43.310        37
43.320        60
43.330        67
43.340        60
43.350        33
43.360        33
43.370        33
43.380        50
43.390        30
43.400        63
43.410        60
43.420        27
43.430        50
43.440        27
43.450        47
43.460        57
43.470        33
43.480        33
43.490        63
43.500        33
43.510        43
43.520        40
43.530        27
43.540        50
43.550        43
43.560        47
43.570        47
43.580        37
43.590        43
43.600        40
43.610        47
43.620        67
43.630        30
43.640        47
43.650        43
43.660        40
43.670        43
43.680        33
43.690        63
43.700        23
43.710        60
43.720        33
43.730        63
43.740        47
43.750        57
43.760        40
43.770        33
43.780        40
43.790        33
43.800        73
43.810        37
43.820        40
43.830        67
43.840        60
43.850        27
43.860        37
43.870        50
43.880        47
43.890        40
43.900        50
43.910        57
43.920        67
43.930        47
43.940        47
43.950        50
43.960        47
43.970        30
43.980        40
43.990        37
44.000        50
44.010        33
44.020        33
44.030        63
44.040        40
44.050        57
44.060        57
44.070        30
44.080        53
44.090        47
44.100        37
44.110        33
44.120        63
44.130        43
44.140        30
44.150        47
44.160        43
44.170        23
44.180        47
44.190        47
44.200        50
44.210        40
44.220        33
44.230        53
44.240        40
44.250        47
44.260        47
44.270        60
44.280        30
44.290        53
44.300        17
44.310        63
44.320        53
44.330        67
44.340        47
44.350        57
44.360        23
44.370        33
44.380        60
44.390        33
44.400        77
44.410        37
44.420        47
44.430        37
44.440        27
44.450        40
44.460        47
44.470        23
44.480        33
44.490        47
44.500        27
44.510        33
44.520        53
44.530        53
44.540        40
44.550        43
44.560        30
44.570        50
44.580        23
44.590        47
44.600        53
44.610        57
44.620        43
44.630        47
44.640        37
44.650        70
44.660        47
44.670        37
44.680        43
44.690        83
44.700        37
44.710        47
44.720        70
44.730        47
44.740        63
44.750        53
44.760        40
44.770        57
44.780        70
44.790        20
44.800        33
44.810        77
44.820        37
44.830        47
44.840        57
44.850        40
44.860        53
44.870        63
44.880        40
44.890        47
44.900        57
44.910        50
44.920        73
44.930        30
44.940        23
44.950        73
44.960        37
44.970        80
44.980        53
44.990        60
45.000        43
45.010        53
45.020        57
45.030        50
45.040        37
45.050        23
45.060        33
45.070        33
45.080        47
45.090        40
45.100        57
45.110        33
45.120        47
45.130        43
45.140        70
45.150        37
45.160        70
45.170        43
45.180        30
45.190        63
45.200        60
45.210        40
45.220        43
45.230        50
45.240        63
45.250        40
45.260        43
45.270        73
45.280        60
45.290        40
45.300        40
45.310        63
45.320        60
45.330        53
45.340        53
45.350        53
45.360        23
45.370        67
45.380        47
45.390        57
45.400        43
45.410        53
45.420        63
45.430        40
45.440        30
45.450        67
45.460        50
45.470        43
45.480        33
45.490        77
45.500        27
45.510        33
45.520        50
45.530        33
45.540        53
45.550        40
45.560        20
45.570        43
45.580        73
45.590        43
45.600        73
45.610        37
45.620        50
45.630        57
45.640        57
45.650        37
45.660        57
45.670        50
45.680        50
45.690        37
45.700        37
45.710        50
45.720        47
45.730        47
45.740        50
45.750        30
45.760        57
45.770        40
45.780        53
45.790        40
45.800        37
45.810        40
45.820        60
45.830        47
45.840        33
45.850        23
45.860        43
45.870        53
45.880        60
45.890        73
45.900        43
45.910        70
45.920        87
45.930        30
45.940        50
45.950        40
45.960        53
45.970        67
45.980        47
45.990        27
46.000        63
46.010        53
46.020        53
46.030        80
46.040        50
46.050        43
46.060        53
46.070        73
46.080        47
46.090        53
46.100        30
46.110        70
46.120        37
46.130        53
46.140        83
46.150        30
46.160        60
46.170        43
46.180        53
46.190        43
46.200        33
46.210        50
46.220        50
46.230        67
46.240        47
46.250        43
46.260        63
46.270        23
46.280        57
46.290        37
46.300        40
46.310        80
46.320        33
46.330        63
46.340        43
46.350        43
46.360        43
46.370        57
46.380        50
46.390        53
46.400        20
46.410        70
46.420        57
46.430        73
46.440        70
46.450        57
46.460        67
46.470        37
46.480        50
46.490        47
46.500        47
46.510        67
46.520        47
46.530        57
46.540        47
46.550        53
46.560        57
46.570        40
46.580        53
46.590        57
46.600        43
46.610        40
46.620        50
46.630        60
46.640        37
46.650        33
46.660        43
46.670        37
46.680        90
46.690        63
46.700        53
46.710        77
46.720        33
46.730        47
46.740        87
46.750        67
46.760        53
46.770        47
46.780        67
46.790        67
46.800        90
46.810        83
46.820        73
46.830        37
46.840        57
46.850        77
46.860        57
46.870        83
46.880        63
46.890        53
46.900        67
46.910        73
46.920        60
46.930        93
46.940        63
46.950        80
46.960        80
46.970        63
46.980       113
46.990        83
47.000        90
47.010       120
47.020        93
47.030       110
47.040       120
47.050        67
47.060       123
47.070       127
47.080       107
47.090       150
47.100       167
47.110       223
47.120       233
47.130       303
47.140       367
47.150       483
47.160       530
47.170       610
47.180       726
47.190       706
47.200       816
47.210       593
47.220       546
47.230       383
47.240       327
47.250       227
47.260       223
47.270       147
47.280       177
47.290       157
47.300       123
47.310       130
47.320       120
47.330        93
47.340       120
47.350        93
47.360       147
47.370       127
47.380        97
47.390       117
47.400       140
47.410       147
47.420       143
47.430       107
47.440       133
47.450       143
47.460        90
47.470       123
47.480       103
47.490       103
47.500       103
47.510        93
47.520       123
47.530        87
47.540       103
47.550        97
47.560       123
47.570       113
47.580        63
47.590        83
47.600        87
47.610        70
47.620        40
47.630        83
47.640        80
47.650        47
47.660        67
47.670        77
47.680        60
47.690        53
47.700        70
47.710        90
47.720        60
47.730        50
47.740        70
47.750        70
47.760        67
47.770        63
47.780        83
47.790        57
47.800        37
47.810        53
47.820        67
47.830        63
47.840        43
47.850        53
47.860        60
47.870        47
47.880        47
47.890        33
47.900        43
47.910        50
47.920        37
47.930        70
47.940        63
47.950        53
47.960        30
47.970        47
47.980        53
47.990        80
48.000        63
48.010        60
48.020        47
48.030        53
48.040        60
48.050        53
48.060        63
48.070        50
48.080        60
48.090        47
48.100        60
48.110        33
48.120        67
48.130        60
48.140        53
48.150        57
48.160        83
48.170        83
48.180        63
48.190        63
48.200        50
48.210        67
48.220        70
48.230        63
48.240        60
48.250        57
48.260        80
48.270        77
48.280        70
48.290        70
48.300        73
48.310        63
48.320        80
48.330        93
48.340        90
48.350        83
48.360       103
48.370        80
48.380       103
48.390        97
48.400       133
48.410       100
48.420        77
48.430       113
48.440        90
48.450        97
48.460       113
48.470        87
48.480        93
48.490        67
48.500       107
48.510        63
48.520        97
48.530       100
48.540        87
48.550        63
48.560        87
48.570        67
48.580        70
48.590        73
48.600        43
48.610        73
48.620        60
48.630        80
48.640        47
48.650        63
48.660        60
48.670        53
48.680        50
48.690        43
48.700        50
48.710        47
48.720        47
48.730        57
48.740        57
48.750        47
48.760        50
48.770        60
48.780        43
48.790        63
48.800        57
48.810        60
48.820        43
48.830        47
48.840        43
48.850        83
48.860        50
48.870        50
48.880        40
48.890        40
48.900        73
48.910        63
48.920        67
48.930        40
48.940        60
48.950        33
48.960        40
48.970        47
48.980        43
48.990        60
49.000        63
49.010        50
49.020        60
49.030        47
49.040        50
49.050        40
49.060        57
49.070        73
49.080        57
49.090        50
49.100        53
49.110        40
49.120        53
49.130        37
49.140        40
49.150        30
49.160        37
49.170        60
49.180        60
49.190        27
49.200        60
49.210        43
49.220        53
49.230        43
49.240        53
49.250        37
49.260        67
49.270        57
49.280        37
49.290        57
49.300        63
49.310        40
49.320        53
49.330        40
49.340        63
49.350        53
49.360        37
49.370        63
49.380        63
49.390        60
49.400        53
49.410        37
49.420        50
49.430        30
49.440        63
49.450        77
49.460        40
49.470        70
49.480        67
49.490        53
49.500        70
49.510        60
49.520        47
49.530        43
49.540        53
49.550        57
49.560        57
49.570        40
49.580        53
49.590        63
49.600        77
49.610        50
49.620        57
49.630        67
49.640        57
49.650        50
49.660        63
49.670        53
49.680        47
49.690        60
49.700        33
49.710        53
49.720        67
49.730        53
49.740        30
49.750        77
49.760        47
49.770        57
49.780        57
49.790        57
49.800        80
49.810        40
49.820        53
49.830        63
49.840        40
49.850        30
49.860        40
49.870        60
49.880        47
49.890        50
49.900        30
49.910        47
49.920        43
49.930        27
49.940        33
49.950        67
49.960        53
49.970        67
49.980        43
49.990        50
50.000        63
50.010        47
50.020        80
50.030        57
50.040        43
50.050        33
50.060        67
50.070        50
50.080        53
50.090        47
50.100        40
50.110        33
50.120        57
50.130        70
50.140        70
50.150        63
50.160        50
50.170        33
50.180        60
50.190        53
50.200        43
50.210        43
50.220        47
50.230        23
50.240        60
50.250        77
50.260        43
50.270        60
50.280        50
50.290        40
50.300        57
50.310        63
50.320        50
50.330        67
50.340        60
50.350        60
50.360        50
50.370        43
50.380        67
50.390        47
50.400        43
50.410        67
50.420        40
50.430        53
50.440        67
50.450        63
50.460        67
50.470        53
50.480        53
50.490        60
50.500        60
50.510        47
50.520        70
50.530        73
50.540        50
50.550        60
50.560        67
50.570        63
50.580        77
50.590        83
50.600        83
50.610        73
50.620        90
50.630        97
50.640       110
50.650       117
50.660       197
50.670       133
50.680       130
50.690       133
50.700       173
50.710       210
50.720       157
50.730       217
50.740       207
50.750       153
50.760       120
50.770       237
50.780       170
50.790       197
50.800       167
50.810       183
50.820       190
50.830       187
50.840       170
50.850       140
50.860       197
50.870       150
50.880       183
50.890       233
50.900       177
50.910       193
50.920       193
50.930       183
50.940       180
50.950       207
50.960       160
50.970       233
50.980       177
50.990       157
51.000       227
51.010       137
51.020       177
51.030       213
51.040       130
51.050       193
51.060       220
51.070       187
51.080       180
51.090       197
51.100       207
51.110       150
51.120       240
51.130       203
51.140       193
51.150       167
51.160       187
51.170       210
51.180       197
51.190       207
51.200       237
51.210       147
51.220       190
51.230       197
51.240       133
51.250       223
51.260       233
51.270       190
51.280       153
51.290       220
51.300       150
51.310       217
51.320       180
51.330       183
51.340       167
51.350       183
51.360       200
51.370       217
51.380       193
51.390       187
51.400       210
51.410       193
51.420       213
51.430       217
51.440       220
51.450       180
51.460       187
51.470       160
51.480       220
51.490       220
51.500       187
51.510       197
51.520       170
51.530       160
51.540       217
51.550       193
51.560       170
51.570       157
51.580       170
51.590       187
51.600       177
51.610       200
51.620       263
51.630       223
51.640       187
51.650       223
51.660       193
51.670       173
51.680       207
51.690       247
51.700       230
51.710       193
51.720       210
51.730       200
51.740       203
51.750       167
51.760       217
51.770       220
51.780       203
51.790       227
51.800       230
51.810       213
51.820       250
51.830       197
51.840       213
51.850       197
51.860       207
51.870       247
51.880       270
51.890       203
51.900       237
51.910       243
51.920       243
51.930       190
51.940       213
51.950       197
51.960       217
51.970       207
51.980       233
51.990       307
52.000       253
52.010       280
52.020       250
52.030       273
52.040       267
52.050       243
52.060       377
52.070       317
52.080       320
52.090       273
52.100       350
52.110       310
52.120       350
52.130       367
52.140       403
52.150       446
52.160       397
52.170       440
52.180       407
52.190       407
52.200       506
52.210       486
52.220       417
52.230       676
52.240       700
52.250       866
52.260       913
52.270      1146
52.280      1313
52.290      1553
52.300      1676
52.310      2059
52.320      2176
52.330      2389
52.340      2666
52.350      2839
52.360      3152
52.370      3572
52.380      4032
52.390      4088
52.400      4545
52.410      4558
52.420      4658
52.430      5008
52.440      4768
52.450      5378
52.460       733
52.470      5971
52.480      7174
52.490      8227
52.500     10096
52.510     13391
52.520     18816
52.530     28379
52.540     40754
52.550     53932
52.560     65117
52.570     69562
52.580     70908
52.590     68839
52.600     63521
52.610     54078
52.620     41637
52.630     28835
52.640     20259
52.650     15570
52.660     15007
52.670     18366
52.680     22977
52.690     29465
52.700     34580
52.710     37345
52.720     37812
52.730     37218
52.740     33457
52.750     27812
52.760     20838
52.770     13911
52.780      8846
52.790      6094
52.800      4512
52.810      3562
52.820      2969
52.830      2712
52.840      2469
52.850      2086
52.860      1859
52.870      1799
52.880      1593
52.890      1489
52.900      1299
52.910      1116
52.920       960
52.930       820
52.940       716
52.950       596
52.960       560
52.970       613
52.980       506
52.990       570
53.000       407
53.010       490
53.020       380
53.030       426
53.040       393
53.050       403
53.060       387
53.070       380
53.080       413
53.090       377
53.100       400
53.110       333
53.120       330
53.130       370
53.140       287
53.150       280
53.160       317
53.170       290
53.180       330
53.190       320
53.200       310
53.210       233
53.220       290
53.230       277
53.240       267
53.250       287
53.260       243
53.270       210
53.280       280
53.290       207
53.300       250
53.310       263
53.320       210
53.330       227
53.340       220
53.350       223
53.360       220
53.370       310
53.380       233
53.390       210
53.400       213
53.410       220
53.420       277
53.430       197
53.440       190
53.450       197
53.460       193
53.470       223
53.480       153
53.490       240
53.500       200
53.510       247
53.520       233
53.530       187
53.540       220
53.550       220
53.560       190
53.570       173
53.580       180
53.590       207
53.600       207
53.610       187
53.620       203
53.630       223
53.640       193
53.650       167
53.660       203
53.670       187
53.680       140
53.690       183
53.700       190
53.710       163
53.720       170
53.730       147
53.740       187
53.750       193
53.760       187
53.770       200
53.780       173
53.790       187
53.800       157
53.810       177
53.820       137
53.830       157
53.840       133
53.850       197
53.860       177
53.870       127
53.880       123
53.890       160
53.900       187
53.910       163
53.920       123
53.930       157
53.940       187
53.950       183
53.960       203
53.970       153
53.980       150
53.990       143
54.000       123
54.010       200
54.020       200
54.030       177
54.040       127
54.050       147
54.060       140
54.070       160
54.080       150
54.090       117
54.100       150
54.110       127
54.120       137
54.130       120
54.140       160
54.150       173
54.160       187
54.170       133
54.180       120
54.190       187
54.200       167
54.210       203
54.220       187
54.230       123
54.240       167
54.250       207
54.260       140
54.270       180
54.280       187
54.290       167
54.300       143
54.310       157
54.320       167
54.330       167
54.340       173
54.350       197
54.360       207
54.370       193
54.380       143
54.390       180
54.400       203
54.410       200
54.420       270
54.430       210
54.440       213
54.450       283
54.460       243
54.470       293
54.480       303
54.490       303
54.500       297
54.510       330
54.520       310
54.530       370
54.540       446
54.550       480
54.560       433
54.570       490
54.580       570
54.590       603
54.600       460
54.610       610
54.620       586
54.630       520
54.640       643
54.650       573
54.660       616
54.670       583
54.680       690
54.690       503
54.700       556
54.710       613
54.720       510
54.730       546
54.740       510
54.750       440
54.760       443
54.770       417
54.780       430
54.790       426
54.800       380
54.810       440
54.820       400
54.830       353
54.840       333
54.850       273
54.860       370
54.870       240
54.880       297
54.890       320
54.900       280
54.910       230
54.920       210
54.930       193
54.940       253
54.950       200
54.960       187
54.970       163
54.980       203
54.990       127
55.000       177
55.010       200
55.020       127
55.030       180
55.040       157
55.050       160
55.060       123
55.070       153
55.080       150
55.090       160
55.100       103
55.110       180
55.120       150
55.130       130
55.140       163
55.150       147
55.160       143
55.170       140
55.180       137
55.190       133
55.200       137
55.210       120
55.220       143
55.230       123
55.240       157
55.250       143
55.260       153
55.270       117
55.280       140
55.290       157
55.300       150
55.310       107
55.320       137
55.330       100
55.340       133
55.350       107
55.360        87
55.370       120
55.380        93
55.390       153
55.400       137
55.410       110
55.420        93
55.430       120
55.440       113
55.450       123
55.460       140
55.470       100
55.480       133
55.490       127
55.500       117
55.510       107
55.520       120
55.530       107
55.540       110
55.550       127
55.560       103
55.570       107
55.580       133
55.590        93
55.600       137
55.610       137
55.620       100
55.630       133
55.640       170
55.650       143
55.660       123
55.670       147
55.680        80
55.690       127
55.700        83
55.710       103
55.720       137
55.730       107
55.740       150
55.750       120
55.760       150
55.770       117
55.780       117
55.790       117
55.800        73
55.810       100
55.820       117
55.830       103
55.840        97
55.850        83
55.860        90
55.870       113
55.880       103
55.890       137
55.900       100
55.910        97
55.920       140
55.930       120
55.940       110
55.950       117
55.960       130
55.970       107
55.980       127
55.990       127
56.000       120
56.010       107
56.020       133
56.030       147
56.040       107
56.050       133
56.060       130
56.070       137
56.080       113
56.090       120
56.100        87
56.110       130
56.120       100
56.130       113
56.140       107
56.150        83
56.160       140
56.170       113
56.180       130
56.190        93
56.200        93
56.210       117
56.220        93
56.230       113
56.240        90
56.250       120
56.260       120
56.270       107
56.280       123
56.290       103
56.300       117
56.310       100
56.320       107
56.330       123
56.340       133
56.350       130
56.360       103
56.370        87
56.380       120
56.390       133
56.400       107
56.410       133
56.420       107
56.430       100
56.440       100
56.450       100
56.460        67
56.470        93
56.480       113
56.490       103
56.500       127
56.510        87
56.520       127
56.530       110
56.540       117
56.550       123
56.560       113
56.570       127
56.580        97
56.590       123
56.600        87
56.610       130
56.620        90
56.630        87
56.640       107
56.650       123
56.660        83
56.670       117
56.680        77
56.690        70
56.700        97
56.710       123
56.720        77
56.730        87
56.740        90
56.750       103
56.760        90
56.770       143
56.780        83
56.790       113
56.800        90
56.810        87
56.820        80
56.830        83
56.840       103
56.850       120
56.860       110
56.870       133
56.880        97
56.890        83
56.900       100
56.910       133
56.920        87
56.930       100
56.940        73
56.950        83
56.960       100
56.970       113
56.980        70
56.990        80
57.000       110
57.010        90
57.020       107
57.030       113
57.040        90
57.050       103
57.060        87
57.070        93
57.080       113
57.090       107
57.100       117
57.110       100
57.120       100
57.130        87
57.140       113
57.150        77
57.160       110
57.170        87
57.180       123
57.190       127
57.200       137
57.210        80
57.220       127
57.230        83
57.240       107
57.250       117
57.260       120
57.270        63
57.280        93
57.290        93
57.300       103
57.310       147
57.320       120
57.330       110
57.340        90
57.350       150
57.360        93
57.370       160
57.380       127
57.390       113
57.400       147
57.410        87
57.420       120
57.430        70
57.440       133
57.450       140
57.460        63
57.470       110
57.480       107
57.490        93
57.500       153
57.510        90
57.520        80
57.530        63
57.540        97
57.550        97
57.560        63
57.570       117
57.580       110
57.590       100
57.600        83
57.610        90
57.620        80
57.630        87
57.640        97
57.650        57
57.660        93
57.670        87
57.680        73
57.690        93
57.700        93
57.710        93
57.720       113
57.730       113
57.740        70
57.750        70
57.760       107
57.770        73
57.780       107
57.790        87
57.800        97
57.810        90
57.820        87
57.830        73
57.840        90
57.850        70
57.860        73
57.870        70
57.880        97
57.890        87
57.900        87
57.910        87
57.920        90
57.930        70
57.940        80
57.950        80
57.960        90
57.970        73
57.980        83
57.990        77
58.000       133
58.010        87
58.020        80
58.030        57
58.040        83
58.050        90
58.060       123
58.070       113
58.080        93
58.090        77
58.100       100
58.110       107
58.120        57
58.130       100
58.140        73
58.150        57
58.160        80
58.170        90
58.180        97
58.190       107
58.200        80
58.210       107
58.220        87
58.230        87
58.240       103
58.250        77
58.260        67
58.270       107
58.280        77
58.290        93
58.300       100
58.310       103
58.320        90
58.330        70
58.340        87
58.350        90
58.360        90
58.370       100
58.380        87
58.390        77
58.400       100
58.410        60
58.420        67
58.430        80
58.440        83
58.450       107
58.460        77
58.470       107
58.480        73
58.490        83
58.500        67
58.510       110
58.520        93
58.530        67
58.540        67
58.550       100
58.560        67
58.570        63
58.580        90
58.590        67
58.600        73
58.610        53
58.620        60
58.630        77
58.640       103
58.650        97
58.660        60
58.670        90
58.680        67
58.690        87
58.700        90
58.710        57
58.720        77
58.730        80
58.740        80
58.750        77
58.760        90
58.770        80
58.780        63
58.790        77
58.800        60
58.810        67
58.820        53
58.830        60
58.840        90
58.850        80
58.860        97
58.870       100
58.880        93
58.890        87
58.900        87
58.910        83
58.920        73
58.930        70
58.940        83
58.950        77
58.960        60
58.970        60
58.980        80
58.990       107
59.000        57
59.010        87
59.020        77
59.030        80
59.040        73
59.050        77
59.060        83
59.070        53
59.080        53
59.090        97
59.100        63
59.110        97
59.120        77
59.130        60
59.140        73
59.150        93
59.160        60
59.170        60
59.180        67
59.190        87
59.200       100
59.210        37
59.220        77
59.230        90
59.240        67
59.250        57
59.260       100
59.270        83
59.280        83
59.290        50
59.300        73
59.310        57
59.320        93
59.330        53
59.340        77
59.350        43
59.360       103
59.370        73
59.380        63
59.390        70
59.400        70
59.410        70
59.420        67
59.430        73
59.440        70
59.450        63
59.460        80
59.470        70
59.480        83
59.490       103
59.500        63
59.510        70
59.520       130
59.530        90
59.540       110
59.550        67
59.560        83
59.570        77
59.580        87
59.590        77
59.600        50
59.610        50
59.620       100
59.630        43
59.640        70
59.650        83
59.660        73
59.670        73
59.680        70
59.690        83
59.700        67
59.710        87
59.720        67
59.730       113
59.740        67
59.750        47
59.760        63
59.770        87
59.780        83
59.790        60
59.800        83
59.810        63
59.820        60
59.830        70
59.840        90
59.850        13
59.860         0
59.870         0
59.880         0
59.890         0
59.900         0
59.910         0
59.920         0
59.930         3
59.940         0
59.950         0
59.960         0
59.970         0
59.980         0
59.990         0
60.000         0
