20.000       137
20.020       147
20.040       110
20.060        93
20.080       137
20.100       147
20.120       140
20.140       143
20.160       157
20.180       100
20.200       130
20.220       113
20.240       113
20.260       117
20.280       163
20.300       110
20.320       130
20.340       140
20.360       103
20.380       137
20.400       137
20.420       107
20.440        97
20.460       137
20.480       157
20.500       113
20.520       120
20.540       100
20.560       113
20.580       123
20.600       110
20.620       120
20.640       110
20.660       127
20.680       143
20.700        83
20.720        83
20.740       123
20.760       163
20.780       133
20.800        83
20.820       167
20.840        97
20.860       117
20.880       143
20.900       127
20.920       140
20.940       103
20.960       120
20.980       120
21.000       143
21.020       103
21.040       147
21.060       163
21.080       110
21.100       143
21.120       103
21.140       120
21.160       143
21.180       103
21.200       177
21.220       143
21.240       137
21.260       143
21.280       147
21.300       133
21.320       107
21.340       180
21.360        83
21.380       143
21.400       127
21.420        90
21.440       130
21.460       117
21.480       130
21.500        70
21.520       100
21.540       107
21.560       120
21.580        97
21.600       107
21.620        93
21.640       123
21.660       103
21.680        87
21.700       107
21.720        93
21.740       107
21.760       123
21.780       107
21.800        77
21.820       127
21.840        90
21.860       107
21.880       100
21.900        77
21.920       103
21.940        60
21.960       123
21.980       133
22.000       100
22.020        87
22.040       140
22.060        80
22.080       117
22.100        97
22.120       123
22.140       110
22.160       120
22.180        83
22.200        87
22.220        87
22.240       120
22.260        83
22.280       123
22.300       120
22.320       117
22.340       100
22.360       103
22.380       100
22.400       107
22.420        87
22.440       103
22.460       100
22.480       147
22.500       137
22.520       100
22.540       113
22.560       137
22.580       127
22.600       123
22.620        93
22.640       100
22.660       123
22.680       137
22.700       107
22.720       133
22.740       157
22.760       123
22.780       150
22.800       137
22.820       113
22.840       147
22.860       120
22.880       117
22.900       100
22.920       133
22.940       130
22.960       153
22.980        77
23.000       127
23.020       123
23.040       137
23.060       130
23.080       160
23.100       127
23.120       110
23.140        90
23.160        97
23.180       117
23.200       120
23.220        93
23.240        93
23.260       110
23.280        77
23.300       120
23.320       117
23.340       127
23.360       133
23.380       120
23.400       103
23.420        73
23.440        87
23.460       100
23.480       133
23.500       100
23.520       143
23.540       117
23.560       140
23.580       120
23.600       110
23.620       110
23.640        97
23.660        80
23.680       130
23.700       150
23.720        80
23.740        93
23.760        83
23.780        93
23.800       130
23.820       137
23.840       147
23.860       113
23.880        90
23.900       110
23.920       120
23.940       123
23.960       100
23.980        93
24.000       133
24.020        70
24.040       110
24.060       107
24.080       120
24.100       107
24.120       123
24.140       117
24.160       117
24.180        90
24.200       113
24.220       107
24.240       117
24.260       137
24.280       150
24.300        97
24.320       140
24.340       147
24.360       117
24.380       110
24.400       123
24.420       107
24.440       147
24.460       127
24.480       147
24.500       130
24.520       127
24.540       163
24.560       160
24.580       130
24.600       120
24.620       133
24.640       157
24.660       170
24.680       153
24.700       180
24.720       147
24.740       193
24.760       160
24.780       200
24.800       187
24.820       163
24.840       200
24.860       130
24.880       153
24.900       180
24.920       183
24.940       157
24.960       147
24.980       117
25.000       127
25.020       157
25.040       147
25.060       147
25.080       147
25.100       110
25.120       130
25.140       120
25.160       117
25.180       127
25.200       133
25.220       117
25.240       137
25.260       130
25.280       167
25.300       147
25.320       183
25.340       173
25.360       197
25.380       237
25.400       277
25.420       260
25.440       446
25.460       473
25.480       653
25.500      1033
25.520      2152
25.540      5075
25.560      7031
25.580      6877
25.600      6797
25.620      5401
25.640      4398
25.660      3709
25.680      2332
25.700      1566
25.720      1103
25.740       910
25.760       700
25.780       520
25.800       330
25.820       257
25.840       167
25.860       170
25.880       160
25.900       133
25.920       170
25.940       160
25.960       157
25.980       140
26.000       133
26.020       183
26.040       167
26.060       100
26.080       157
26.100       157
26.120       120
26.140       110
26.160       127
26.180       190
26.200       130
26.220       173
26.240       150
26.260       163
26.280       157
26.300       137
26.320       163
26.340       187
26.360       150
26.380       133
26.400       120
26.420       107
26.440       157
26.460       157
26.480       157
26.500       140
26.520       133
26.540       183
26.560       167
26.580       167
26.600       150
26.620       147
26.640       180
26.660       163
26.680       123
26.700       137
26.720       103
26.740       163
26.760       147
26.780       127
26.800       140
26.820       170
26.840       150
26.860        90
26.880       117
26.900       123
26.920       150
26.940       180
26.960       147
26.980       153
27.000       123
27.020       130
27.040       170
27.060       163
27.080       110
27.100       137
27.120       140
27.140       103
27.160       133
27.180       103
27.200       127
27.220       150
27.240       100
27.260       150
27.280       150
27.300       140
27.320       140
27.340       160
27.360       130
27.380       107
27.400       173
27.420       113
27.440       130
27.460       170
27.480       123
27.500       110
27.520       130
27.540       127
27.560       107
27.580       100
27.600       153
27.620       160
27.640       187
27.660       130
27.680        90
27.700       160
27.720       120
27.740       137
27.760       160
27.780       183
27.800       143
27.820        87
27.840       130
27.860       143
27.880       143
27.900       110
27.920       150
27.940       147
27.960       110
27.980       117
28.000       117
28.020       107
28.040       107
28.060       100
28.080       143
28.100       120
28.120       127
28.140       160
28.160       153
28.180       120
28.200       143
28.220       183
28.240       120
28.260       133
28.280       133
28.300       117
28.320       147
28.340       183
28.360       130
28.380       133
28.400       120
28.420       167
28.440       137
28.460       110
28.480       110
28.500       137
28.520       117
28.540       127
28.560       147
28.580       137
28.600       133
28.620       133
28.640       167
28.660       160
28.680       117
28.700       147
28.720       150
28.740       137
28.760       130
28.780       120
28.800       190
28.820       137
28.840       163
28.860       163
28.880       133
28.900       203
28.920       153
28.940       157
28.960       203
28.980       230
29.000       170
29.020       200
29.040       240
29.060       243
29.080       213
29.100       210
29.120       290
29.140       263
29.160       227
29.180       327
29.200       230
29.220       260
29.240       247
29.260       293
29.280       280
29.300       343
29.320       283
29.340       247
29.360       283
29.380       217
29.400       247
29.420       203
29.440       187
29.460       220
29.480       173
29.500       167
29.520       183
29.540       163
29.560       173
29.580       147
29.600       137
29.620       153
29.640       113
29.660       193
29.680       147
29.700       110
29.720        93
29.740       157
29.760       143
29.780       150
29.800       180
29.820       113
29.840       117
29.860       123
29.880       180
29.900       143
29.920       130
29.940       150
29.960       160
29.980        93
30.000       167
30.020       103
30.040       130
30.060       127
30.080       117
30.100       130
30.120        87
30.140       147
30.160       130
30.180       137
30.200       123
30.220       120
30.240       100
30.260       167
30.280       143
30.300       130
30.320       103
30.340       113
30.360       140
30.380       127
30.400       160
30.420       153
30.440       177
30.460       120
30.480       167
30.500       150
30.520       163
30.540       147
30.560       167
30.580       200
30.600       213
30.620       180
30.640       230
30.660       293
30.680       290
30.700       253
30.720       263
30.740       277
30.760       283
30.780       303
30.800       283
30.820       193
30.840       210
30.860       230
30.880       133
30.900       213
30.920       183
30.940       160
30.960       177
30.980       140
31.000       120
31.020       127
31.040       157
31.060       140
31.080       203
31.100       150
31.120       160
31.140       140
31.160       120
31.180       133
31.200       163
31.220       160
31.240       170
31.260       150
31.280       187
31.300       120
31.320       173
31.340       143
31.360       173
31.380       147
31.400       167
31.420       147
31.440       123
31.460       150
31.480       117
31.500       160
31.520       147
31.540       117
31.560        90
31.580       177
31.600       150
31.620       140
31.640       110
31.660       123
31.680       150
31.700       163
31.720       143
31.740       137
31.760       120
31.780       180
31.800       160
31.820       133
31.840       113
31.860       150
31.880       133
31.900       137
31.920       127
31.940       177
31.960       143
31.980       127
32.000       127
32.020       120
32.040       150
32.060       137
32.080       140
32.100       107
32.120       163
32.140       107
32.160       143
32.180       117
32.200       157
32.220       117
32.240       143
32.260       150
32.280       140
32.300       127
32.320       150
32.340       153
32.360       110
32.380       143
32.400       137
32.420       113
32.440       163
32.460       130
32.480       133
32.500       147
32.520       123
32.540       170
32.560       150
32.580       167
32.600       127
32.620       140
32.640       133
32.660       163
32.680       143
32.700       147
32.720       143
32.740       160
32.760       140
32.780        90
32.800       147
32.820       133
32.840       157
32.860       147
32.880        77
32.900       147
32.920       163
32.940       147
32.960        77
32.980       170
33.000       147
33.020       183
33.040       180
33.060       177
33.080       160
33.100       170
33.120       143
33.140       153
33.160       143
33.180       160
33.200       160
33.220       120
33.240       153
33.260       137
33.280       163
33.300       130
33.320       160
33.340       137
33.360       177
33.380       120
33.400       127
33.420       170
33.440       130
33.460       120
33.480       173
33.500       153
33.520       157
33.540       173
33.560       160
33.580       130
33.600       177
33.620       157
33.640       133
33.660       153
33.680       170
33.700       177
33.720       170
33.740       147
33.760       153
33.780       120
33.800       130
33.820       130
33.840       150
33.860       163
33.880       147
33.900       117
33.920       150
33.940       167
33.960        93
33.980       143
34.000       173
34.020       177
34.040       120
34.060       153
34.080       150
34.100       153
34.120       150
34.140       137
34.160        93
34.180       127
34.200       123
34.220       157
34.240       127
34.260       147
34.280       107
34.300       147
34.320       117
34.340       150
34.360       137
34.380       147
34.400       120
34.420       133
34.440       127
34.460       110
34.480       170
34.500       107
34.520       147
34.540       157
34.560       137
34.580       120
34.600       147
34.620       150
34.640       150
34.660       170
34.680       180
34.700        97
34.720        97
34.740       187
34.760       130
34.780       160
34.800       180
34.820       127
34.840       113
34.860       173
34.880       147
34.900       130
34.920       187
34.940       120
34.960       127
34.980       123
35.000       137
35.020       157
35.040       187
35.060       170
35.080       130
35.100       187
35.120       117
35.140       120
35.160       120
35.180       157
35.200       183
35.220       147
35.240       160
35.260       150
35.280       140
35.300       183
35.320       160
35.340       187
35.360       207
35.380       183
35.400       173
35.420       197
35.440       177
35.460       170
35.480       187
35.500       110
35.520       177
35.540       147
35.560       147
35.580       160
35.600       183
35.620       173
35.640       180
35.660       160
35.680       180
35.700       150
35.720       140
35.740       157
35.760       170
35.780       183
35.800       157
35.820       150
35.840       193
35.860       180
35.880       200
35.900       187
35.920       127
35.940       167
35.960       140
35.980       130
36.000       137
36.020       167
36.040       123
36.060       120
36.080       143
36.100       117
36.120       130
36.140       167
36.160       137
36.180        83
36.200       163
36.220       157
36.240        87
36.260       157
36.280       143
36.300       110
36.320       150
36.340       120
36.360       150
36.380       137
36.400       120
36.420       133
36.440       140
36.460       147
36.480       107
36.500       140
36.520        90
36.540       147
36.560       147
36.580        97
36.600       150
36.620       140
36.640       160
36.660        90
36.680       137
36.700       170
36.720       120
36.740       113
36.760       133
36.780       153
36.800       117
36.820        90
36.840       143
36.860       103
36.880       113
36.900       107
36.920       163
36.940       123
36.960       140
36.980       147
37.000       140
37.020       160
37.040       130
37.060       173
37.080       127
37.100       160
37.120       140
37.140       153
37.160       130
37.180       163
37.200       160
37.220       143
37.240       107
37.260       150
37.280       133
37.300       140
37.320       130
37.340       180
37.360       110
37.380       110
37.400       150
37.420       140
37.440       130
37.460       140
37.480       143
37.500       177
37.520       150
37.540       143
37.560       177
37.580       163
37.600       140
37.620       173
37.640       200
37.660       163
37.680       130
37.700       187
37.720       260
37.740       217
37.760       270
37.780       293
37.800       383
37.820       453
37.840       530
37.860       596
37.880       626
37.900       770
37.920       660
37.940       586
37.960       476
37.980       500
38.000       473
38.020       340
38.040       330
38.060       250
38.080       217
38.100       173
38.120       140
38.140       123
38.160       157
38.180       160
38.200       130
38.220       130
38.240       140
38.260       140
38.280       220
38.300       133
38.320       143
38.340       100
38.360       117
38.380        97
38.400       120
38.420       167
38.440       127
38.460       170
38.480       173
38.500       113
38.520       133
38.540       143
38.560       113
38.580        87
38.600       127
38.620       127
38.640       140
38.660       110
38.680       140
38.700       170
38.720       157
38.740       133
38.760       167
38.780       163
38.800        90
38.820       110
38.840       137
38.860       147
38.880       147
38.900       127
38.920       137
38.940       150
38.960       140
38.980       123
39.000       153
39.020       117
39.040       137
39.060       167
39.080       143
39.100       190
39.120       173
39.140       160
39.160       163
39.180       173
39.200       157
39.220       123
39.240       160
39.260       180
39.280       177
39.300       157
39.320       193
39.340       163
39.360       177
39.380       150
39.400       123
39.420       133
39.440       103
39.460       100
39.480       133
39.500       117
39.520       107
39.540        93
39.560       123
39.580       133
39.600       143
39.620       100
39.640       117
39.660       110
39.680        93
39.700       110
39.720       110
39.740       110
39.760        93
39.780       137
39.800       140
39.820       130
39.840        97
39.860       100
39.880       113
39.900        83
39.920       110
39.940        83
39.960       110
39.980       140
40.000       113
40.020        83
40.040       100
40.060       107
40.080       130
40.100        93
40.120        83
40.140       120
40.160        97
40.180        90
40.200       113
40.220        87
40.240       113
40.260       120
40.280        93
40.300       137
40.320        93
40.340       103
40.360       120
40.380       107
40.400        80
40.420       103
40.440        97
40.460       123
40.480       127
40.500       110
40.520       110
40.540       117
40.560        97
40.580       100
40.600        93
40.620       117
40.640        97
40.660        87
40.680       123
40.700       107
40.720        97
40.740        83
40.760       103
40.780       127
40.800       110
40.820        93
40.840        97
40.860       107
40.880       117
40.900       110
40.920       107
40.940       107
40.960        83
40.980       133
41.000        80
41.020        80
41.040        97
41.060       140
41.080       100
41.100       130
41.120        97
41.140       117
41.160       100
41.180        77
41.200        80
41.220        77
41.240       100
41.260        87
41.280       107
41.300        93
41.320        90
41.340       100
41.360       110
41.380       103
41.400       100
41.420       117
41.440        93
41.460       107
41.480        80
41.500        97
41.520       117
41.540       100
41.560       100
41.580        97
41.600        97
41.620       120
41.640       100
41.660       117
41.680        93
41.700        73
41.720        83
41.740       110
41.760       107
41.780       120
41.800        83
41.820       120
41.840        67
41.860        83
41.880       103
41.900        63
41.920        93
41.940       130
41.960        77
41.980        93
42.000        87
42.020        80
42.040        73
42.060        77
42.080        97
42.100        97
42.120        83
42.140       107
42.160        90
42.180        93
42.200        70
42.220       107
42.240       103
42.260       103
42.280       117
42.300       120
42.320        93
42.340       133
42.360        83
42.380       103
42.400        73
42.420        97
42.440        83
42.460       107
42.480        73
42.500        97
42.520       127
42.540        50
42.560        90
42.580        97
42.600       120
42.620        83
42.640       123
42.660       100
42.680        90
42.700        83
42.720        90
42.740       137
42.760        77
42.780        90
42.800        97
42.820       103
42.840       160
42.860       103
42.880       157
42.900       140
42.920       147
42.940       147
42.960       140
42.980       143
43.000       150
43.020       160
43.040       117
43.060       140
43.080       117
43.100       160
43.120       147
43.140       130
43.160       140
43.180       100
43.200        97
43.220       130
43.240       107
43.260       120
43.280       107
43.300        90
43.320        97
43.340        83
43.360        73
43.380       117
43.400        97
43.420        77
43.440       107
43.460       100
43.480        70
43.500        80
43.520        90
43.540        77
43.560       100
43.580       113
43.600        97
43.620        87
43.640        87
43.660       117
43.680        90
43.700        97
43.720        80
43.740        73
43.760        87
43.780        97
43.800       117
43.820        87
43.840        97
43.860       120
43.880       123
43.900        93
43.920        87
43.940       117
43.960       107
43.980       120
44.000       117
44.020       113
44.040       103
44.060        57
44.080       120
44.100        93
44.120        53
44.140        83
44.160        77
44.180        73
44.200        80
44.220        67
44.240        93
44.260       117
44.280        77
44.300        50
44.320        77
44.340        97
44.360       110
44.380       127
44.400       103
44.420        83
44.440        70
44.460       110
44.480        93
44.500        90
44.520        87
44.540        97
44.560        93
44.580        90
44.600        60
44.620        70
44.640        63
44.660        90
44.680        57
44.700        47
44.720       130
44.740       100
44.760        83
44.780        70
44.800       103
44.820        70
44.840       117
44.860        67
44.880       120
44.900        83
44.920        93
44.940       110
44.960       103
44.980       103
45.000        83
45.020        90
45.040        97
45.060        80
45.080       140
45.100       100
45.120        77
45.140        97
45.160       100
45.180        87
45.200        93
45.220        67
45.240       103
45.260        57
45.280        67
45.300        87
45.320        80
45.340       100
45.360        63
45.380        73
45.400       117
45.420       123
45.440        87
45.460        97
45.480        77
45.500        80
45.520        70
45.540       103
45.560        97
45.580        80
45.600       103
45.620       107
45.640        77
45.660       113
45.680       103
45.700        93
45.720        90
45.740       130
45.760        87
45.780       120
45.800        43
45.820        83
45.840        83
45.860        50
45.880        53
45.900        97
45.920        77
45.940        67
45.960        80
45.980        87
46.000        67
46.020        80
46.040        93
46.060        67
46.080        80
46.100        77
46.120       103
46.140       127
46.160        93
46.180       100
46.200        67
46.220        97
46.240       103
46.260        87
46.280        77
46.300        87
46.320       110
46.340        97
46.360        77
46.380       130
46.400        87
46.420        70
46.440       113
46.460       100
46.480        83
46.500        93
46.520       133
46.540        93
46.560        97
46.580       103
46.600        83
46.620       110
46.640        83
46.660       173
46.680       110
46.700       127
46.720       133
46.740       157
46.760       203
46.780       113
46.800       137
46.820       160
46.840       143
46.860       147
46.880       177
46.900       180
46.920       160
46.940       217
46.960       237
46.980       197
47.000       227
47.020       230
47.040       267
47.060       313
47.080       433
47.100       733
47.120      1166
47.140      1663
47.160      1929
47.180      1573
47.200      1076
47.220       573
47.240       413
47.260       350
47.280       313
47.300       293
47.320       297
47.340       303
47.360       240
47.380       230
47.400       250
47.420       187
47.440       173
47.460       210
47.480       127
47.500       180
47.520       153
47.540       130
47.560       133
47.580       140
47.600       127
47.620       147
47.640       127
47.660       120
47.680       100
47.700       113
47.720       127
47.740       150
47.760       127
47.780       143
47.800       120
47.820       113
47.840       117
47.860       147
47.880       117
47.900        73
47.920       137
47.940       120
47.960       147
47.980       130
48.000       120
48.020       117
48.040       120
48.060       120
48.080       117
48.100       120
48.120       117
48.140       153
48.160       173
48.180       157
48.200       133
48.220       130
48.240       153
48.260       167
48.280       180
48.300       197
48.320       190
48.340       183
48.360       180
48.380       167
48.400       177
48.420       167
48.440       187
48.460       147
48.480       140
48.500       153
48.520       113
48.540       170
48.560       113
48.580       110
48.600        77
48.620       103
48.640        93
48.660        83
48.680        70
48.700        90
48.720       103
48.740        80
48.760       117
48.780       123
48.800        97
48.820       127
48.840        97
48.860       113
48.880        97
48.900        83
48.920        80
48.940       140
48.960       120
48.980        77
49.000        83
49.020       100
49.040        90
49.060       120
49.080        80
49.100        77
49.120       120
49.140       137
49.160        93
49.180        83
49.200       137
49.220       103
49.240        77
49.260        87
49.280       133
49.300       103
49.320        83
49.340        73
49.360        93
49.380        93
49.400        90
49.420        73
49.440        87
49.460       103
49.480        90
49.500        70
49.520       123
49.540        73
49.560       110
49.580        97
49.600        90
49.620        73
49.640        77
49.660        87
49.680       113
49.700       123
49.720        80
49.740       113
49.760        83
49.780        57
49.800        83
49.820        97
49.840       107
49.860       143
49.880        97
49.900       130
49.920       110
49.940        67
49.960        37
49.980        77
50.000        73
50.020       100
50.040       107
50.060        97
50.080        97
50.100       103
50.120        97
50.140       100
50.160       133
50.180        70
50.200        87
50.220       113
50.240        73
50.260        87
50.280        87
50.300        73
50.320        87
50.340        73
50.360        97
50.380        90
50.400        83
50.420        97
50.440       107
50.460        83
50.480        77
50.500        93
50.520        83
50.540        87
50.560        93
50.580       127
50.600       200
50.620       267
50.640       343
50.660       417
50.680       400
50.700       473
50.720       530
50.740       496
50.760       466
50.780       483
50.800       496
50.820       460
50.840       543
50.860       500
50.880       480
50.900       526
50.920       520
50.940       503
50.960       430
50.980       513
51.000       490
51.020       470
51.040       560
51.060       420
51.080       616
51.100       443
51.120       456
51.140       556
51.160       453
51.180       473
51.200       493
51.220       536
51.240       407
51.260       550
51.280       536
51.300       516
51.320       530
51.340       550
51.360       440
51.380       493
51.400       523
51.420       500
51.440       493
51.460       530
51.480       530
51.500       516
51.520       426
51.540       520
51.560       533
51.580       433
51.600       590
51.620       546
51.640       576
51.660       526
51.680       520
51.700       563
51.720       530
51.740       540
51.760       593
51.780       573
51.800       736
51.820       593
51.840       676
51.860       503
51.880       696
51.900       523
51.920       613
51.940       763
51.960       683
51.980       720
52.000       746
52.020       703
52.040       623
52.060       880
52.080       826
52.100       803
52.120       930
52.140       953
52.160      1083
52.180      1120
52.200      1203
52.220      1439
52.240      1833
52.260      2169
52.280      2962
52.300      3252
52.320      3732
52.340      3838
52.360      3985
52.380      4255
52.400      4915
52.420      6401
52.440      9779
52.460     16617
52.480     31194
52.500     71881
52.520    142803
52.540    185026
52.560    183623
52.580    148361
52.600     84016
52.620     46771
52.640     52299
52.660     86975
52.680    112238
52.700    109863
52.720     85636
52.740     45798
52.760     20175
52.780     11615
52.800      8800
52.820      7254
52.840      5764
52.860      3928
52.880      2862
52.900      2369
52.920      2059
52.940      1683
52.960      1533
52.980      1403
53.000      1286
53.020      1186
53.040      1173
53.060      1006
53.080      1120
53.100       940
53.120       833
53.140       920
53.160       930
53.180       906
53.200       803
53.220       863
53.240       763
53.260       746
53.280       780
53.300       783
53.320       636
53.340       730
53.360       646
53.380       700
53.400       656
53.420       696
53.440       653
53.460       610
53.480       636
53.500       520
53.520       573
53.540       486
53.560       520
53.580       536
53.600       480
53.620       556
53.640       506
53.660       433
53.680       516
53.700       560
53.720       430
53.740       460
53.760       490
53.780       426
53.800       533
53.820       407
53.840       533
53.860       503
53.880       440
53.900       453
53.920       486
53.940       383
53.960       450
53.980       433
54.000       463
54.020       373
54.040       476
54.060       400
54.080       407
54.100       443
54.120       420
54.140       450
54.160       486
54.180       490
54.200       387
54.220       456
54.240       377
54.260       417
54.280       407
54.300       383
54.320       480
54.340       446
54.360       440
54.380       446
54.400       500
54.420       440
54.440       500
54.460       546
54.480       713
54.500       700
54.520       786
54.540       866
54.560      1060
54.580      1110
54.600      1180
54.620      1163
54.640      1356
54.660      1313
54.680      1306
54.700      1250
54.720      1206
54.740      1206
54.760      1143
54.780      1056
54.800       916
54.820       836
54.840       763
54.860       733
54.880       583
54.900       600
54.920       490
54.940       390
54.960       430
54.980       403
55.000       470
55.020       460
55.040       433
55.060       413
55.080       353
55.100       357
55.120       403
55.140       360
55.160       320
55.180       357
55.200       343
55.220       377
55.240       360
55.260       363
55.280       340
55.300       333
55.320       340
55.340       370
55.360       287
55.380       327
55.400       357
55.420       270
55.440       317
55.460       317
55.480       360
55.500       307
55.520       330
55.540       360
55.560       313
55.580       277
55.600       347
55.620       297
55.640       310
55.660       323
55.680       297
55.700       273
55.720       310
55.740       280
55.760       263
55.780       300
55.800       300
55.820       317
55.840       247
55.860       290
55.880       290
55.900       277
55.920       307
55.940       283
55.960       230
55.980       240
56.000       223
56.020       340
56.040       277
56.060       307
56.080       320
56.100       257
56.120       280
56.140       313
56.160       220
56.180       223
56.200       227
56.220       267
56.240       243
56.260       327
56.280       277
56.300       300
56.320       243
56.340       300
56.360       303
56.380       313
56.400       260
56.420       310
56.440       253
56.460       330
56.480       273
56.500       280
56.520       277
56.540       323
56.560       270
56.580       273
56.600       263
56.620       257
56.640       243
56.660       317
56.680       300
56.700       253
56.720       253
56.740       290
56.760       283
56.780       260
56.800       287
56.820       290
56.840       220
56.860       300
56.880       270
56.900       270
56.920       220
56.940       280
56.960       247
56.980       267
57.000       297
57.020       270
57.040       270
57.060       260
57.080       260
57.100       310
57.120       307
57.140       223
57.160       290
57.180       247
57.200       290
57.220       283
57.240       300
57.260       267
57.280       277
57.300       233
57.320       303
57.340       257
57.360       280
57.380       273
57.400       257
57.420       243
57.440       233
57.460       240
57.480       270
57.500       273
57.520       267
57.540       237
57.560       233
57.580       237
57.600       247
57.620       247
57.640       207
57.660       153
57.680       247
57.700       297
57.720       230
57.740       180
57.760       243
57.780       263
57.800       217
57.820       237
57.840       210
57.860       223
57.880       227
57.900       240
57.920       277
57.940       233
57.960       180
57.980       190
58.000       213
58.020       240
58.040       203
58.060       200
58.080       207
58.100       213
58.120       207
58.140       207
58.160       187
58.180       263
58.200       257
58.220       197
58.240       217
58.260       193
58.280       210
58.300       177
58.320       203
58.340       270
58.360       197
58.380       223
58.400       210
58.420       207
58.440       210
58.460       187
58.480       200
58.500       220
58.520       143
58.540       180
58.560       247
58.580       217
58.600       220
58.620       217
58.640       223
58.660       213
58.680       177
58.700       180
58.720       153
58.740       163
58.760       233
58.780       213
58.800       230
58.820       180
58.840       233
58.860       180
58.880       203
58.900       213
58.920       207
58.940       140
58.960       167
58.980       197
59.000       217
59.020       220
59.040       233
59.060       240
59.080       183
59.100       177
59.120       173
59.140       207
59.160       193
59.180       190
59.200       197
59.220       220
59.240       180
59.260       200
59.280       177
59.300       170
59.320       247
59.340       223
59.360       180
59.380       190
59.400       200
59.420       210
59.440       183
59.460       163
59.480       223
59.500       223
59.520       177
59.540       183
59.560       160
59.580       213
59.600       253
59.620       173
59.640       190
59.660       197
59.680       210
59.700       220
59.720       217
59.740       200
59.760       197
59.780       183
59.800       177
59.820       257
59.840       173
59.860       190
59.880       120
59.900       160
59.920       197
59.940       197
59.960       190
59.980       160
60.000       180
60.020       173
60.040       190
60.060       110
60.080       163
60.100       180
60.120       157
60.140       190
60.160       123
60.180       227
60.200       147
60.220       173
60.240       140
60.260       163
60.280       190
60.300       257
60.320       163
60.340       207
60.360       207
60.380       200
60.400       177
60.420       160
60.440       150
60.460       163
60.480       187
60.500       167
60.520       233
60.540       197
60.560       187
60.580       210
60.600       147
60.620       213
60.640       177
60.660       197
60.680       173
60.700       190
60.720       210
60.740       177
60.760       210
60.780       193
60.800       143
60.820       177
60.840       150
60.860       193
60.880       200
60.900       147
60.920       190
60.940       157
60.960       140
60.980       160
61.000       170
61.020       200
61.040       177
61.060       167
61.080       177
61.100       183
61.120       173
61.140       127
61.160       163
61.180       180
61.200       167
61.220       193
61.240       153
61.260       143
61.280       193
61.300       157
61.320       170
61.340       170
61.360       170
61.380       173
61.400       190
61.420       123
61.440       153
61.460       167
61.480       137
61.500       157
61.520       110
61.540       137
61.560       180
61.580       103
61.600       137
61.620       163
61.640       160
61.660       143
61.680       127
61.700       153
61.720       143
61.740       133
61.760       143
61.780       180
61.800       133
61.820       167
61.840       160
61.860       177
61.880       157
61.900       117
61.920       197
61.940       157
61.960       160
61.980       163
62.000       167
62.020       187
62.040       143
62.060       103
62.080       197
62.100       153
62.120       153
62.140       133
62.160       133
62.180       140
62.200       150
62.220       157
62.240       160
62.260       170
62.280       167
62.300       113
62.320       153
62.340       160
62.360       170
62.380       130
62.400       157
62.420       130
62.440       137
62.460       177
62.480       130
62.500       157
62.520       173
62.540       180
62.560       137
62.580       173
62.600       173
62.620       170
62.640       130
62.660       110
62.680       130
62.700       187
62.720       157
62.740        97
62.760       157
62.780       167
62.800       147
62.820       150
62.840       123
62.860       173
62.880       113
62.900       153
62.920       130
62.940       140
62.960       160
62.980       143
63.000       113
63.020       160
63.040       137
63.060       133
63.080       137
63.100       127
63.120       123
63.140        83
63.160       173
63.180       157
63.200       147
63.220       103
63.240       133
63.260       147
63.280       220
63.300       153
63.320       147
63.340       150
63.360       133
63.380       133
63.400       107
63.420       127
63.440       153
63.460       153
63.480       153
63.500       167
63.520       137
63.540       120
63.560       113
63.580       153
63.600       137
63.620       163
63.640       127
63.660        97
63.680       127
63.700       157
63.720       163
63.740       110
63.760       127
63.780       157
63.800       120
63.820        97
63.840       160
63.860       147
63.880        90
63.900       183
63.920       130
63.940       153
63.960       157
63.980       120
64.000       157
64.020       100
64.040       113
64.060       193
64.080       100
64.100       183
64.120       117
64.140       137
64.160       147
64.180       160
64.200       157
64.220       150
64.240       160
64.260       143
64.280       160
64.300       173
64.320       113
64.340       157
64.360       147
64.380       120
64.400       137
64.420       173
64.440       117
64.460       163
64.480       163
64.500       113
64.520       140
64.540       127
64.560       153
64.580       123
64.600       133
64.620       103
64.640       103
64.660       103
64.680       133
64.700       107
64.720       150
64.740       127
64.760       137
64.780       143
64.800       107
64.820        90
64.840       170
64.860       150
64.880       153
64.900       117
64.920       123
64.940        83
64.960        93
64.980       113
65.000       117
65.020       153
65.040        80
65.060        90
65.080       110
65.100       120
65.120       107
65.140       143
65.160        97
65.180       123
65.200       123
65.220       137
65.240       113
65.260       117
65.280       100
65.300       117
65.320       130
65.340       180
65.360       127
65.380       120
65.400       133
65.420       130
65.440       120
65.460       140
65.480       110
65.500       123
65.520       120
65.540       140
65.560       110
65.580       130
65.600       113
65.620       117
65.640       140
65.660       107
65.680       107
65.700       123
65.720       127
65.740       103
65.760        90
65.780       117
65.800       117
65.820       123
65.840       123
65.860       103
65.880        77
65.900        80
65.920       110
65.940        97
65.960       123
65.980       103
66.000       110
66.020       107
66.040       110
66.060        87
66.080        93
66.100       140
66.120        73
66.140        87
66.160       130
66.180        90
66.200        93
66.220       117
66.240       103
66.260        80
66.280       107
66.300       107
66.320        93
66.340       150
66.360       107
66.380        97
66.400       137
66.420       113
66.440       100
66.460       110
66.480        90
66.500       100
66.520       133
66.540       110
66.560        83
66.580       120
66.600        97
66.620        77
66.640       107
66.660        87
66.680        67
66.700        87
66.720       110
66.740       110
66.760        80
66.780        97
66.800       110
66.820        90
66.840       143
66.860       107
66.880        77
66.900        90
66.920        90
66.940        93
66.960        97
66.980       107
67.000        87
67.020       133
67.040        87
67.060        83
67.080        80
67.100       107
67.120       100
67.140        70
67.160        70
67.180        90
67.200        87
67.220        67
67.240        90
67.260        90
67.280        73
67.300       103
67.320        93
67.340        57
67.360        97
67.380       123
67.400        87
67.420        90
67.440        80
67.460        90
67.480       113
67.500        97
67.520       113
67.540       127
67.560       100
67.580        87
67.600       117
67.620        93
67.640        73
67.660       107
67.680        77
67.700        80
67.720        80
67.740        53
67.760       110
67.780       123
67.800       100
67.820        90
67.840       107
67.860        67
67.880       107
67.900        70
67.920       117
67.940        67
67.960        70
67.980        53
68.000       100
68.020        93
68.040        83
68.060        90
68.080        63
68.100       103
68.120        90
68.140        93
68.160        77
68.180       107
68.200       110
68.220        93
68.240       107
68.260        80
68.280       110
68.300        93
68.320       103
68.340        93
68.360       110
68.380       113
68.400        97
68.420       103
68.440       150
68.460        90
68.480        90
68.500        97
68.520       107
68.540        80
68.560        93
68.580        80
68.600       100
68.620       117
68.640        83
68.660        80
68.680        83
68.700        67
68.720        77
68.740       120
68.760        73
68.780        80
68.800        63
68.820        87
68.840       107
68.860        63
68.880        73
68.900        80
68.920        83
68.940       113
68.960        90
68.980       107
69.000        60
69.020        83
69.040        87
69.060        73
69.080        90
69.100       107
69.120        83
69.140        90
69.160       100
69.180        87
69.200        67
69.220        80
69.240        90
69.260        97
69.280        57
69.300        97
69.320        73
69.340        90
69.360        83
69.380        97
69.400        50
69.420       110
69.440        97
69.460       100
69.480        57
69.500        73
69.520        80
69.540        70
69.560       100
69.580        77
69.600       103
69.620        77
69.640        73
69.660       110
69.680        83
69.700       103
69.720        83
69.740        67
69.760        80
69.780       110
69.800        97
69.820        87
69.840        97
69.860        97
69.880       143
69.900        93
69.920       100
69.940        77
69.960       107
69.980       103
70.000        83
70.020        77
70.040        87
70.060       117
70.080        57
70.100        80
70.120        47
70.140        87
70.160       123
70.180        93
70.200        77
70.220        87
70.240        83
70.260        73
70.280        80
70.300       120
70.320        77
70.340       107
70.360        87
70.380       103
70.400        67
70.420        70
70.440        83
70.460        83
70.480        70
70.500        60
70.520        83
70.540        57
70.560        83
70.580        67
70.600        87
70.620        50
70.640        93
70.660        80
70.680        60
70.700        80
70.720        87
70.740        77
70.760        73
70.780        57
70.800        67
70.820        73
70.840        93
70.860        73
70.880        97
70.900        80
70.920       110
70.940        80
70.960        67
70.980        67
71.000        87
71.020        53
71.040        83
71.060        97
71.080        97
71.100        30
71.120        70
71.140        63
71.160        80
71.180        87
71.200        83
71.220        97
71.240        57
71.260        77
71.280        60
71.300        73
71.320        73
71.340        40
71.360        53
71.380        50
71.400        53
71.420        70
71.440        83
71.460        87
71.480        77
71.500        80
71.520        70
71.540        80
71.560        60
71.580        67
71.600        80
71.620        60
71.640        67
71.660        73
71.680        57
71.700        77
71.720        67
71.740        50
71.760        67
71.780        93
71.800        83
71.820        87
71.840        73
71.860        83
71.880        67
71.900        77
71.920        80
71.940        83
71.960        87
71.980        80
72.000        87
72.020       107
72.040        80
72.060        93
72.080        90
72.100        63
72.120        93
72.140       110
72.160        93
72.180        87
72.200        80
72.220       100
72.240        83
72.260        87
72.280        63
72.300        80
72.320        57
72.340        83
72.360        60
72.380        50
72.400        63
72.420        60
72.440        73
72.460        57
72.480        83
72.500        80
72.520        43
72.540        93
72.560        87
72.580        67
72.600        47
72.620        90
72.640        73
72.660        77
72.680        47
72.700        83
72.720        87
72.740        87
72.760        60
72.780        90
72.800        77
72.820        60
72.840        60
72.860        47
72.880        47
72.900        60
72.920        80
72.940        70
72.960        80
72.980        73
73.000        97
73.020        33
73.040        77
73.060        97
73.080        53
73.100        77
73.120        53
73.140        83
73.160        53
73.180        80
73.200       120
73.220        83
73.240        90
73.260        83
73.280       103
73.300        70
73.320        77
73.340        50
73.360        80
73.380        73
73.400        90
73.420        77
73.440       113
73.460        87
73.480        57
73.500        80
73.520       107
73.540        90
73.560        93
73.580        77
73.600        67
73.620       137
73.640        63
73.660        83
73.680       103
73.700       197
73.720       117
73.740       160
73.760       183
73.780       137
73.800        83
73.820       117
73.840        83
73.860       103
73.880        73
73.900        83
73.920        70
73.940        73
73.960        63
73.980        47
74.000        47
74.020        77
74.040        50
74.060        73
74.080        67
74.100        47
74.120        77
74.140        47
74.160        33
74.180        67
74.200        77
74.220        77
74.240        67
74.260        73
74.280        60
74.300        60
74.320        60
74.340        50
74.360        47
74.380        60
74.400        33
74.420        83
74.440        40
74.460        60
74.480        57
74.500        53
74.520        67
74.540        53
74.560        60
74.580        47
74.600        87
74.620        97
74.640        60
74.660        73
74.680        43
74.700        90
74.720        70
74.740        60
74.760        40
74.780        63
74.800        67
74.820        60
74.840        57
74.860        57
74.880        50
74.900        57
74.920        87
74.940        60
74.960        43
74.980        33
75.000        67
75.020        60
75.040        77
75.060        33
75.080        70
75.100        67
75.120        53
75.140        90
75.160        57
75.180        57
75.200        70
75.220        57
75.240        53
75.260        53
75.280        50
75.300        63
75.320        67
75.340        63
75.360       100
75.380        50
75.400        63
75.420        67
75.440        70
75.460        40
75.480        53
75.500        53
75.520        53
75.540        97
75.560        47
75.580        70
75.600        57
75.620        87
75.640        63
75.660        53
75.680        70
75.700        47
75.720        47
75.740        60
75.760        53
75.780        60
75.800        63
75.820        63
75.840        57
75.860        63
75.880        63
75.900        60
75.920        87
75.940        60
75.960        83
75.980        57
76.000        50
76.020        60
76.040        93
76.060        80
76.080       100
76.100        70
76.120        57
76.140        73
76.160        83
76.180        67
76.200        83
76.220        57
76.240        67
76.260        53
76.280        53
76.300        73
76.320        53
76.340        60
76.360        57
76.380        47
76.400        50
76.420        77
76.440        33
76.460        60
76.480        67
76.500        67
76.520        57
76.540        27
76.560        57
76.580        60
76.600        53
76.620        87
76.640        70
76.660        67
76.680        63
76.700        37
76.720        70
76.740        50
76.760        70
76.780        47
76.800        77
76.820        53
76.840        57
76.860        73
76.880        73
76.900        40
76.920        63
76.940        57
76.960        83
76.980        53
77.000        57
77.020       103
77.040        83
77.060        80
77.080        53
77.100        77
77.120        83
77.140        63
77.160        43
77.180        50
77.200        70
77.220        77
77.240        80
77.260        43
77.280        83
77.300        83
77.320        57
77.340        33
77.360        67
77.380        57
77.400        93
77.420        70
77.440        63
77.460        80
77.480        63
77.500        37
77.520        33
77.540        80
77.560        43
77.580        33
77.600        47
77.620        63
77.640        40
77.660        40
77.680        60
77.700        43
77.720        63
77.740        70
77.760        70
77.780        53
77.800        73
77.820        63
77.840        43
77.860        27
77.880        70
77.900        60
77.920        70
77.940        50
77.960        63
77.980        50
78.000        47
78.020        40
78.040        50
78.060        67
78.080        60
78.100        77
78.120        60
78.140        50
78.160        43
78.180        53
78.200        43
78.220        73
78.240        50
78.260        77
78.280        63
78.300        60
78.320        43
78.340        63
78.360        83
78.380        60
78.400        70
78.420        47
78.440        53
78.460        40
78.480        57
78.500        70
78.520        37
78.540        53
78.560        70
78.580        43
78.600        63
78.620        50
78.640        63
78.660        63
78.680        40
78.700        57
78.720        67
78.740        57
78.760        50
78.780        83
78.800        77
78.820        83
78.840        60
78.860        43
78.880        57
78.900        37
78.920        43
78.940        50
78.960        47
78.980        30
79.000        70
79.020        63
79.040        47
79.060        47
79.080        50
79.100        77
79.120        63
79.140        43
79.160        70
79.180        53
79.200        47
79.220        73
79.240        53
79.260        67
79.280        53
79.300        57
79.320        40
79.340        47
79.360        30
79.380        50
79.400        47
79.420        53
79.440        50
79.460        67
79.480        47
79.500        53
79.520        63
79.540        67
79.560        53
79.580        67
79.600        30
79.620        70
79.640        57
79.660        63
79.680        30
79.700        63
79.720        50
79.740        67
79.760        60
79.780        47
79.800        53
79.820        67
79.840        53
79.860        70
79.880        63
79.900        53
79.920        77
79.940        63
79.960        77
79.980        90
80.000        90
