20.000         0
20.020         0
20.040         0
20.060         0
20.080         0
20.100         0
20.120         0
20.140         0
20.160         0
20.180        10
20.200        57
20.220       203
20.240       197
20.260       277
20.280       240
20.300       217
20.320       200
20.340       250
20.360       237
20.380       197
20.400       247
20.420       190
20.440       193
20.460       227
20.480       170
20.500       200
20.520       213
20.540       167
20.560       253
20.580       207
20.600       220
20.620       203
20.640       203
20.660       197
20.680       187
20.700       197
20.720       267
20.740       230
20.760       203
20.780       220
20.800       210
20.820       227
20.840       243
20.860       220
20.880       230
20.900       210
20.920       247
20.940       220
20.960       253
20.980       227
21.000       203
21.020       217
21.040       203
21.060       227
21.080       233
21.100       287
21.120       207
21.140       210
21.160       220
21.180       283
21.200       243
21.220       260
21.240       227
21.260       307
21.280       280
21.300       243
21.320       223
21.340       270
21.360       230
21.380       217
21.400       303
21.420       243
21.440       220
21.460       263
21.480       277
21.500       237
21.520       277
21.540       233
21.560       180
21.580       267
21.600       233
21.620       267
21.640       297
21.660       233
21.680       280
21.700       223
21.720       203
21.740       277
21.760       230
21.780       290
21.800       223
21.820       260
21.840       290
21.860       237
21.880       247
21.900       257
21.920       297
21.940       247
21.960       277
21.980       287
22.000       313
22.020       247
22.040       263
22.060       267
22.080       273
22.100       307
22.120       327
22.140       280
22.160       310
22.180       270
22.200       277
22.220       263
22.240       300
22.260       263
22.280       247
22.300       263
22.320       253
22.340       247
22.360       280
22.380       287
22.400       300
22.420       277
22.440       257
22.460       317
22.480       307
22.500       270
22.520       263
22.540       300
22.560       207
22.580       257
22.600       253
22.620       253
22.640       323
22.660       287
22.680       310
22.700       303
22.720       277
22.740       280
22.760       307
22.780       297
22.800       303
22.820       330
22.840       317
22.860       300
22.880       337
22.900       383
22.920       417
22.940       363
22.960       347
22.980       380
23.000       393
23.020       340
23.040       377
23.060       476
23.080       520
23.100       703
23.120       816
23.140       676
23.160       623
23.180       443
23.200       397
23.220       400
23.240       413
23.260       450
23.280       443
23.300       413
23.320       357
23.340       410
23.360       466
23.380       370
23.400       417
23.420       456
23.440       433
23.460       440
23.480       360
23.500       377
23.520       393
23.540       430
23.560       377
23.580       403
23.600       420
23.620       367
23.640       440
23.660       310
23.680       403
23.700       420
23.720       280
23.740       453
23.760       373
23.780       383
23.800       343
23.820       420
23.840       410
23.860       293
23.880       390
23.900       373
23.920       370
23.940       373
23.960       456
23.980       426
24.000       417
24.020       373
24.040       400
24.060       423
24.080       443
24.100       423
24.120       423
24.140       367
24.160       380
24.180       456
24.200       456
24.220       387
24.240       440
24.260       443
24.280       403
24.300       453
24.320       347
24.340       383
24.360       390
24.380       440
24.400       410
24.420       397
24.440       436
24.460       377
24.480       363
24.500       433
24.520       347
24.540       420
24.560       353
24.580       446
24.600       443
24.620       397
24.640       390
24.660       433
24.680       373
24.700       440
24.720       410
24.740       483
24.760       486
24.780       533
24.800       470
24.820       556
24.840       490
24.860       566
24.880       490
24.900       493
24.920       456
24.940       480
24.960       526
24.980       500
25.000       560
25.020       510
25.040       456
25.060       433
25.080       513
25.100       480
25.120       486
25.140       480
25.160       506
25.180       520
25.200       460
25.220       490
25.240       533
25.260       490
25.280       526
25.300       556
25.320       590
25.340       500
25.360       583
25.380       556
25.400       626
25.420       766
25.440       946
25.460      1246
25.480      1633
25.500      2169
25.520      2259
25.540      2792
25.560      4701
25.580     13661
25.600     27952
25.620     35176
25.640     36602
25.660     30784
25.680     22628
25.700     19092
25.720     13774
25.740      6307
25.760      3115
25.780      2316
25.800      1946
25.820      1469
25.840      1056
25.860       856
25.880       653
25.900       623
25.920       556
25.940       546
25.960       533
25.980       436
26.000       510
26.020       520
26.040       513
26.060       490
26.080       476
26.100       440
26.120       413
26.140       407
26.160       496
26.180       496
26.200       423
26.220       460
26.240       360
26.260       433
26.280       417
26.300       506
26.320       483
26.340       506
26.360       533
26.380       493
26.400       523
26.420       393
26.440       496
26.460       397
26.480       397
26.500       443
26.520       390
26.540       430
26.560       450
26.580       426
26.600       397
26.620       466
26.640       410
26.660       390
26.680       470
26.700       390
26.720       456
26.740       450
26.760       417
26.780       450
26.800       440
26.820       453
26.840       456
26.860       426
26.880       367
26.900       403
26.920       470
26.940       353
26.960       460
26.980       300
27.000       383
27.020       420
27.040       397
27.060       390
27.080       470
27.100       426
27.120       460
27.140       410
27.160       403
27.180       430
27.200       417
27.220       393
27.240       370
27.260       436
27.280       417
27.300       390
27.320       417
27.340       373
27.360       373
27.380       340
27.400       460
27.420       400
27.440       363
27.460       350
27.480       390
27.500       367
27.520       397
27.540       370
27.560       397
27.580       353
27.600       353
27.620       483
27.640       403
27.660       400
27.680       397
27.700       380
27.720       343
27.740       430
27.760       357
27.780       350
27.800       330
27.820       370
27.840       347
27.860       513
27.880       360
27.900       367
27.920       420
27.940       360
27.960       360
27.980       436
28.000       426
28.020       357
28.040       403
28.060       407
28.080       393
28.100       310
28.120       353
28.140       367
28.160       353
28.180       430
28.200       350
28.220       323
28.240       323
28.260       350
28.280       397
28.300       333
28.320       317
28.340       347
28.360       353
28.380       357
28.400       370
28.420       380
28.440       426
28.460       337
28.480       367
28.500       367
28.520       417
28.540       360
28.560       367
28.580       357
28.600       380
28.620       370
28.640       327
28.660       253
28.680       417
28.700       417
28.720       297
28.740       347
28.760       363
28.780       360
28.800       297
28.820       360
28.840       330
28.860       393
28.880       343
28.900       330
28.920       330
28.940       373
28.960       317
28.980       300
29.000       353
29.020       293
29.040       347
29.060       323
29.080       360
29.100       373
29.120       363
29.140       380
29.160       327
29.180       330
29.200       367
29.220       373
29.240       293
29.260       317
29.280       330
29.300       343
29.320       313
29.340       357
29.360       290
29.380       293
29.400       340
29.420       323
29.440       310
29.460       277
29.480       360
29.500       250
29.520       330
29.540       330
29.560       360
29.580       270
29.600       317
29.620       293
29.640       327
29.660       257
29.680       290
29.700       310
29.720       307
29.740       300
29.760       303
29.780       290
29.800       303
29.820       270
29.840       287
29.860       333
29.880       277
29.900       267
29.920       323
29.940       253
29.960       320
29.980       260
30.000       270
30.020       283
30.040       257
30.060       340
30.080       347
30.100       260
30.120       207
30.140       313
30.160       310
30.180       263
30.200       200
30.220       333
30.240       290
30.260       320
30.280       293
30.300       327
30.320       313
30.340       300
30.360       310
30.380       330
30.400       243
30.420       350
30.440       257
30.460       260
30.480       293
30.500       300
30.520       263
30.540       310
30.560       277
30.580       270
30.600       290
30.620       233
30.640       333
30.660       203
30.680       230
30.700       223
30.720       270
30.740       293
30.760       293
30.780       270
30.800       263
30.820       247
30.840       273
30.860       207
30.880       300
30.900       213
30.920       233
30.940       273
30.960       267
30.980       277
31.000       227
31.020       240
31.040       260
31.060       223
31.080       250
31.100       267
31.120       223
31.140       227
31.160       227
31.180       270
31.200       233
31.220       230
31.240       247
31.260       273
31.280       227
31.300       160
31.320       217
31.340       217
31.360       193
31.380       250
31.400       210
31.420       207
31.440       203
31.460       233
31.480       177
31.500       220
31.520       193
31.540       243
31.560       180
31.580       220
31.600       193
31.620       180
31.640       183
31.660       227
31.680       170
31.700       240
31.720       220
31.740       237
31.760       200
31.780       213
31.800       173
31.820       207
31.840       163
31.860       217
31.880       227
31.900       190
31.920       203
31.940       203
31.960       223
31.980       207
32.000       207
32.020       227
32.040       213
32.060       240
32.080       207
32.100       207
32.120       170
32.140       190
32.160       230
32.180       217
32.200       193
32.220       193
32.240       217
32.260       157
32.280       210
32.300       193
32.320       203
32.340       193
32.360       200
32.380       207
32.400       190
32.420       163
32.440       197
32.460       187
32.480       187
32.500       203
32.520       170
32.540       213
32.560       163
32.580       197
32.600       187
32.620       210
32.640       217
32.660       200
32.680       220
32.700       163
32.720       210
32.740       187
32.760       177
32.780       163
32.800       193
32.820       207
32.840       147
32.860       203
32.880       193
32.900       177
32.920       157
32.940       197
32.960       157
32.980       150
33.000       160
33.020       167
33.040       170
33.060       147
33.080       187
33.100       173
33.120       163
33.140       167
33.160       153
33.180       140
33.200       137
33.220       130
33.240       187
33.260       220
33.280       180
33.300       190
33.320       170
33.340       173
33.360       150
33.380       157
33.400       160
33.420       140
33.440       183
33.460       183
33.480       167
33.500       160
33.520       140
33.540       170
33.560       183
33.580       127
33.600       167
33.620       123
33.640       140
33.660       140
33.680       153
33.700       173
33.720       133
33.740       180
33.760       160
33.780       173
33.800       163
33.820       133
33.840       157
33.860       157
33.880       123
33.900       197
33.920       140
33.940       137
33.960       167
33.980       140
34.000       133
34.020       140
34.040       140
34.060       133
34.080       137
34.100       130
34.120       150
34.140       140
34.160       173
34.180       110
34.200       137
34.220       150
34.240       133
34.260       163
34.280       163
34.300       113
34.320       130
34.340       127
34.360       107
34.380       137
34.400        97
34.420       117
34.440       140
34.460       137
34.480       110
34.500       110
34.520       140
34.540       140
34.560       163
34.580       147
34.600       153
34.620       123
34.640       127
34.660       127
34.680       137
34.700       117
34.720       147
34.740       110
34.760       167
34.780        97
34.800       133
34.820       133
34.840       120
34.860       113
34.880       130
34.900       130
34.920       147
34.940       143
34.960       153
34.980       127
35.000       117
35.020       127
35.040       110
35.060       157
35.080       120
35.100       123
35.120       110
35.140       133
35.160       147
35.180       120
35.200       110
35.220       160
35.240       127
35.260       120
35.280        87
35.300       120
35.320        87
35.340       120
35.360       117
35.380       140
35.400       150
35.420       107
35.440       133
35.460        80
35.480       183
35.500        87
35.520       137
35.540       127
35.560       147
35.580       127
35.600       137
35.620       127
35.640       140
35.660       130
35.680       117
35.700       140
35.720       110
35.740       127
35.760       127
35.780       140
35.800       163
35.820        80
35.840       107
35.860       123
35.880        97
35.900       100
35.920        97
35.940       123
35.960       110
35.980       113
36.000       117
36.020       120
36.040        97
36.060       133
36.080        63
36.100        90
36.120        93
36.140       140
36.160       107
36.180       123
36.200        77
36.220        90
36.240        90
36.260        87
36.280        53
36.300       153
36.320        87
36.340        67
36.360       103
36.380       103
36.400        87
36.420        93
36.440       127
36.460       103
36.480        90
36.500       110
36.520       107
36.540        77
36.560       107
36.580        73
36.600       143
36.620       107
36.640        80
36.660       103
36.680       127
36.700        77
36.720        77
36.740        93
36.760       117
36.780       123
36.800       100
36.820       127
36.840       100
36.860        83
36.880       120
36.900        77
36.920        87
36.940        83
36.960        93
36.980       113
37.000        97
37.020        90
37.040       117
37.060       103
37.080        73
37.100       120
37.120       130
37.140       130
37.160       120
37.180        83
37.200       107
37.220       113
37.240       127
37.260       107
37.280       123
37.300       107
37.320       100
37.340        73
37.360       113
37.380       103
37.400       133
37.420        83
37.440        90
37.460        93
37.480        53
37.500        93
37.520       107
37.540       140
37.560        77
37.580        97
37.600        93
37.620        77
37.640        87
37.660        90
37.680        87
37.700       127
37.720       137
37.740       120
37.760       143
37.780       123
37.800       153
37.820       183
37.840       180
37.860       187
37.880       250
37.900       357
37.920       430
37.940       513
37.960       630
37.980       780
38.000       866
38.020      1126
38.040      1203
38.060      1469
38.080      1429
38.100      1389
38.120      1359
38.140      1080
38.160       940
38.180       886
38.200       760
38.220       583
38.240       513
38.260       327
38.280       197
38.300       217
38.320       167
38.340       200
38.360       153
38.380       130
38.400       150
38.420       100
38.440        97
38.460       113
38.480       110
38.500       127
38.520        97
38.540       103
38.560        87
38.580        77
38.600        73
38.620        93
38.640        80
38.660        53
38.680       103
38.700        90
38.720        53
38.740        67
38.760        80
38.780        97
38.800        93
38.820        83
38.840        50
38.860       100
38.880        73
38.900        73
38.920        83
38.940        87
38.960        90
38.980        83
39.000        87
39.020        83
39.040       100
39.060        73
39.080        93
39.100        93
39.120        77
39.140        80
39.160        93
39.180        83
39.200        40
39.220        87
39.240        90
39.260        67
39.280        87
39.300        63
39.320        67
39.340        93
39.360        80
39.380        87
39.400        80
39.420        90
39.440        80
39.460        77
39.480        83
39.500        80
39.520        77
39.540        37
39.560        57
39.580        63
39.600        60
39.620        80
39.640        63
39.660        60
39.680        93
39.700        57
39.720        60
39.740       100
39.760        50
39.780        53
39.800        80
39.820        83
39.840        97
39.860        53
39.880        63
39.900        93
39.920        80
39.940       107
39.960        63
39.980        77
40.000        83
40.020        70
40.040        70
40.060        63
40.080        90
40.100        70
40.120       110
40.140        93
40.160        93
40.180        80
40.200        83
40.220        80
40.240        83
40.260        53
40.280        97
40.300        70
40.320        80
40.340        73
40.360        73
40.380        40
40.400       110
40.420        83
40.440        67
40.460        93
40.480        73
40.500        63
40.520        50
40.540        67
40.560        90
40.580        77
40.600       100
40.620        93
40.640       100
40.660        93
40.680       113
40.700       103
40.720        67
40.740        90
40.760       120
40.780       133
40.800       103
40.820       117
40.840       167
40.860       153
40.880       157
40.900       167
40.920       173
40.940       180
40.960       247
40.980       217
41.000       240
41.020       300
41.040       310
41.060       377
41.080       297
41.100       420
41.120       466
41.140       506
41.160       616
41.180       696
41.200       770
41.220       660
41.240       610
41.260       583
41.280       620
41.300       426
41.320       403
41.340       423
41.360       293
41.380       253
41.400       217
41.420       190
41.440       160
41.460       130
41.480       153
41.500       110
41.520        73
41.540        93
41.560        87
41.580        87
41.600        53
41.620        53
41.640        93
41.660        60
41.680        87
41.700        60
41.720        87
41.740       103
41.760        97
41.780        70
41.800        73
41.820        53
41.840       100
41.860        80
41.880        60
41.900        73
41.920       100
41.940        77
41.960        70
41.980        60
42.000        67
42.020        77
42.040        83
42.060        53
42.080       100
42.100        77
42.120        87
42.140        73
42.160        73
42.180        53
42.200        90
42.220        83
42.240        70
42.260        47
42.280        87
42.300        77
42.320        87
42.340        77
42.360        40
42.380        63
42.400        37
42.420        67
42.440        70
42.460        53
42.480        60
42.500        53
42.520       103
42.540        50
42.560        47
42.580        63
42.600        50
42.620        70
42.640        70
42.660        57
42.680        73
42.700        83
42.720        87
42.740        73
42.760        67
42.780        67
42.800        43
42.820        57
42.840        67
42.860        70
42.880        70
42.900        67
42.920        80
42.940        63
42.960        57
42.980        77
43.000        73
43.020        63
43.040        67
43.060        70
43.080        53
43.100        70
43.120        83
43.140        60
43.160        83
43.180        47
43.200        47
43.220        70
43.240        50
43.260        83
43.280        53
43.300        53
43.320        63
43.340        60
43.360        60
43.380        53
43.400        27
43.420        70
43.440        63
43.460        60
43.480        53
43.500        33
43.520        53
43.540        53
43.560        80
43.580        93
43.600        20
43.620        63
43.640        47
43.660       100
43.680        73
43.700        73
43.720        57
43.740        73
43.760        53
43.780        67
43.800        57
43.820        83
43.840        43
43.860        73
43.880        60
43.900        53
43.920        77
43.940        57
43.960        57
43.980        40
44.000        60
44.020        73
44.040        47
44.060        47
44.080        67
44.100        70
44.120        77
44.140        63
44.160        47
44.180        53
44.200        83
44.220        83
44.240        50
44.260        57
44.280        70
44.300        67
44.320        70
44.340        80
44.360        53
44.380        50
44.400        93
44.420        73
44.440        63
44.460        73
44.480        53
44.500        63
44.520        83
44.540        43
44.560        53
44.580        67
44.600        70
44.620        93
44.640        53
44.660        50
44.680        53
44.700        67
44.720        50
44.740        77
44.760        60
44.780        80
44.800        30
44.820        43
44.840        57
44.860        53
44.880        90
44.900        50
44.920        47
44.940        53
44.960        53
44.980        47
45.000        37
45.020        43
45.040        57
45.060        97
45.080        50
45.100        70
45.120        50
45.140        60
45.160        53
45.180        57
45.200        67
45.220        70
45.240        73
45.260        83
45.280        60
45.300        77
45.320        60
45.340        67
45.360        43
45.380        80
45.400        60
45.420        80
45.440        50
45.460        73
45.480        87
45.500        23
45.520        53
45.540        80
45.560        60
45.580        83
45.600        47
45.620        53
45.640        53
45.660        63
45.680        67
45.700        70
45.720        70
45.740        60
45.760        73
45.780        50
45.800        70
45.820        47
45.840        50
45.860        70
45.880        47
45.900        50
45.920        30
45.940        63
45.960        43
45.980        73
46.000        77
46.020        60
46.040        40
46.060        47
46.080        57
46.100        93
46.120        60
46.140        87
46.160        43
46.180        67
46.200        63
46.220        53
46.240        53
46.260        47
46.280        70
46.300        53
46.320        50
46.340        40
46.360        67
46.380        57
46.400        67
46.420        40
46.440        50
46.460        50
46.480        53
46.500        83
46.520        77
46.540        73
46.560        77
46.580        57
46.600        47
46.620        60
46.640        77
46.660        70
46.680        63
46.700        70
46.720        63
46.740        60
46.760        77
46.780       100
46.800       110
46.820       133
46.840        70
46.860       107
46.880        80
46.900       100
46.920       117
46.940        93
46.960       123
46.980        87
47.000        80
47.020        87
47.040       133
47.060       143
47.080       127
47.100       143
47.120       170
47.140       250
47.160       456
47.180       753
47.200       890
47.220       993
47.240       890
47.260       530
47.280       330
47.300       180
47.320       150
47.340       143
47.360       147
47.380       127
47.400       137
47.420       107
47.440       107
47.460        87
47.480        57
47.500       110
47.520        67
47.540        80
47.560        50
47.580        93
47.600        73
47.620        80
47.640        70
47.660        97
47.680        77
47.700        77
47.720        73
47.740        93
47.760        73
47.780        93
47.800        77
47.820        77
47.840        90
47.860        50
47.880        67
47.900        97
47.920        90
47.940        57
47.960        70
47.980        73
48.000        60
48.020        67
48.040        60
48.060        67
48.080        47
48.100        70
48.120        73
48.140        40
48.160        87
48.180        43
48.200        80
48.220        97
48.240        83
48.260        77
48.280        73
48.300        73
48.320        53
48.340        90
48.360        47
48.380        57
48.400        70
48.420        57
48.440        77
48.460        53
48.480        60
48.500        70
48.520        57
48.540       110
48.560        70
48.580        90
48.600        80
48.620        70
48.640        63
48.660        83
48.680        63
48.700        40
48.720        37
48.740        37
48.760        83
48.780        60
48.800        67
48.820        73
48.840        63
48.860        73
48.880        63
48.900        83
48.920        83
48.940        57
48.960        43
48.980        70
49.000        57
49.020        63
49.040        73
49.060        83
49.080        67
49.100        47
49.120        77
49.140        60
49.160        53
49.180        87
49.200        67
49.220        90
49.240        70
49.260        40
49.280        53
49.300        57
49.320        53
49.340        70
49.360        73
49.380       103
49.400        83
49.420        60
49.440        63
49.460        47
49.480        83
49.500        70
49.520        53
49.540        67
49.560        53
49.580        57
49.600        80
49.620        43
49.640        40
49.660        80
49.680        60
49.700        50
49.720        67
49.740        70
49.760        37
49.780        67
49.800        57
49.820        57
49.840        93
49.860        60
49.880        70
49.900        33
49.920        47
49.940        40
49.960        90
49.980        80
50.000        67
50.020        77
50.040        53
50.060        53
50.080        57
50.100        63
50.120        53
50.140        47
50.160        53
50.180        33
50.200        37
50.220        37
50.240        53
50.260        60
50.280        57
50.300        73
50.320        23
50.340        40
50.360        73
50.380        80
50.400        63
50.420        77
50.440        37
50.460        53
50.480        40
50.500        40
50.520        67
50.540        50
50.560        83
50.580        57
50.600        63
50.620        83
50.640        87
50.660        93
50.680       123
50.700       173
50.720       203
50.740       170
50.760       293
50.780       313
50.800       227
50.820       213
50.840       300
50.860       267
50.880       263
50.900       263
50.920       250
50.940       273
50.960       257
50.980       260
51.000       293
51.020       270
51.040       267
51.060       250
51.080       263
51.100       270
51.120       253
51.140       273
51.160       230
51.180       277
51.200       243
51.220       243
51.240       247
51.260       260
51.280       260
51.300       237
51.320       290
51.340       267
51.360       247
51.380       290
51.400       250
51.420       263
51.440       237
51.460       217
51.480       303
51.500       270
51.520       230
51.540       300
51.560       237
51.580       317
51.600       250
51.620       290
51.640       237
51.660       243
51.680       293
51.700       270
51.720       263
51.740       327
51.760       317
51.780       320
51.800       307
51.820       257
51.840       293
51.860       267
51.880       293
51.900       287
51.920       283
51.940       333
51.960       280
51.980       280
52.000       337
52.020       347
52.040       320
52.060       397
52.080       347
52.100       380
52.120       393
52.140       393
52.160       360
52.180       490
52.200       503
52.220       623
52.240       576
52.260       640
52.280       793
52.300       876
52.320      1140
52.340      1459
52.360      1713
52.380      2013
52.400      2309
52.420      2709
52.440      3455
52.460      4472
52.480      5638
52.500      6697
52.520      9626
52.540     18836
52.560     41927
52.580     75783
52.600     96888
52.620     96475
52.640     74360
52.660     41603
52.680     23754
52.700     28315
52.720     42976
52.740     54325
52.760     54095
52.780     39757
52.800     21681
52.820     10163
52.840      5481
52.860      4202
52.880      3599
52.900      2702
52.920      1999
52.940      1573
52.960      1033
52.980       943
53.000       843
53.020       703
53.040       733
53.060       600
53.080       656
53.100       566
53.120       446
53.140       490
53.160       430
53.180       397
53.200       410
53.220       387
53.240       357
53.260       353
53.280       357
53.300       273
53.320       360
53.340       417
53.360       307
53.380       317
53.400       307
53.420       330
53.440       317
53.460       263
53.480       327
53.500       290
53.520       223
53.540       233
53.560       243
53.580       247
53.600       283
53.620       327
53.640       237
53.660       230
53.680       267
53.700       247
53.720       317
53.740       243
53.760       237
53.780       203
53.800       257
53.820       247
53.840       273
53.860       177
53.880       227
53.900       230
53.920       223
53.940       153
53.960       187
53.980       183
54.000       183
54.020       193
54.040       220
54.060       210
54.080       220
54.100       197
54.120       147
54.140       220
54.160       150
54.180       183
54.200       190
54.220       157
54.240       200
54.260       187
54.280       217
54.300       240
54.320       197
54.340       160
54.360       170
54.380       187
54.400       170
54.420       130
54.440       187
54.460       180
54.480       203
54.500       157
54.520       203
54.540       167
54.560       180
54.580       183
54.600       137
54.620       210
54.640       173
54.660       180
54.680       250
54.700       233
54.720       193
54.740       237
54.760       217
54.780       223
54.800       300
54.820       257
54.840       273
54.860       300
54.880       230
54.900       340
54.920       397
54.940       280
54.960       290
54.980       297
55.000       273
55.020       337
55.040       283
55.060       303
55.080       243
55.100       213
55.120       213
55.140       250
55.160       190
55.180       237
55.200       173
55.220       177
55.240       170
55.260       143
55.280       180
55.300       170
55.320       187
55.340       163
55.360       120
55.380       157
55.400       197
55.420       193
55.440       173
55.460        80
55.480       173
55.500       150
55.520       133
55.540       123
55.560       163
55.580       133
55.600       100
55.620       157
55.640       123
55.660       120
55.680       157
55.700       127
55.720       113
55.740       163
55.760       153
55.780       117
55.800       117
55.820       147
55.840       133
55.860       130
55.880       110
55.900       110
55.920       117
55.940       110
55.960       157
55.980       113
56.000       110
56.020       120
56.040        93
56.060       130
56.080       130
56.100       140
56.120       127
56.140       123
56.160       127
56.180       143
56.200       130
56.220        93
56.240       133
56.260       187
56.280       137
56.300       143
56.320       177
56.340       120
56.360       157
56.380       117
56.400       130
56.420       137
56.440       107
56.460       143
56.480       130
56.500       133
56.520        83
56.540       117
56.560       110
56.580       120
56.600       137
56.620       147
56.640       100
56.660       103
56.680       143
56.700       103
56.720       140
56.740       113
56.760       100
56.780       117
56.800       117
56.820       140
56.840        90
56.860       127
56.880       113
56.900       113
56.920       157
56.940       113
56.960       123
56.980       120
57.000       113
57.020        97
57.040       100
57.060        97
57.080       117
57.100       107
57.120       140
57.140       113
57.160        83
57.180       107
57.200        97
57.220       100
57.240       107
57.260       117
57.280       127
57.300       130
57.320       100
57.340       113
57.360       107
57.380       117
57.400        87
57.420        97
57.440       123
57.460        87
57.480       123
57.500        87
57.520       127
57.540       117
57.560        87
57.580       107
57.600        87
57.620        93
57.640       113
57.660        87
57.680        93
57.700        70
57.720        87
57.740       130
57.760        80
57.780        80
57.800       113
57.820        87
57.840        90
57.860        80
57.880        97
57.900        77
57.920        90
57.940       140
57.960        80
57.980        87
58.000        83
58.020        93
58.040       133
58.060        77
58.080       100
58.100        90
58.120       113
58.140       110
58.160       107
58.180       120
58.200        63
58.220        93
58.240       103
58.260        87
58.280        93
58.300        70
58.320       107
58.340        90
58.360       103
58.380       110
58.400        90
58.420       120
58.440       117
58.460       103
58.480       103
58.500       103
58.520        90
58.540       113
58.560       123
58.580        93
58.600        90
58.620        93
58.640        93
58.660        97
58.680       127
58.700       140
58.720        80
58.740        70
58.760       103
58.780        73
58.800        87
58.820        97
58.840       110
58.860        67
58.880        93
58.900       107
58.920        90
58.940        70
58.960        67
58.980        73
59.000        97
59.020        93
59.040       110
59.060        97
59.080        90
59.100        93
59.120        37
59.140        97
59.160       107
59.180       123
59.200        90
59.220        90
59.240        97
59.260        90
59.280        90
59.300        67
59.320       177
59.340        87
59.360        87
59.380        73
59.400        87
59.420        57
59.440        80
59.460        80
59.480        87
59.500       103
59.520        67
59.540        90
59.560        80
59.580        93
59.600       163
59.620        63
59.640        73
59.660       107
59.680        83
59.700        87
59.720        83
59.740        70
59.760        90
59.780        87
59.800        73
59.820        73
59.840        70
59.860       103
59.880        87
59.900        83
59.920        93
59.940        87
59.960        70
59.980        63
60.000        97
