20.000      1846
20.020      1793
20.040      1779
20.060      1799
20.080      1639
20.100      1759
20.120      1749
20.140      1836
20.160      1699
20.180      1689
20.200      1613
20.220      1669
20.240      1719
20.260      1819
20.280      1763
20.300      1693
20.320      1653
20.340      1749
20.360      1783
20.380      1589
20.400      1499
20.420      1653
20.440      1816
20.460      1709
20.480      1586
20.500      1796
20.520      1576
20.540      1463
20.560      1556
20.580      1513
20.600      1576
20.620      1669
20.640      1626
20.660      1466
20.680      1576
20.700      1619
20.720      1446
20.740      1543
20.760      1583
20.780      1606
20.800      1506
20.820      1613
20.840      1673
20.860      1516
20.880      1469
20.900      1479
20.920      1569
20.940      1499
20.960      1559
20.980      1526
21.000      1393
21.020      1326
21.040      1393
21.060      1399
21.080      1293
21.100      1503
21.120      1476
21.140      1386
21.160      1636
21.180      1539
21.200      1469
21.220      1513
21.240      1516
21.260      1376
21.280      1403
21.300      1346
21.320      1393
21.340      1389
21.360      1383
21.380      1399
21.400      1443
21.420      1343
21.440      1363
21.460      1353
21.480      1409
21.500      1473
21.520      1406
21.540      1220
21.560      1389
21.580      1556
21.600      1346
21.620      1346
21.640      1279
21.660      1326
21.680      1309
21.700      1230
21.720      1256
21.740      1206
21.760      1346
21.780      1256
21.800      1313
21.820      1326
21.840      1210
21.860      1289
21.880      1273
21.900      1066
21.920      1223
21.940      1183
21.960      1160
21.980      1279
22.000      1180
22.020      1126
22.040      1223
22.060      1110
22.080      1213
22.100      1206
22.120      1123
22.140      1173
22.160      1163
22.180      1220
22.200      1163
22.220      1150
22.240      1116
22.260      1133
22.280      1176
22.300      1160
22.320      1180
22.340      1123
22.360      1120
22.380      1050
22.400      1116
22.420      1156
22.440      1010
22.460      1080
22.480       983
22.500      1013
22.520      1166
22.540      1023
22.560      1036
22.580      1173
22.600      1013
22.620      1093
22.640      1026
22.660      1093
22.680       993
22.700      1166
22.720      1106
22.740       986
22.760      1083
22.780      1043
22.800      1083
22.820      1106
22.840       996
22.860      1020
22.880      1063
22.900       966
22.920      1063
22.940      1030
22.960      1196
22.980      1043
23.000      1046
23.020      1140
23.040       953
23.060      1146
23.080      1040
23.100      1043
23.120      1163
23.140      1130
23.160      1113
23.180      1066
23.200      1000
23.220      1016
23.240      1043
23.260      1063
23.280      1030
23.300       970
23.320      1036
23.340      1056
23.360       950
23.380      1073
23.400      1036
23.420      1003
23.440      1030
23.460      1086
23.480      1080
23.500      1123
23.520      1056
23.540      1130
23.560      1056
23.580      1046
23.600      1056
23.620      1050
23.640      1116
23.660      1070
23.680       883
23.700      1070
23.720      1146
23.740      1196
23.760      1023
23.780      1093
23.800      1186
23.820       966
23.840       946
23.860      1080
23.880      1013
23.900       980
23.920      1050
23.940       983
23.960      1153
23.980      1046
24.000      1086
24.020       983
24.040      1010
24.060       923
24.080      1043
24.100      1046
24.120       920
24.140       976
24.160       896
24.180       956
24.200       986
24.220      1066
24.240       930
24.260      1023
24.280       933
24.300      1063
24.320       906
24.340       963
24.360       963
24.380       983
24.400       850
24.420      1016
24.440       936
24.460       906
24.480       926
24.500       886
24.520       950
24.540       950
24.560       996
24.580      1000
24.600       990
24.620       913
24.640       926
24.660       923
24.680       980
24.700       980
24.720       956
24.740       903
24.760       946
24.780       903
24.800       973
24.820      1013
24.840       846
24.860       846
24.880       826
24.900       873
24.920       990
24.940       936
24.960       846
24.980       873
25.000       873
25.020       896
25.040       856
25.060       860
25.080       833
25.100       836
25.120       870
25.140       746
25.160       936
25.180       766
25.200       816
25.220       920
25.240       860
25.260       823
25.280       690
25.300       866
25.320       823
25.340       746
25.360       780
25.380       750
25.400       853
25.420       750
25.440       820
25.460       856
25.480       726
25.500       726
25.520       770
25.540       640
25.560       763
25.580       783
25.600       700
25.620       730
25.640       743
25.660       676
25.680       640
25.700       566
25.720       550
25.740       583
25.760       470
25.780       533
25.800       476
25.820       550
25.840       543
25.860       523
25.880       590
25.900       440
25.920       506
25.940       520
25.960       486
25.980       480
26.000       510
26.020       476
26.040       460
26.060       373
26.080       480
26.100       533
26.120       493
26.140       530
26.160       513
26.180       493
26.200       483
26.220       426
26.240       546
26.260       417
26.280       446
26.300       490
26.320       570
26.340       476
26.360       407
26.380       407
26.400       433
26.420       446
26.440       440
26.460       426
26.480       433
26.500       357
26.520       417
26.540       393
26.560       433
26.580       433
26.600       500
26.620       423
26.640       456
26.660       377
26.680       460
26.700       466
26.720       450
26.740       400
26.760       426
26.780       473
26.800       460
26.820       373
26.840       496
26.860       496
26.880       433
26.900       426
26.920       367
26.940       373
26.960       397
26.980       390
27.000       413
27.020       357
27.040       397
27.060       463
27.080       390
27.100       400
27.120       430
27.140       397
27.160       343
27.180       380
27.200       370
27.220       407
27.240       423
27.260       367
27.280       377
27.300       426
27.320       350
27.340       370
27.360       340
27.380       350
27.400       377
27.420       410
27.440       377
27.460       323
27.480       310
27.500       450
27.520       397
27.540       333
27.560       347
27.580       343
27.600       347
27.620       353
27.640       353
27.660       377
27.680       347
27.700       327
27.720       390
27.740       443
27.760       380
27.780       383
27.800       313
27.820       343
27.840       317
27.860       390
27.880       417
27.900       347
27.920       337
27.940       397
27.960       360
27.980       357
28.000       357
28.020       377
28.040       333
28.060       333
28.080       446
28.100       417
28.120       313
28.140       343
28.160       297
28.180       327
28.200       333
28.220       313
28.240       323
28.260       377
28.280       270
28.300       357
28.320       400
28.340       313
28.360       290
28.380       303
28.400       333
28.420       317
28.440       330
28.460       273
28.480       320
28.500       353
28.520       327
28.540       390
28.560       310
28.580       347
28.600       337
28.620       290
28.640       387
28.660       350
28.680       370
28.700       360
28.720       357
28.740       310
28.760       333
28.780       360
28.800       313
28.820       307
28.840       323
28.860       347
28.880       357
28.900       290
28.920       293
28.940       343
28.960       347
28.980       287
29.000       333
29.020       343
29.040       320
29.060       350
29.080       343
29.100       283
29.120       283
29.140       367
29.160       300
29.180       303
29.200       337
29.220       373
29.240       353
29.260       333
29.280       307
29.300       333
29.320       280
29.340       330
29.360       290
29.380       340
29.400       287
29.420       337
29.440       363
29.460       327
29.480       313
29.500       377
29.520       383
29.540       410
29.560       323
29.580       403
29.600       340
29.620       330
29.640       307
29.660       347
29.680       283
29.700       247
29.720       297
29.740       277
29.760       250
29.780       317
29.800       317
29.820       320
29.840       333
29.860       277
29.880       353
29.900       263
29.920       250
29.940       347
29.960       297
29.980       303
30.000       283
30.020       347
30.040       313
30.060       310
30.080       267
30.100       347
30.120       263
30.140       267
30.160       267
30.180       337
30.200       320
30.220       327
30.240       317
30.260       323
30.280       290
30.300       317
30.320       300
30.340       317
30.360       303
30.380       333
30.400       347
30.420       313
30.440       270
30.460       333
30.480       300
30.500       347
30.520       290
30.540       360
30.560       313
30.580       307
30.600       363
30.620       337
30.640       333
30.660       293
30.680       390
30.700       310
30.720       370
30.740       410
30.760       357
30.780       433
30.800       417
30.820       390
30.840       420
30.860       313
30.880       393
30.900       383
30.920       343
30.940       277
30.960       343
30.980       367
31.000       283
31.020       353
31.040       380
31.060       403
31.080       347
31.100       307
31.120       333
31.140       347
31.160       413
31.180       393
31.200       400
31.220       380
31.240       393
31.260       350
31.280       393
31.300       486
31.320       450
31.340       390
31.360       443
31.380       347
31.400       373
31.420       340
31.440       383
31.460       417
31.480       387
31.500       393
31.520       353
31.540       443
31.560       397
31.580       403
31.600       470
31.620       450
31.640       456
31.660       397
31.680       380
31.700       377
31.720       423
31.740       510
31.760       496
31.780       543
31.800       606
31.820       690
31.840       610
31.860       660
31.880       606
31.900       753
31.920       706
31.940       703
31.960       733
31.980       756
32.000       806
32.020      1013
32.040      1136
32.060      2269
32.080      4142
32.100      5601
32.120      5931
32.140      4951
32.160      2649
32.180      1553
32.200       986
32.220       793
32.240       766
32.260       703
32.280       646
32.300       736
32.320       576
32.340       590
32.360       636
32.380       596
32.400       583
32.420       540
32.440       626
32.460       596
32.480       553
32.500       536
32.520       483
32.540       583
32.560       586
32.580       646
32.600       640
32.620       550
32.640       646
32.660       446
32.680       570
32.700       526
32.720       616
32.740       573
32.760       573
32.780       586
32.800       596
32.820       516
32.840       540
32.860       520
32.880       543
32.900       553
32.920       536
32.940       543
32.960       493
32.980       476
33.000       426
33.020       470
33.040       570
33.060       543
33.080       483
33.100       496
33.120       530
33.140       510
33.160       543
33.180       563
33.200       533
33.220       446
33.240       596
33.260       566
33.280       650
33.300       550
33.320       526
33.340       640
33.360       510
33.380       563
33.400       446
33.420       616
33.440       530
33.460       550
33.480       553
33.500       543
33.520       463
33.540       573
33.560       510
33.580       640
33.600       556
33.620       633
33.640       550
33.660       570
33.680       490
33.700       476
33.720       556
33.740       533
33.760       540
33.780       553
33.800       546
33.820       540
33.840       583
33.860       560
33.880       623
33.900       606
33.920       533
33.940       553
33.960       496
33.980       570
34.000       570
34.020       486
34.040       590
34.060       683
34.080       613
34.100       623
34.120       683
34.140       656
34.160       633
34.180       566
34.200       570
34.220       546
34.240       663
34.260       630
34.280       696
34.300       623
34.320       690
34.340       690
34.360       863
34.380      1183
34.400      1573
34.420      1883
34.440      1983
34.460      2006
34.480      2029
34.500      1916
34.520      2029
34.540      1936
34.560      1979
34.580      1886
34.600      1986
34.620      2036
34.640      2003
34.660      1836
34.680      1996
34.700      1989
34.720      1869
34.740      1966
34.760      2079
34.780      2003
34.800      2083
34.820      1943
34.840      1953
34.860      1949
34.880      2073
34.900      1949
34.920      2049
34.940      2016
34.960      1853
34.980      2166
35.000      2099
35.020      2206
35.040      2056
35.060      2262
35.080      2083
35.100      2196
35.120      2239
35.140      2232
35.160      2409
35.180      2349
35.200      2486
35.220      2492
35.240      2546
35.260      2676
35.280      3005
35.300      3342
35.320      3419
35.340      4198
35.360      5108
35.380      6911
35.400      9676
35.420     13301
35.440     17770
35.460     22328
35.480     25403
35.500     28792
35.520     31587
35.540     37242
35.560     50190
35.580    100803
35.600    221098
35.620    290071
35.640    299757
35.660    289971
35.680    237845
35.700    211549
35.720    226036
35.740    222861
35.760    179751
35.780     94489
35.800     37285
35.820     18593
35.840     12495
35.860      9126
35.880      7427
35.900      5924
35.920      5101
35.940      4528
35.960      4042
35.980      3722
36.000      3485
36.020      3315
36.040      2896
36.060      2866
36.080      2742
36.100      2669
36.120      2642
36.140      2279
36.160      2359
36.180      2442
36.200      2359
36.220      2186
36.240      2129
36.260      1806
36.280      1976
36.300      1839
36.320      1943
36.340      1933
36.360      1973
36.380      1813
36.400      1633
36.420      1616
36.440      1619
36.460      1769
36.480      1589
36.500      1633
36.520      1496
36.540      1596
36.560      1633
36.580      1549
36.600      1496
36.620      1566
36.640      1603
36.660      1503
36.680      1533
36.700      1483
36.720      1369
36.740      1446
36.760      1323
36.780      1486
36.800      1399
36.820      1443
36.840      1376
36.860      1376
36.880      1316
36.900      1386
36.920      1409
36.940      1363
36.960      1323
36.980      1366
37.000      1226
37.020      1366
37.040      1389
37.060      1263
37.080      1336
37.100      1190
37.120      1180
37.140      1359
37.160      1236
37.180      1250
37.200      1259
37.220      1220
37.240      1259
37.260      1176
37.280      1283
37.300      1299
37.320      1236
37.340      1166
37.360      1150
37.380      1190
37.400      1130
37.420      1289
37.440      1140
37.460      1233
37.480      1256
37.500      1206
37.520      1246
37.540      1296
37.560      1233
37.580      1256
37.600      1346
37.620      1329
37.640      1363
37.660      1353
37.680      1539
37.700      1609
37.720      1739
37.740      2046
37.760      2252
37.780      2476
37.800      2919
37.820      3609
37.840      4238
37.860      4898
37.880      5804
37.900      6711
37.920      6974
37.940      6807
37.960      5944
37.980      5228
38.000      4402
38.020      4058
38.040      3715
38.060      2776
38.080      2276
38.100      1679
38.120      1506
38.140      1259
38.160      1190
38.180      1113
38.200      1143
38.220      1100
38.240      1036
38.260      1053
38.280      1026
38.300      1130
38.320      1140
38.340      1023
38.360       990
38.380       983
38.400       930
38.420      1060
38.440       970
38.460       970
38.480      1036
38.500       966
38.520       866
38.540       900
38.560       943
38.580       916
38.600       883
38.620       893
38.640       920
38.660       920
38.680       880
38.700       973
38.720       950
38.740       950
38.760       840
38.780      1003
38.800       876
38.820       790
38.840       860
38.860       863
38.880       860
38.900       913
38.920       883
38.940       943
38.960       920
38.980       960
39.000       930
39.020       883
39.040       900
39.060       790
39.080       920
39.100       940
39.120       806
39.140       860
39.160       826
39.180       790
39.200       813
39.220       836
39.240       863
39.260       836
39.280       816
39.300       826
39.320       913
39.340       873
39.360       730
39.380       973
39.400       840
39.420       876
39.440       816
39.460       753
39.480       800
39.500       853
39.520       776
39.540       823
39.560       836
39.580       693
39.600       810
39.620       703
39.640       796
39.660       770
39.680       713
39.700       756
39.720       663
39.740       780
39.760       743
39.780       810
39.800       800
39.820       733
39.840       800
39.860       730
39.880       740
39.900       700
39.920       753
39.940       703
39.960       763
39.980       723
40.000       696
40.020       656
40.040       676
40.060       786
40.080       703
40.100       763
40.120       660
40.140       736
40.160       756
40.180       653
40.200       693
40.220       710
40.240       686
40.260       756
40.280       736
40.300       713
40.320       716
40.340       733
40.360       680
40.380       633
40.400       730
40.420       650
40.440       616
40.460       756
40.480       670
40.500       653
40.520       633
40.540       723
40.560       663
40.580       676
40.600       696
40.620       640
40.640       756
40.660       773
40.680       750
40.700       710
40.720       580
40.740       780
40.760       690
40.780       630
40.800       680
40.820       636
40.840       623
40.860       706
40.880       670
40.900       626
40.920       636
40.940       710
40.960       693
40.980       743
41.000       633
41.020       623
41.040       636
41.060       680
41.080       686
41.100       700
41.120       646
41.140       666
41.160       580
41.180       673
41.200       703
41.220       646
41.240       630
41.260       630
41.280       546
41.300       636
41.320       650
41.340       633
41.360       583
41.380       583
41.400       596
41.420       553
41.440       560
41.460       600
41.480       523
41.500       590
41.520       646
41.540       596
41.560       556
41.580       636
41.600       540
41.620       583
41.640       686
41.660       640
41.680       636
41.700       570
41.720       476
41.740       560
41.760       580
41.780       583
41.800       543
41.820       670
41.840       570
41.860       663
41.880       613
41.900       466
41.920       576
41.940       676
41.960       586
41.980       630
42.000       533
42.020       556
42.040       540
42.060       600
42.080       613
42.100       463
42.120       510
42.140       556
42.160       540
42.180       626
42.200       546
42.220       600
42.240       613
42.260       553
42.280       646
42.300       586
42.320       496
42.340       480
42.360       586
42.380       606
42.400       630
42.420       570
42.440       563
42.460       603
42.480       606
42.500       533
42.520       526
42.540       500
42.560       613
42.580       536
42.600       470
42.620       580
42.640       606
42.660       563
42.680       526
42.700       526
42.720       570
42.740       516
42.760       600
42.780       583
42.800       553
42.820       573
42.840       480
42.860       516
42.880       466
42.900       490
42.920       583
42.940       443
42.960       496
42.980       490
43.000       603
43.020       566
43.040       476
43.060       530
43.080       566
43.100       516
43.120       520
43.140       573
43.160       476
43.180       466
43.200       486
43.220       483
43.240       570
43.260       500
43.280       490
43.300       513
43.320       430
43.340       453
43.360       506
43.380       483
43.400       403
43.420       440
43.440       526
43.460       450
43.480       440
43.500       450
43.520       436
43.540       533
43.560       456
43.580       453
43.600       403
43.620       446
43.640       450
43.660       503
43.680       383
43.700       383
43.720       363
43.740       463
43.760       470
43.780       450
43.800       433
43.820       493
43.840       443
43.860       463
43.880       430
43.900       440
43.920       456
43.940       383
43.960       483
43.980       483
44.000       473
44.020       407
44.040       473
44.060       450
44.080       493
44.100       443
44.120       403
44.140       480
44.160       436
44.180       476
44.200       390
44.220       413
44.240       433
44.260       413
44.280       420
44.300       510
44.320       370
44.340       393
44.360       393
44.380       453
44.400       380
44.420       397
44.440       466
44.460       466
44.480       420
44.500       397
44.520       446
44.540       516
44.560       466
44.580       436
44.600       390
44.620       423
44.640       410
44.660       430
44.680       456
44.700       387
44.720       370
44.740       446
44.760       430
44.780       410
44.800       390
44.820       443
44.840       393
44.860       436
44.880       446
44.900       377
44.920       377
44.940       307
44.960       443
44.980       333
45.000       423
45.020       380
45.040       367
45.060       370
45.080       440
45.100       436
45.120       397
45.140       400
45.160       343
45.180       403
45.200       360
45.220       363
45.240       417
45.260       410
45.280       390
45.300       360
45.320       347
45.340       370
45.360       347
45.380       343
45.400       340
45.420       397
45.440       393
45.460       383
45.480       440
45.500       383
45.520       417
45.540       347
45.560       337
45.580       400
45.600       423
45.620       397
45.640       307
45.660       436
45.680       390
45.700       383
45.720       347
45.740       390
45.760       353
45.780       417
45.800       350
45.820       370
45.840       407
45.860       333
45.880       407
45.900       353
45.920       377
45.940       303
45.960       407
45.980       347
46.000       353
46.020       350
46.040       320
46.060       350
46.080       417
46.100       407
46.120       367
46.140       387
46.160       426
46.180       353
46.200       293
46.220       353
46.240       377
46.260       413
46.280       327
46.300       343
46.320       343
46.340       300
46.360       410
46.380       370
46.400       410
46.420       390
46.440       357
46.460       393
46.480       323
46.500       323
46.520       337
46.540       347
46.560       377
46.580       357
46.600       333
46.620       303
46.640       430
46.660       393
46.680       350
46.700       370
46.720       310
46.740       330
46.760       360
46.780       350
46.800       363
46.820       400
46.840       313
46.860       270
46.880       323
46.900       373
46.920       343
46.940       393
46.960       347
46.980       333
47.000       380
47.020       327
47.040       323
47.060       327
47.080       333
47.100       383
47.120       330
47.140       303
47.160       340
47.180       293
47.200       337
47.220       347
47.240       340
47.260       360
47.280       307
47.300       333
47.320       403
47.340       340
47.360       333
47.380       337
47.400       353
47.420       360
47.440       350
47.460       363
47.480       347
47.500       353
47.520       337
47.540       283
47.560       327
47.580       317
47.600       337
47.620       287
47.640       347
47.660       350
47.680       293
47.700       333
47.720       290
47.740       320
47.760       350
47.780       333
47.800       373
47.820       317
47.840       313
47.860       303
47.880       337
47.900       277
47.920       260
47.940       300
47.960       300
47.980       283
48.000       307
48.020       313
48.040       360
48.060       430
48.080       347
48.100       340
48.120       327
48.140       393
48.160       403
48.180       377
48.200       307
48.220       390
48.240       390
48.260       323
48.280       353
48.300       283
48.320       393
48.340       373
48.360       283
48.380       330
48.400       340
48.420       303
48.440       303
48.460       263
48.480       370
48.500       340
48.520       370
48.540       317
48.560       317
48.580       363
48.600       310
48.620       333
48.640       280
48.660       233
48.680       327
48.700       300
48.720       333
48.740       357
48.760       283
48.780       253
48.800       293
48.820       257
48.840       323
48.860       287
48.880       290
48.900       293
48.920       323
48.940       273
48.960       360
48.980       343
49.000       253
49.020       313
49.040       290
49.060       377
49.080       280
49.100       317
49.120       297
49.140       310
49.160       297
49.180       283
49.200       327
49.220       307
49.240       330
49.260       283
49.280       317
49.300       283
49.320       383
49.340       347
49.360       300
49.380       260
49.400       263
49.420       220
49.440       243
49.460       330
49.480       327
49.500       240
49.520       267
49.540       330
49.560       320
49.580       277
49.600       250
49.620       260
49.640       410
49.660       263
49.680       287
49.700       300
49.720       277
49.740       337
49.760       320
49.780       313
49.800       343
49.820       317
49.840       313
49.860       303
49.880       263
49.900       280
49.920       260
49.940       303
49.960       247
49.980       197
50.000       247
50.020       277
50.040       220
50.060       327
50.080       283
50.100       277
50.120       330
50.140       303
50.160       270
50.180       300
50.200       260
50.220       253
50.240       280
50.260       327
50.280       303
50.300       267
50.320       253
50.340       233
50.360       303
50.380       253
50.400       343
50.420       323
50.440       300
50.460       320
50.480       293
50.500       330
50.520       250
50.540       290
50.560       327
50.580       313
50.600       290
50.620       313
50.640       307
50.660       380
50.680       317
50.700       297
50.720       313
50.740       247
50.760       267
50.780       273
50.800       267
50.820       277
50.840       257
50.860       323
50.880       320
50.900       243
50.920       280
50.940       267
50.960       260
50.980       217
51.000       240
51.020       270
51.040       263
51.060       253
51.080       273
51.100       290
51.120       247
51.140       300
51.160       237
51.180       263
51.200       287
51.220       293
51.240       250
51.260       223
51.280       270
51.300       240
51.320       337
51.340       227
51.360       303
51.380       223
51.400       270
51.420       277
51.440       280
51.460       287
51.480       287
51.500       220
51.520       253
51.540       327
51.560       237
51.580       267
51.600       273
51.620       310
51.640       310
51.660       247
51.680       310
51.700       260
51.720       273
51.740       297
51.760       267
51.780       263
51.800       233
51.820       280
51.840       240
51.860       310
51.880       163
51.900       220
51.920       283
51.940       293
51.960       283
51.980       290
52.000       313
52.020       270
52.040       267
52.060       280
52.080       250
52.100       297
52.120       240
52.140       223
52.160       273
52.180       243
52.200       247
52.220       257
52.240       293
52.260       273
52.280       283
52.300       203
52.320       190
52.340       270
52.360       203
52.380       297
52.400       237
52.420       253
52.440       247
52.460       270
52.480       247
52.500       247
52.520       280
52.540       260
52.560       290
52.580       297
52.600       270
52.620       250
52.640       313
52.660       307
52.680       260
52.700       270
52.720       320
52.740       207
52.760       213
52.780       267
52.800       297
52.820       320
52.840       210
52.860       253
52.880       220
52.900       273
52.920       313
52.940       270
52.960       250
52.980       263
53.000       283
53.020       240
53.040       250
53.060       290
53.080       263
53.100       287
53.120       243
53.140       267
53.160       263
53.180       260
53.200       237
53.220       210
53.240       213
53.260       247
53.280       247
53.300       277
53.320       310
53.340       243
53.360       260
53.380       250
53.400       300
53.420       317
53.440       277
53.460       260
53.480       240
53.500       307
53.520       227
53.540       277
53.560       327
53.580       253
53.600       273
53.620       277
53.640       277
53.660       267
53.680       250
53.700       200
53.720       253
53.740       227
53.760       260
53.780       303
53.800       273
53.820       323
53.840       227
53.860       240
53.880       283
53.900       280
53.920       290
53.940       257
53.960       313
53.980       223
54.000       200
54.020       257
54.040       280
54.060       257
54.080       283
54.100       273
54.120       337
54.140       247
54.160       273
54.180       340
54.200       270
54.220       320
54.240       313
54.260       313
54.280       343
54.300       380
54.320       383
54.340       426
54.360       466
54.380       420
54.400       513
54.420       630
54.440       613
54.460       720
54.480       696
54.500       746
54.520       833
54.540      1013
54.560      1010
54.580      1060
54.600      1140
54.620      1086
54.640      1163
54.660      1176
54.680      1286
54.700      1160
54.720      1163
54.740      1076
54.760      1050
54.780       926
54.800       930
54.820       783
54.840       766
54.860       723
54.880       590
54.900       586
54.920       560
54.940       463
54.960       333
54.980       453
55.000       307
55.020       293
55.040       313
55.060       257
55.080       240
55.100       320
55.120       297
55.140       283
55.160       353
55.180       297
55.200       240
55.220       223
55.240       280
55.260       263
55.280       260
55.300       237
55.320       273
55.340       287
55.360       257
55.380       260
55.400       230
55.420       310
55.440       267
55.460       270
55.480       257
55.500       277
55.520       253
55.540       233
55.560       257
55.580       220
55.600       230
55.620       243
55.640       240
55.660       237
55.680       230
55.700       240
55.720       233
55.740       217
55.760       283
55.780       250
55.800       280
55.820       313
55.840       223
55.860       260
55.880       263
55.900       193
55.920       253
55.940       217
55.960       247
55.980       287
56.000       260
56.020       240
56.040       287
56.060       250
56.080       243
56.100       273
56.120       253
56.140       277
56.160       247
56.180       250
56.200       290
56.220       243
56.240       243
56.260       250
56.280       220
56.300       297
56.320       257
56.340       213
56.360       243
56.380       293
56.400       260
56.420       223
56.440       273
56.460       233
56.480       187
56.500       297
56.520       237
56.540       220
56.560       280
56.580       297
56.600       263
56.620       293
56.640       253
56.660       273
56.680       207
56.700       253
56.720       177
56.740       217
56.760       273
56.780       263
56.800       223
56.820       267
56.840       287
56.860       217
56.880       203
56.900       273
56.920       250
56.940       260
56.960       270
56.980       280
57.000       257
57.020       250
57.040       260
57.060       250
57.080       270
57.100       300
57.120       240
57.140       177
57.160       210
57.180       250
57.200       283
57.220       203
57.240       283
57.260       250
57.280       260
57.300       280
57.320       250
57.340       267
57.360       293
57.380       270
57.400       260
57.420       237
57.440       253
57.460       243
57.480       240
57.500       217
57.520       227
57.540       220
57.560       217
57.580       230
57.600       213
57.620       257
57.640       257
57.660       220
57.680       247
57.700       247
57.720       250
57.740       223
57.760       257
57.780       293
57.800       250
57.820       300
57.840       230
57.860       293
57.880       250
57.900       217
57.920       227
57.940       223
57.960       233
57.980       257
58.000       233
58.020       243
58.040       233
58.060       203
58.080       257
58.100       260
58.120       273
58.140       223
58.160       230
58.180       260
58.200       263
58.220       200
58.240       203
58.260       207
58.280       267
58.300       230
58.320       247
58.340       230
58.360       190
58.380       240
58.400       220
58.420       273
58.440       243
58.460       247
58.480       240
58.500       240
58.520       213
58.540       247
58.560       253
58.580       217
58.600       210
58.620       223
58.640       250
58.660       213
58.680       270
58.700       287
58.720       213
58.740       240
58.760       200
58.780       300
58.800       243
58.820       263
58.840       313
58.860       253
58.880       190
58.900       217
58.920       257
58.940       257
58.960       267
58.980       240
59.000       200
59.020       193
59.040       210
59.060       200
59.080       253
59.100       183
59.120       203
59.140       223
59.160       267
59.180       227
59.200       233
59.220       200
59.240       203
59.260       233
59.280       243
59.300       243
59.320       187
59.340       243
59.360       260
59.380       260
59.400       213
59.420       197
59.440       210
59.460       237
59.480       190
59.500       217
59.520       273
59.540       220
59.560       227
59.580       163
59.600       227
59.620       280
59.640       203
59.660       260
59.680       210
59.700       177
59.720       213
59.740       230
59.760       273
59.780       177
59.800       233
59.820       227
59.840       240
59.860       220
59.880       227
59.900       210
59.920       163
59.940       257
59.960       247
59.980       260
60.000       223
60.020       270
60.040       223
60.060       220
60.080       197
60.100       197
60.120       250
60.140       273
60.160       230
60.180       237
60.200       210
60.220       220
60.240       210
60.260       240
60.280       193
60.300       270
60.320       253
60.340       207
60.360       197
60.380       247
60.400       243
60.420       197
60.440       210
60.460       240
60.480       227
60.500       227
60.520       230
60.540       227
60.560       243
60.580       257
60.600       210
60.620       213
60.640       270
60.660       213
60.680       200
60.700       217
60.720       187
60.740       213
60.760       187
60.780       237
60.800       210
60.820       180
60.840       250
60.860       233
60.880       197
60.900       213
60.920       163
60.940       183
60.960       220
60.980       230
61.000       180
61.020       220
61.040       210
61.060       200
61.080       223
61.100       143
61.120       280
61.140       207
61.160       283
61.180       187
61.200       197
61.220       230
61.240       197
61.260       203
61.280       267
61.300       243
61.320       223
61.340       237
61.360       177
61.380       267
61.400       200
61.420       197
61.440       190
61.460       247
61.480       200
61.500       217
61.520       217
61.540       233
61.560       217
61.580       250
61.600       300
61.620       163
61.640       250
61.660       250
61.680       227
61.700       140
61.720       223
61.740       180
61.760       207
61.780       220
61.800       173
61.820       207
61.840       250
61.860       223
61.880       183
61.900       197
61.920       227
61.940       253
61.960       173
61.980       240
62.000       160
62.020       270
62.040       237
62.060       207
62.080       210
62.100       253
62.120       267
62.140       263
62.160       180
62.180       250
62.200       200
62.220       227
62.240       253
62.260       237
62.280       190
62.300       197
62.320       167
62.340       193
62.360       167
62.380       193
62.400       253
62.420       170
62.440       220
62.460       210
62.480       233
62.500       173
62.520       207
62.540       203
62.560       170
62.580       200
62.600       207
62.620       163
62.640       193
62.660       207
62.680       200
62.700       240
62.720       173
62.740       203
62.760       167
62.780       213
62.800       193
62.820       213
62.840       277
62.860       217
62.880       193
62.900       173
62.920       217
62.940       203
62.960       203
62.980       243
63.000       207
63.020       217
63.040       187
63.060       193
63.080       197
63.100       187
63.120       180
63.140       217
63.160       193
63.180       157
63.200       187
63.220       233
63.240       203
63.260       183
63.280       220
63.300       190
63.320       167
63.340       177
63.360       207
63.380       180
63.400       180
63.420       197
63.440       210
63.460       223
63.480       193
63.500       167
63.520       273
63.540       207
63.560       157
63.580       197
63.600       157
63.620       187
63.640       193
63.660       233
63.680       247
63.700       187
63.720       180
63.740       230
63.760       267
63.780       223
63.800       167
63.820       193
63.840       257
63.860       187
63.880       167
63.900       190
63.920       210
63.940       230
63.960       227
63.980       123
64.000       217
64.020       220
64.040       187
64.060       263
64.080       177
64.100       160
64.120       217
64.140       290
64.160       190
64.180       210
64.200       253
64.220       140
64.240       197
64.260       230
64.280       240
64.300       267
64.320       213
64.340       210
64.360       193
64.380       203
64.400       187
64.420       250
64.440       187
64.460       230
64.480       153
64.500       183
64.520       203
64.540       230
64.560       160
64.580       187
64.600       210
64.620       227
64.640       220
64.660       210
64.680       167
64.700       227
64.720       203
64.740       233
64.760       143
64.780       237
64.800       223
64.820       203
64.840       197
64.860       157
64.880       177
64.900       167
64.920       240
64.940       227
64.960       197
64.980       227
65.000       210
65.020       183
65.040       220
65.060       177
65.080       190
65.100       200
65.120       210
65.140       223
65.160       240
65.180       173
65.200       210
65.220       193
65.240       160
65.260       173
65.280       163
65.300       240
65.320       190
65.340       197
65.360       220
65.380       133
65.400       213
65.420       133
65.440       210
65.460       170
65.480       207
65.500       220
65.520       170
65.540       253
65.560       200
65.580       157
65.600       170
65.620       190
65.640       193
65.660       193
65.680       243
65.700       200
65.720       167
65.740       223
65.760       197
65.780       157
65.800       177
65.820       167
65.840       167
65.860       207
65.880       220
65.900       183
65.920       220
65.940       187
65.960       200
65.980       193
66.000       177
66.020       163
66.040       183
66.060       163
66.080       177
66.100       180
66.120       163
66.140       187
66.160       170
66.180       187
66.200       193
66.220       200
66.240       180
66.260       187
66.280       210
66.300       200
66.320       170
66.340       203
66.360       213
66.380       197
66.400       217
66.420       260
66.440       247
66.460       257
66.480       227
66.500       213
66.520       250
66.540       170
66.560       180
66.580       207
66.600       247
66.620       240
66.640       230
66.660       213
66.680       227
66.700       237
66.720       237
66.740       230
66.760       253
66.780       257
66.800       143
66.820       203
66.840       200
66.860       207
66.880       257
66.900       237
66.920       290
66.940       297
66.960       313
66.980       300
67.000       367
67.020       397
67.040       520
67.060       833
67.080      1026
67.100      1456
67.120      1729
67.140      1553
67.160      1313
67.180       876
67.200       496
67.220       470
67.240       343
67.260       310
67.280       293
67.300       303
67.320       223
67.340       233
67.360       233
67.380       313
67.400       210
67.420       217
67.440       183
67.460       280
67.480       210
67.500       240
67.520       203
67.540       270
67.560       217
67.580       243
67.600       197
67.620       217
67.640       233
67.660       210
67.680       223
67.700       253
67.720       230
67.740       183
67.760       203
67.780       177
67.800       200
67.820       163
67.840       230
67.860       220
67.880       177
67.900       203
67.920       190
67.940       167
67.960       207
67.980       183
68.000       203
68.020       207
68.040       150
68.060       203
68.080       193
68.100       223
68.120       253
68.140       203
68.160       227
68.180       263
68.200       137
68.220       217
68.240       197
68.260       247
68.280       197
68.300       200
68.320       203
68.340       227
68.360       210
68.380       193
68.400       250
68.420       227
68.440       210
68.460       187
68.480       233
68.500       217
68.520       180
68.540       257
68.560       183
68.580       180
68.600       213
68.620       210
68.640       183
68.660       193
68.680       160
68.700       200
68.720       163
68.740       193
68.760       177
68.780       210
68.800       213
68.820       193
68.840       193
68.860       187
68.880       160
68.900       207
68.920       207
68.940       163
68.960       183
68.980       183
69.000       177
69.020       167
69.040       190
69.060       200
69.080       167
69.100       173
69.120       153
69.140       170
69.160       143
69.180       163
69.200       160
69.220       217
69.240       143
69.260       220
69.280       170
69.300       233
69.320       197
69.340       177
69.360       163
69.380       203
69.400       143
69.420       163
69.440       163
69.460       197
69.480       207
69.500       157
69.520       173
69.540       160
69.560       183
69.580       170
69.600       197
69.620       177
69.640       177
69.660       180
69.680       180
69.700       207
69.720       180
69.740       217
69.760       137
69.780       110
69.800       163
69.820       200
69.840       193
69.860       177
69.880       173
69.900       147
69.920       167
69.940       163
69.960       190
69.980       180
70.000       183
70.020       160
70.040       150
70.060       187
70.080       153
70.100       197
70.120       200
70.140       160
70.160       207
70.180       150
70.200       157
70.220       203
70.240       210
70.260       180
70.280       173
70.300       207
70.320       163
70.340       170
70.360       180
70.380       187
70.400       203
70.420       163
70.440       210
70.460       173
70.480       157
70.500       143
70.520       160
70.540       150
70.560       130
70.580       150
70.600       160
70.620       153
70.640       207
70.660       170
70.680       137
70.700       163
70.720       183
70.740       167
70.760       183
70.780       137
70.800       133
70.820       187
70.840       203
70.860       177
70.880       180
70.900       213
70.920       173
70.940       140
70.960       147
70.980       183
71.000       187
71.020       137
71.040       160
71.060       153
71.080       173
71.100       137
71.120       200
71.140       160
71.160       170
71.180       170
71.200       210
71.220       157
71.240       183
71.260       203
71.280       153
71.300       157
71.320       133
71.340       190
71.360       177
71.380       180
71.400       167
71.420       210
71.440       160
71.460       200
71.480       173
71.500       140
71.520       153
71.540       143
71.560       163
71.580       157
71.600       203
71.620       127
71.640       177
71.660       183
71.680       130
71.700       140
71.720       180
71.740       107
71.760       153
71.780       137
71.800       157
71.820       197
71.840       193
71.860       187
71.880       180
71.900       197
71.920       190
71.940       173
71.960       203
71.980       190
72.000       157
72.020       143
72.040       153
72.060       140
72.080       147
72.100       157
72.120       153
72.140       153
72.160       203
72.180       153
72.200       157
72.220       147
72.240       197
72.260       130
72.280       223
72.300       170
72.320       197
72.340       193
72.360       220
72.380       217
72.400       230
72.420       303
72.440       310
72.460       310
72.480       423
72.500       443
72.520       360
72.540       407
72.560       377
72.580       420
72.600       463
72.620       423
72.640       420
72.660       446
72.680       383
72.700       410
72.720       387
72.740       353
72.760       303
72.780       390
72.800       436
72.820       350
72.840       443
72.860       446
72.880       463
72.900       430
72.920       440
72.940       373
72.960       367
72.980       463
73.000       403
73.020       446
73.040       460
73.060       343
73.080       373
73.100       383
73.120       443
73.140       430
73.160       413
73.180       397
73.200       377
73.220       407
73.240       373
73.260       463
73.280       370
73.300       450
73.320       420
73.340       417
73.360       450
73.380       367
73.400       370
73.420       383
73.440       350
73.460       403
73.480       337
73.500       370
73.520       380
73.540       417
73.560       503
73.580       337
73.600       367
73.620       380
73.640       400
73.660       403
73.680       433
73.700       460
73.720       347
73.740       453
73.760       393
73.780       490
73.800       423
73.820       456
73.840       506
73.860       380
73.880       407
73.900       400
73.920       360
73.940       387
73.960       370
73.980       397
74.000       393
74.020       370
74.040       417
74.060       413
74.080       397
74.100       473
74.120       420
74.140       390
74.160       436
74.180       450
74.200       460
74.220       450
74.240       456
74.260       466
74.280       470
74.300       450
74.320       563
74.340       493
74.360       476
74.380       423
74.400       393
74.420       536
74.440       476
74.460       463
74.480       420
74.500       500
74.520       470
74.540       490
74.560       513
74.580       566
74.600       496
74.620       590
74.640       646
74.660       523
74.680       586
74.700       590
74.720       530
74.740       603
74.760       693
74.780       576
74.800       656
74.820       783
74.840       690
74.860       823
74.880       896
74.900       943
74.920      1090
74.940      1213
74.960      1463
74.980      1589
75.000      1966
75.020      2136
75.040      2152
75.060      2476
75.080      2529
75.100      2396
75.120      2596
75.140      2896
75.160      3649
75.180      4365
75.200      5318
75.220      6261
75.240      7790
75.260      8913
75.280     10696
75.300     12848
75.320     17010
75.340     25330
75.360     45382
75.380     89278
75.400    136962
75.420    159916
75.440    153492
75.460    113954
75.480     69482
75.500     38968
75.520     23581
75.540     18779
75.560     19662
75.580     28389
75.600     48387
75.620     72904
75.640     88308
75.660     84150
75.680     62235
75.700     38068
75.720     20965
75.740     11915
75.760      7417
75.780      5185
75.800      3902
75.820      2962
75.840      2572
75.860      2282
75.880      1953
75.900      1763
75.920      1699
75.940      1603
75.960      1429
75.980      1223
76.000      1256
76.020      1106
76.040      1043
76.060       996
76.080       906
76.100       870
76.120       870
76.140       793
76.160       826
76.180       796
76.200       630
76.220       700
76.240       676
76.260       640
76.280       666
76.300       663
76.320       620
76.340       576
76.360       623
76.380       556
76.400       530
76.420       520
76.440       523
76.460       520
76.480       493
76.500       556
76.520       526
76.540       483
76.560       510
76.580       636
76.600       530
76.620       460
76.640       446
76.660       496
76.680       493
76.700       536
76.720       550
76.740       500
76.760       436
76.780       403
76.800       500
76.820       426
76.840       423
76.860       436
76.880       377
76.900       417
76.920       343
76.940       443
76.960       430
76.980       367
77.000       373
77.020       377
77.040       473
77.060       363
77.080       310
77.100       353
77.120       430
77.140       420
77.160       373
77.180       377
77.200       417
77.220       407
77.240       313
77.260       330
77.280       337
77.300       430
77.320       323
77.340       280
77.360       317
77.380       430
77.400       303
77.420       357
77.440       303
77.460       357
77.480       287
77.500       350
77.520       373
77.540       320
77.560       340
77.580       300
77.600       290
77.620       327
77.640       357
77.660       307
77.680       333
77.700       280
77.720       343
77.740       360
77.760       323
77.780       290
77.800       333
77.820       337
77.840       280
77.860       330
77.880       343
77.900       323
77.920       280
77.940       353
77.960       330
77.980       253
78.000       343
78.020       260
78.040       237
78.060       320
78.080       330
78.100       310
78.120       353
78.140       327
78.160       293
78.180       303
78.200       313
78.220       253
78.240       273
78.260       297
78.280       283
78.300       260
78.320       303
78.340       310
78.360       280
78.380       250
78.400       323
78.420       323
78.440       337
78.460       303
78.480       307
78.500       307
78.520       343
78.540       250
78.560       323
78.580       250
78.600       263
78.620       307
78.640       297
78.660       277
78.680       280
78.700       293
78.720       270
78.740       310
78.760       333
78.780       303
78.800       323
78.820       240
78.840       293
78.860       317
78.880       263
78.900       293
78.920       227
78.940       290
78.960       250
78.980       317
79.000       283
79.020       243
79.040       283
79.060       300
79.080       223
79.100       287
79.120       300
79.140       300
79.160       257
79.180       313
79.200       287
79.220       263
79.240       273
79.260       337
79.280       277
79.300       327
79.320       233
79.340       287
79.360       257
79.380       300
79.400       250
79.420       260
79.440       253
79.460       213
79.480       200
79.500       240
79.520       213
79.540       297
79.560       250
79.580       283
79.600       313
79.620       250
79.640       257
79.660       293
79.680       283
79.700       240
79.720       287
79.740       237
79.760       233
79.780       193
79.800       217
79.820       340
79.840       110
79.860         0
79.880         0
79.900         0
79.920         0
79.940         0
79.960         0
79.980         0
80.000         0
