20.000         0
20.020         0
20.040         0
20.060         0
20.080         0
20.100         0
20.120         0
20.140         0
20.160         0
20.180         0
20.200         0
20.220         3
20.240       426
20.260      1936
20.280      1963
20.300      1889
20.320      1803
20.340      1909
20.360      2003
20.380      1826
20.400      1996
20.420      1896
20.440      1959
20.460      1846
20.480      1923
20.500      1966
20.520      1749
20.540      1776
20.560      1816
20.580      1803
20.600      1973
20.620      1959
20.640      1699
20.660      1926
20.680      1796
20.700      1929
20.720      1913
20.740      1766
20.760      1923
20.780      1793
20.800      1826
20.820      1766
20.840      1793
20.860      1793
20.880      1693
20.900      1786
20.920      1766
20.940      1803
20.960      1886
20.980      1809
21.000      1549
21.020      1826
21.040      1806
21.060      1793
21.080      1949
21.100      1733
21.120      1839
21.140      1669
21.160      1833
21.180      1709
21.200      1879
21.220      1789
21.240      1756
21.260      1726
21.280      1753
21.300      1729
21.320      1603
21.340      1749
21.360      1733
21.380      1513
21.400      1709
21.420      1743
21.440      1593
21.460      1469
21.480      1679
21.500      1663
21.520      1583
21.540      1729
21.560      1476
21.580      1479
21.600      1646
21.620      1486
21.640      1719
21.660      1733
21.680      1596
21.700      1533
21.720      1543
21.740      1516
21.760      1563
21.780      1556
21.800      1496
21.820      1519
21.840      1656
21.860      1623
21.880      1453
21.900      1569
21.920      1533
21.940      1549
21.960      1513
21.980      1563
22.000      1426
22.020      1443
22.040      1503
22.060      1519
22.080      1493
22.100      1389
22.120      1516
22.140      1549
22.160      1306
22.180      1483
22.200      1549
22.220      1296
22.240      1286
22.260      1419
22.280      1403
22.300      1473
22.320      1509
22.340      1426
22.360      1343
22.380      1496
22.400      1469
22.420      1366
22.440      1386
22.460      1299
22.480      1349
22.500      1269
22.520      1379
22.540      1366
22.560      1383
22.580      1396
22.600      1346
22.620      1306
22.640      1306
22.660      1339
22.680      1273
22.700      1363
22.720      1263
22.740      1399
22.760      1339
22.780      1499
22.800      1346
22.820      1349
22.840      1153
22.860      1266
22.880      1316
22.900      1206
22.920      1303
22.940      1283
22.960      1263
22.980      1396
23.000      1419
23.020      1250
23.040      1343
23.060      1329
23.080      1259
23.100      1213
23.120      1356
23.140      1336
23.160      1196
23.180      1343
23.200      1323
23.220      1163
23.240      1309
23.260      1203
23.280      1329
23.300      1220
23.320      1309
23.340      1250
23.360      1276
23.380      1250
23.400      1359
23.420      1333
23.440      1253
23.460      1226
23.480      1243
23.500      1449
23.520      1183
23.540      1449
23.560      1206
23.580      1283
23.600      1316
23.620      1306
23.640      1226
23.660      1326
23.680      1273
23.700      1196
23.720      1366
23.740      1439
23.760      1296
23.780      1379
23.800      1216
23.820      1273
23.840      1233
23.860      1386
23.880      1196
23.900      1213
23.920      1226
23.940      1243
23.960      1226
23.980      1186
24.000      1246
24.020      1299
24.040      1309
24.060      1230
24.080      1263
24.100      1210
24.120      1176
24.140      1369
24.160      1243
24.180      1289
24.200      1230
24.220      1203
24.240      1226
24.260      1240
24.280      1220
24.300      1213
24.320      1160
24.340      1156
24.360      1076
24.380      1220
24.400      1180
24.420      1110
24.440      1176
24.460      1259
24.480      1250
24.500      1193
24.520      1196
24.540      1230
24.560      1000
24.580      1123
24.600      1150
24.620      1120
24.640      1140
24.660      1170
24.680      1033
24.700      1053
24.720      1150
24.740      1066
24.760      1070
24.780      1136
24.800      1130
24.820      1093
24.840      1043
24.860      1080
24.880       983
24.900      1126
24.920      1030
24.940      1100
24.960      1180
24.980      1036
25.000      1053
25.020       910
25.040      1156
25.060      1006
25.080       976
25.100      1000
25.120      1010
25.140       943
25.160      1163
25.180      1153
25.200      1006
25.220       913
25.240      1063
25.260       963
25.280      1060
25.300      1066
25.320      1050
25.340      1030
25.360       920
25.380       916
25.400       926
25.420      1030
25.440       913
25.460       960
25.480       943
25.500       916
25.520       940
25.540       940
25.560       950
25.580       833
25.600       876
25.620       833
25.640       856
25.660       843
25.680       830
25.700       673
25.720       690
25.740       713
25.760       660
25.780       653
25.800       596
25.820       670
25.840       680
25.860       646
25.880       626
25.900       703
25.920       660
25.940       623
25.960       613
25.980       640
26.000       613
26.020       600
26.040       663
26.060       676
26.080       610
26.100       566
26.120       523
26.140       553
26.160       576
26.180       660
26.200       573
26.220       570
26.240       633
26.260       663
26.280       586
26.300       690
26.320       553
26.340       576
26.360       530
26.380       546
26.400       590
26.420       556
26.440       596
26.460       563
26.480       510
26.500       593
26.520       560
26.540       566
26.560       613
26.580       616
26.600       593
26.620       573
26.640       666
26.660       603
26.680       500
26.700       576
26.720       590
26.740       463
26.760       463
26.780       566
26.800       600
26.820       530
26.840       500
26.860       576
26.880       553
26.900       463
26.920       583
26.940       563
26.960       536
26.980       513
27.000       476
27.020       453
27.040       473
27.060       516
27.080       563
27.100       450
27.120       503
27.140       553
27.160       570
27.180       530
27.200       510
27.220       493
27.240       596
27.260       500
27.280       480
27.300       530
27.320       550
27.340       536
27.360       526
27.380       506
27.400       520
27.420       453
27.440       490
27.460       460
27.480       523
27.500       530
27.520       466
27.540       430
27.560       473
27.580       460
27.600       500
27.620       476
27.640       533
27.660       473
27.680       496
27.700       456
27.720       440
27.740       510
27.760       473
27.780       510
27.800       443
27.820       450
27.840       390
27.860       453
27.880       470
27.900       496
27.920       470
27.940       450
27.960       426
27.980       473
28.000       500
28.020       397
28.040       463
28.060       430
28.080       493
28.100       493
28.120       463
28.140       516
28.160       476
28.180       400
28.200       463
28.220       520
28.240       493
28.260       540
28.280       423
28.300       407
28.320       466
28.340       446
28.360       516
28.380       500
28.400       456
28.420       383
28.440       360
28.460       470
28.480       463
28.500       397
28.520       407
28.540       486
28.560       426
28.580       360
28.600       436
28.620       426
28.640       387
28.660       496
28.680       387
28.700       436
28.720       420
28.740       436
28.760       476
28.780       387
28.800       353
28.820       380
28.840       456
28.860       390
28.880       380
28.900       357
28.920       436
28.940       400
28.960       380
28.980       446
29.000       387
29.020       387
29.040       470
29.060       496
29.080       450
29.100       516
29.120       313
29.140       450
29.160       390
29.180       350
29.200       460
29.220       403
29.240       380
29.260       403
29.280       473
29.300       470
29.320       446
29.340       407
29.360       443
29.380       370
29.400       383
29.420       383
29.440       426
29.460       400
29.480       403
29.500       377
29.520       476
29.540       420
29.560       410
29.580       456
29.600       423
29.620       446
29.640       373
29.660       390
29.680       367
29.700       426
29.720       380
29.740       347
29.760       387
29.780       393
29.800       476
29.820       476
29.840       393
29.860       403
29.880       397
29.900       436
29.920       390
29.940       407
29.960       420
29.980       387
30.000       397
30.020       410
30.040       466
30.060       353
30.080       377
30.100       360
30.120       337
30.140       400
30.160       383
30.180       436
30.200       337
30.220       387
30.240       377
30.260       417
30.280       476
30.300       320
30.320       390
30.340       353
30.360       363
30.380       476
30.400       390
30.420       456
30.440       363
30.460       367
30.480       436
30.500       363
30.520       383
30.540       413
30.560       380
30.580       506
30.600       413
30.620       450
30.640       470
30.660       417
30.680       476
30.700       403
30.720       493
30.740       423
30.760       463
30.780       456
30.800       433
30.820       433
30.840       420
30.860       506
30.880       463
30.900       493
30.920       430
30.940       486
30.960       400
30.980       423
31.000       473
31.020       456
31.040       486
31.060       486
31.080       383
31.100       470
31.120       410
31.140       466
31.160       500
31.180       476
31.200       430
31.220       407
31.240       453
31.260       433
31.280       463
31.300       503
31.320       450
31.340       543
31.360       526
31.380       506
31.400       430
31.420       463
31.440       470
31.460       417
31.480       443
31.500       550
31.520       500
31.540       516
31.560       533
31.580       510
31.600       556
31.620       533
31.640       543
31.660       526
31.680       513
31.700       590
31.720       520
31.740       593
31.760       603
31.780       673
31.800       593
31.820       600
31.840       593
31.860       743
31.880       823
31.900       766
31.920       780
31.940       810
31.960       946
31.980       760
32.000       870
32.020       890
32.040       970
32.060      1429
32.080      2942
32.100      4935
32.120      6154
32.140      5748
32.160      4202
32.180      2159
32.200      1283
32.220       996
32.240       993
32.260       846
32.280       866
32.300       816
32.320       633
32.340       720
32.360       740
32.380       636
32.400       706
32.420       643
32.440       746
32.460       630
32.480       596
32.500       640
32.520       640
32.540       666
32.560       653
32.580       666
32.600       626
32.620       723
32.640       530
32.660       606
32.680       743
32.700       663
32.720       653
32.740       596
32.760       696
32.780       643
32.800       690
32.820       620
32.840       686
32.860       656
32.880       606
32.900       616
32.920       593
32.940       656
32.960       606
32.980       686
33.000       663
33.020       570
33.040       610
33.060       650
33.080       623
33.100       630
33.120       520
33.140       593
33.160       580
33.180       566
33.200       656
33.220       633
33.240       666
33.260       553
33.280       583
33.300       663
33.320       596
33.340       663
33.360       630
33.380       633
33.400       600
33.420       580
33.440       626
33.460       543
33.480       633
33.500       633
33.520       690
33.540       623
33.560       653
33.580       563
33.600       620
33.620       593
33.640       586
33.660       623
33.680       686
33.700       633
33.720       526
33.740       583
33.760       696
33.780       546
33.800       700
33.820       686
33.840       563
33.860       703
33.880       636
33.900       586
33.920       620
33.940       653
33.960       640
33.980       576
34.000       596
34.020       636
34.040       580
34.060       666
34.080       713
34.100       676
34.120       676
34.140       643
34.160       613
34.180       763
34.200       590
34.220       666
34.240       663
34.260       803
34.280       750
34.300       710
34.320       640
34.340       750
34.360       850
34.380      1130
34.400      1393
34.420      1773
34.440      1906
34.460      2192
34.480      2073
34.500      1979
34.520      1906
34.540      2209
34.560      2172
34.580      2212
34.600      1923
34.620      2046
34.640      2139
34.660      1979
34.680      2073
34.700      2026
34.720      2129
34.740      2106
34.760      1863
34.780      2136
34.800      1966
34.820      2066
34.840      2112
34.860      2043
34.880      2166
34.900      2186
34.920      2306
34.940      2039
34.960      2056
34.980      2272
35.000      2209
35.020      2136
35.040      2206
35.060      2076
35.080      2189
35.100      2186
35.120      2362
35.140      2302
35.160      2269
35.180      2549
35.200      2479
35.220      2656
35.240      2822
35.260      2945
35.280      3062
35.300      3189
35.320      3652
35.340      4502
35.360      5691
35.380      7307
35.400      9576
35.420     12525
35.440     16920
35.460     21625
35.480     25916
35.500     28352
35.520     30904
35.540     33677
35.560     41430
35.580     65144
35.600    153529
35.620    263431
35.640    295295
35.660    298451
35.680    269099
35.700    219236
35.720    219236
35.740    229048
35.760    214611
35.780    154395
35.800     74240
35.820     36539
35.840     23051
35.860     17856
35.880     14024
35.900     11969
35.920      9063
35.940      6471
35.960      4721
35.980      4098
36.000      3788
36.020      3532
36.040      3192
36.060      3069
36.080      2802
36.100      3105
36.120      2782
36.140      2556
36.160      2482
36.180      2452
36.200      2406
36.220      2206
36.240      2269
36.260      2112
36.280      2179
36.300      2063
36.320      2152
36.340      1976
36.360      1926
36.380      1819
36.400      1833
36.420      1716
36.440      1839
36.460      1776
36.480      1723
36.500      1813
36.520      1753
36.540      1646
36.560      1596
36.580      1716
36.600      1726
36.620      1759
36.640      1713
36.660      1703
36.680      1546
36.700      1443
36.720      1453
36.740      1473
36.760      1579
36.780      1469
36.800      1479
36.820      1506
36.840      1436
36.860      1433
36.880      1373
36.900      1549
36.920      1459
36.940      1399
36.960      1403
36.980      1376
37.000      1363
37.020      1376
37.040      1299
37.060      1396
37.080      1473
37.100      1356
37.120      1250
37.140      1343
37.160      1303
37.180      1386
37.200      1409
37.220      1220
37.240      1356
37.260      1346
37.280      1469
37.300      1389
37.320      1253
37.340      1296
37.360      1343
37.380      1303
37.400      1246
37.420      1306
37.440      1279
37.460      1279
37.480      1226
37.500      1393
37.520      1366
37.540      1373
37.560      1279
37.580      1323
37.600      1339
37.620      1396
37.640      1593
37.660      1483
37.680      1776
37.700      1893
37.720      1889
37.740      2176
37.760      2356
37.780      2809
37.800      3569
37.820      3935
37.840      4588
37.860      5228
37.880      5974
37.900      6861
37.920      7350
37.940      7614
37.960      6804
37.980      6261
38.000      5258
38.020      4715
38.040      3972
38.060      3459
38.080      2599
38.100      2073
38.120      1626
38.140      1476
38.160      1346
38.180      1349
38.200      1313
38.220      1073
38.240      1246
38.260      1180
38.280      1086
38.300      1110
38.320      1086
38.340      1023
38.360      1066
38.380      1060
38.400      1120
38.420      1053
38.440      1083
38.460      1040
38.480      1093
38.500      1120
38.520      1050
38.540       950
38.560      1120
38.580      1023
38.600      1003
38.620      1033
38.640      1003
38.660      1060
38.680       900
38.700      1000
38.720       953
38.740       983
38.760      1000
38.780       930
38.800      1060
38.820      1010
38.840      1023
38.860       903
38.880      1016
38.900       960
38.920      1040
38.940       953
38.960      1006
38.980      1003
39.000       966
39.020       873
39.040       933
39.060       933
39.080      1026
39.100       896
39.120       846
39.140       893
39.160       943
39.180       926
39.200       870
39.220       920
39.240       903
39.260       890
39.280       873
39.300       920
39.320       923
39.340       956
39.360       870
39.380       836
39.400       863
39.420       950
39.440       826
39.460       933
39.480       926
39.500       843
39.520       910
39.540       890
39.560       900
39.580       886
39.600       883
39.620       786
39.640       863
39.660       836
39.680       780
39.700       773
39.720       806
39.740       923
39.760       803
39.780       756
39.800       783
39.820       876
39.840       703
39.860       833
39.880       960
39.900       793
39.920       806
39.940       780
39.960       850
39.980       813
40.000       766
40.020       736
40.040       970
40.060       823
40.080       773
40.100       793
40.120       793
40.140       753
40.160       900
40.180       743
40.200       763
40.220       743
40.240       796
40.260       816
40.280       810
40.300       793
40.320       750
40.340       716
40.360       720
40.380       700
40.400       690
40.420       633
40.440       773
40.460       700
40.480       773
40.500       866
40.520       833
40.540       783
40.560       680
40.580       813
40.600       730
40.620       740
40.640       760
40.660       716
40.680       776
40.700       706
40.720       803
40.740       770
40.760       793
40.780       783
40.800       646
40.820       743
40.840       793
40.860       806
40.880       796
40.900       603
40.920       683
40.940       713
40.960       723
40.980       710
41.000       696
41.020       650
41.040       700
41.060       620
41.080       733
41.100       730
41.120       806
41.140       686
41.160       733
41.180       733
41.200       650
41.220       683
41.240       706
41.260       703
41.280       693
41.300       746
41.320       726
41.340       710
41.360       673
41.380       710
41.400       696
41.420       686
41.440       703
41.460       706
41.480       723
41.500       783
41.520       643
41.540       676
41.560       683
41.580       676
41.600       660
41.620       616
41.640       643
41.660       756
41.680       690
41.700       583
41.720       643
41.740       566
41.760       703
41.780       713
41.800       666
41.820       693
41.840       743
41.860       790
41.880       593
41.900       633
41.920       626
41.940       740
41.960       656
41.980       656
42.000       703
42.020       700
42.040       583
42.060       600
42.080       633
42.100       650
42.120       740
42.140       603
42.160       560
42.180       640
42.200       630
42.220       616
42.240       606
42.260       596
42.280       613
42.300       673
42.320       563
42.340       616
42.360       533
42.380       566
42.400       600
42.420       610
42.440       586
42.460       586
42.480       590
42.500       526
42.520       610
42.540       603
42.560       596
42.580       586
42.600       563
42.620       586
42.640       603
42.660       610
42.680       653
42.700       636
42.720       513
42.740       506
42.760       643
42.780       580
42.800       676
42.820       503
42.840       593
42.860       530
42.880       646
42.900       543
42.920       543
42.940       570
42.960       496
42.980       533
43.000       580
43.020       553
43.040       456
43.060       526
43.080       546
43.100       510
43.120       523
43.140       526
43.160       533
43.180       583
43.200       510
43.220       553
43.240       560
43.260       566
43.280       520
43.300       550
43.320       506
43.340       570
43.360       553
43.380       460
43.400       540
43.420       530
43.440       500
43.460       550
43.480       570
43.500       530
43.520       460
43.540       483
43.560       446
43.580       510
43.600       536
43.620       506
43.640       563
43.660       543
43.680       486
43.700       606
43.720       516
43.740       536
43.760       480
43.780       417
43.800       490
43.820       470
43.840       470
43.860       540
43.880       500
43.900       443
43.920       546
43.940       470
43.960       620
43.980       433
44.000       540
44.020       460
44.040       476
44.060       496
44.080       540
44.100       443
44.120       526
44.140       503
44.160       496
44.180       436
44.200       526
44.220       490
44.240       493
44.260       510
44.280       543
44.300       543
44.320       413
44.340       446
44.360       500
44.380       523
44.400       483
44.420       433
44.440       456
44.460       446
44.480       503
44.500       530
44.520       436
44.540       466
44.560       450
44.580       510
44.600       483
44.620       486
44.640       420
44.660       480
44.680       397
44.700       446
44.720       506
44.740       460
44.760       423
44.780       476
44.800       493
44.820       420
44.840       503
44.860       483
44.880       393
44.900       453
44.920       383
44.940       496
44.960       476
44.980       466
45.000       440
45.020       483
45.040       426
45.060       490
45.080       413
45.100       443
45.120       456
45.140       353
45.160       486
45.180       446
45.200       363
45.220       383
45.240       536
45.260       397
45.280       430
45.300       413
45.320       466
45.340       430
45.360       426
45.380       446
45.400       393
45.420       453
45.440       483
45.460       510
45.480       476
45.500       377
45.520       436
45.540       443
45.560       436
45.580       436
45.600       490
45.620       377
45.640       486
45.660       413
45.680       440
45.700       343
45.720       436
45.740       463
45.760       377
45.780       403
45.800       383
45.820       363
45.840       466
45.860       466
45.880       483
45.900       400
45.920       353
45.940       426
45.960       460
45.980       456
46.000       443
46.020       380
46.040       407
46.060       397
46.080       466
46.100       456
46.120       390
46.140       417
46.160       413
46.180       387
46.200       433
46.220       383
46.240       473
46.260       446
46.280       410
46.300       470
46.320       387
46.340       420
46.360       407
46.380       407
46.400       456
46.420       403
46.440       433
46.460       423
46.480       500
46.500       380
46.520       476
46.540       483
46.560       370
46.580       397
46.600       443
46.620       473
46.640       393
46.660       343
46.680       380
46.700       390
46.720       413
46.740       423
46.760       413
46.780       387
46.800       426
46.820       340
46.840       373
46.860       380
46.880       446
46.900       373
46.920       420
46.940       337
46.960       387
46.980       393
47.000       413
47.020       283
47.040       426
47.060       403
47.080       380
47.100       397
47.120       397
47.140       400
47.160       443
47.180       420
47.200       450
47.220       363
47.240       403
47.260       423
47.280       360
47.300       390
47.320       317
47.340       430
47.360       360
47.380       380
47.400       400
47.420       390
47.440       430
47.460       340
47.480       373
47.500       387
47.520       367
47.540       363
47.560       393
47.580       390
47.600       400
47.620       397
47.640       403
47.660       383
47.680       417
47.700       397
47.720       370
47.740       410
47.760       380
47.780       393
47.800       343
47.820       383
47.840       400
47.860       440
47.880       360
47.900       377
47.920       300
47.940       343
47.960       363
47.980       387
48.000       380
48.020       350
48.040       323
48.060       353
48.080       420
48.100       370
48.120       417
48.140       470
48.160       450
48.180       403
48.200       400
48.220       380
48.240       430
48.260       496
48.280       483
48.300       400
48.320       420
48.340       343
48.360       363
48.380       370
48.400       340
48.420       353
48.440       393
48.460       426
48.480       343
48.500       423
48.520       397
48.540       350
48.560       333
48.580       367
48.600       380
48.620       367
48.640       403
48.660       383
48.680       423
48.700       380
48.720       347
48.740       363
48.760       343
48.780       317
48.800       350
48.820       273
48.840       370
48.860       360
48.880       350
48.900       433
48.920       380
48.940       303
48.960       383
48.980       333
49.000       387
49.020       310
49.040       397
49.060       370
49.080       360
49.100       393
49.120       327
49.140       330
49.160       317
49.180       353
49.200       360
49.220       387
49.240       377
49.260       410
49.280       377
49.300       360
49.320       430
49.340       363
49.360       340
49.380       347
49.400       397
49.420       317
49.440       377
49.460       433
49.480       350
49.500       320
49.520       350
49.540       340
49.560       343
49.580       393
49.600       360
49.620       357
49.640       370
49.660       320
49.680       333
49.700       410
49.720       337
49.740       317
49.760       330
49.780       347
49.800       343
49.820       297
49.840       317
49.860       387
49.880       300
49.900       430
49.920       287
49.940       407
49.960       320
49.980       343
50.000       327
50.020       320
50.040       353
50.060       323
50.080       363
50.100       340
50.120       307
50.140       360
50.160       303
50.180       317
50.200       397
50.220       373
50.240       317
50.260       390
50.280       340
50.300       323
50.320       340
50.340       343
50.360       347
50.380       383
50.400       377
50.420       340
50.440       283
50.460       320
50.480       310
50.500       313
50.520       357
50.540       343
50.560       320
50.580       317
50.600       327
50.620       323
50.640       340
50.660       317
50.680       287
50.700       307
50.720       310
50.740       340
50.760       363
50.780       330
50.800       333
50.820       340
50.840       323
50.860       330
50.880       280
50.900       360
50.920       373
50.940       297
50.960       257
50.980       290
51.000       330
51.020       337
51.040       370
51.060       380
51.080       357
51.100       310
51.120       303
51.140       327
51.160       340
51.180       280
51.200       353
51.220       350
51.240       310
51.260       327
51.280       387
51.300       320
51.320       333
51.340       313
51.360       343
51.380       353
51.400       350
51.420       363
51.440       310
51.460       303
51.480       313
51.500       380
51.520       333
51.540       353
51.560       310
51.580       367
51.600       323
51.620       397
51.640       287
51.660       273
51.680       323
51.700       337
51.720       317
51.740       290
51.760       300
51.780       360
51.800       363
51.820       337
51.840       310
51.860       333
51.880       277
51.900       260
51.920       300
51.940       300
51.960       320
51.980       330
52.000       320
52.020       347
52.040       333
52.060       327
52.080       313
52.100       293
52.120       333
52.140       377
52.160       337
52.180       367
52.200       280
52.220       353
52.240       320
52.260       347
52.280       250
52.300       340
52.320       290
52.340       367
52.360       290
52.380       367
52.400       327
52.420       303
52.440       323
52.460       313
52.480       293
52.500       330
52.520       313
52.540       310
52.560       330
52.580       347
52.600       353
52.620       267
52.640       310
52.660       330
52.680       310
52.700       343
52.720       387
52.740       293
52.760       363
52.780       340
52.800       273
52.820       303
52.840       353
52.860       357
52.880       300
52.900       330
52.920       330
52.940       270
52.960       350
52.980       363
53.000       420
53.020       303
53.040       327
53.060       347
53.080       353
53.100       310
53.120       287
53.140       340
53.160       317
53.180       340
53.200       323
53.220       323
53.240       333
53.260       333
53.280       317
53.300       357
53.320       353
53.340       320
53.360       340
53.380       373
53.400       363
53.420       323
53.440       323
53.460       257
53.480       343
53.500       293
53.520       297
53.540       343
53.560       357
53.580       327
53.600       377
53.620       310
53.640       290
53.660       370
53.680       270
53.700       363
53.720       317
53.740       313
53.760       350
53.780       380
53.800       297
53.820       307
53.840       317
53.860       280
53.880       360
53.900       343
53.920       337
53.940       320
53.960       350
53.980       360
54.000       313
54.020       317
54.040       370
54.060       363
54.080       357
54.100       363
54.120       313
54.140       357
54.160       390
54.180       423
54.200       360
54.220       420
54.240       476
54.260       453
54.280       433
54.300       516
54.320       526
54.340       613
54.360       693
54.380       686
54.400       786
54.420       806
54.440      1076
54.460      1123
54.480      1180
54.500      1306
54.520      1533
54.540      1666
54.560      1753
54.580      1743
54.600      1923
54.620      2019
54.640      1819
54.660      2059
54.680      1923
54.700      1676
54.720      1683
54.740      1666
54.760      1519
54.780      1553
54.800      1323
54.820      1299
54.840      1056
54.860      1003
54.880       920
54.900       796
54.920       786
54.940       646
54.960       496
54.980       573
55.000       453
55.020       440
55.040       380
55.060       350
55.080       320
55.100       440
55.120       327
55.140       353
55.160       350
55.180       313
55.200       360
55.220       297
55.240       347
55.260       350
55.280       390
55.300       260
55.320       330
55.340       383
55.360       343
55.380       350
55.400       387
55.420       400
55.440       347
55.460       313
55.480       370
55.500       293
55.520       303
55.540       370
55.560       340
55.580       293
55.600       310
55.620       297
55.640       297
55.660       283
55.680       280
55.700       347
55.720       320
55.740       313
55.760       327
55.780       353
55.800       323
55.820       297
55.840       303
55.860       293
55.880       313
55.900       343
55.920       323
55.940       297
55.960       290
55.980       263
56.000       330
56.020       303
56.040       313
56.060       327
56.080       310
56.100       310
56.120       303
56.140       247
56.160       300
56.180       350
56.200       323
56.220       363
56.240       320
56.260       330
56.280       363
56.300       273
56.320       320
56.340       310
56.360       310
56.380       353
56.400       293
56.420       307
56.440       313
56.460       303
56.480       340
56.500       337
56.520       367
56.540       363
56.560       320
56.580       313
56.600       373
56.620       303
56.640       313
56.660       290
56.680       320
56.700       307
56.720       320
56.740       297
56.760       363
56.780       300
56.800       367
56.820       283
56.840       343
56.860       353
56.880       330
56.900       253
56.920       270
56.940       270
56.960       323
56.980       363
57.000       330
57.020       303
57.040       347
57.060       367
57.080       360
57.100       330
57.120       257
57.140       357
57.160       273
57.180       310
57.200       293
57.220       360
57.240       363
57.260       290
57.280       290
57.300       353
57.320       327
57.340       287
57.360       277
57.380       313
57.400       260
57.420       323
57.440       297
57.460       287
57.480       267
57.500       310
57.520       283
57.540       330
57.560       273
57.580       330
57.600       283
57.620       293
57.640       347
57.660       290
57.680       240
57.700       220
57.720       303
57.740       293
57.760       327
57.780       297
57.800       313
57.820       317
57.840       313
57.860       357
57.880       280
57.900       297
57.920       310
57.940       313
57.960       257
57.980       323
58.000       257
58.020       253
58.040       353
58.060       327
58.080       270
58.100       287
58.120       300
58.140       313
58.160       293
58.180       257
58.200       377
58.220       327
58.240       313
58.260       270
58.280       307
58.300       327
58.320       300
58.340       303
58.360       273
58.380       237
58.400       270
58.420       297
58.440       250
58.460       303
58.480       287
58.500       303
58.520       330
58.540       333
58.560       343
58.580       353
58.600       217
58.620       297
58.640       360
58.660       257
58.680       293
58.700       293
58.720       300
58.740       310
58.760       277
58.780       307
58.800       307
58.820       293
58.840       273
58.860       290
58.880       300
58.900       330
58.920       283
58.940       283
58.960       250
58.980       313
59.000       297
59.020       253
59.040       227
59.060       303
59.080       267
59.100       277
59.120       317
59.140       290
59.160       267
59.180       290
59.200       310
59.220       287
59.240       350
59.260       273
59.280       273
59.300       273
59.320       247
59.340       230
59.360       307
59.380       293
59.400       233
59.420       247
59.440       307
59.460       297
59.480       267
59.500       270
59.520       227
59.540       253
59.560       293
59.580       237
59.600       337
59.620       283
59.640       330
59.660       280
59.680       343
59.700       303
59.720       260
59.740       297
59.760       290
59.780       273
59.800       323
59.820       210
59.840       277
59.860       337
59.880       267
59.900       233
59.920       273
59.940       260
59.960       267
59.980       247
60.000       300
60.020       283
60.040       250
60.060       277
60.080       247
60.100       290
60.120       293
60.140       310
60.160       290
60.180       267
60.200       303
60.220       240
60.240       267
60.260       220
60.280       320
60.300       350
60.320       263
60.340       260
60.360       333
60.380       327
60.400       310
60.420       280
60.440       243
60.460       333
60.480       273
60.500       290
60.520       283
60.540       383
60.560       317
60.580       310
60.600       220
60.620       323
60.640       313
60.660       293
60.680       303
60.700       300
60.720       307
60.740       273
60.760       260
60.780       260
60.800       257
60.820       260
60.840       307
60.860       280
60.880       303
60.900       280
60.920       273
60.940       267
60.960       247
60.980       277
61.000       310
61.020       263
61.040       290
61.060       293
61.080       263
61.100       247
61.120       277
61.140       293
61.160       303
61.180       260
61.200       290
61.220       307
61.240       270
61.260       317
61.280       320
61.300       297
61.320       300
61.340       257
61.360       297
61.380       323
61.400       297
61.420       287
61.440       273
61.460       313
61.480       280
61.500       323
61.520       313
61.540       260
61.560       303
61.580       220
61.600       277
61.620       300
61.640       337
61.660       263
61.680       250
61.700       257
61.720       310
61.740       247
61.760       323
61.780       293
61.800       240
61.820       287
61.840       270
61.860       277
61.880       340
61.900       310
61.920       253
61.940       277
61.960       223
61.980       253
62.000       257
62.020       260
62.040       297
62.060       270
62.080       287
62.100       293
62.120       253
62.140       273
62.160       300
62.180       340
62.200       257
62.220       237
62.240       247
62.260       270
62.280       257
62.300       280
62.320       233
62.340       283
62.360       333
62.380       277
62.400       293
62.420       213
62.440       287
62.460       233
62.480       270
62.500       203
62.520       263
62.540       253
62.560       273
62.580       283
62.600       253
62.620       290
62.640       243
62.660       260
62.680       243
62.700       237
62.720       213
62.740       307
62.760       250
62.780       263
62.800       267
62.820       270
62.840       263
62.860       263
62.880       333
62.900       203
62.920       253
62.940       267
62.960       290
62.980       310
63.000       227
63.020       293
63.040       260
63.060       300
63.080       290
63.100       237
63.120       270
63.140       263
63.160       273
63.180       250
63.200       223
63.220       297
63.240       237
63.260       290
63.280       250
63.300       233
63.320       267
63.340       290
63.360       280
63.380       253
63.400       330
63.420       260
63.440       327
63.460       200
63.480       280
63.500       327
63.520       250
63.540       190
63.560       337
63.580       237
63.600       270
63.620       300
63.640       230
63.660       280
63.680       233
63.700       267
63.720       230
63.740       280
63.760       277
63.780       350
63.800       253
63.820       250
63.840       253
63.860       260
63.880       267
63.900       207
63.920       253
63.940       243
63.960       283
63.980       297
64.000       290
64.020       327
64.040       247
64.060       253
64.080       290
64.100       303
64.120       290
64.140       323
64.160       263
64.180       260
64.200       317
64.220       277
64.240       277
64.260       300
64.280       237
64.300       260
64.320       313
64.340       243
64.360       263
64.380       257
64.400       320
64.420       277
64.440       253
64.460       290
64.480       200
64.500       270
64.520       247
64.540       323
64.560       227
64.580       253
64.600       230
64.620       230
64.640       223
64.660       217
64.680       217
64.700       260
64.720       250
64.740       270
64.760       283
64.780       233
64.800       233
64.820       223
64.840       263
64.860       263
64.880       247
64.900       233
64.920       260
64.940       257
64.960       247
64.980       263
65.000       243
65.020       247
65.040       243
65.060       243
65.080       247
65.100       203
65.120       260
65.140       270
65.160       273
65.180       263
65.200       230
65.220       267
65.240       243
65.260       287
65.280       300
65.300       267
65.320       283
65.340       270
65.360       240
65.380       273
65.400       257
65.420       233
65.440       237
65.460       227
65.480       197
65.500       287
65.520       237
65.540       267
65.560       270
65.580       220
65.600       303
65.620       257
65.640       283
65.660       260
65.680       260
65.700       230
65.720       237
65.740       273
65.760       240
65.780       263
65.800       217
65.820       247
65.840       227
65.860       230
65.880       337
65.900       223
65.920       243
65.940       253
65.960       223
65.980       210
66.000       237
66.020       227
66.040       247
66.060       203
66.080       200
66.100       283
66.120       253
66.140       267
66.160       280
66.180       233
66.200       247
66.220       293
66.240       243
66.260       237
66.280       253
66.300       233
66.320       187
66.340       283
66.360       243
66.380       243
66.400       233
66.420       177
66.440       263
66.460       247
66.480       317
66.500       273
66.520       260
66.540       257
66.560       307
66.580       273
66.600       303
66.620       253
66.640       240
66.660       290
66.680       330
66.700       260
66.720       260
66.740       250
66.760       267
66.780       260
66.800       287
66.820       287
66.840       250
66.860       287
66.880       347
66.900       333
66.920       293
66.940       367
66.960       370
66.980       407
67.000       353
67.020       440
67.040       610
67.060       710
67.080      1020
67.100      1316
67.120      1739
67.140      1703
67.160      1499
67.180      1196
67.200       750
67.220       566
67.240       486
67.260       350
67.280       403
67.300       367
67.320       343
67.340       303
67.360       343
67.380       290
67.400       297
67.420       320
67.440       260
67.460       307
67.480       300
67.500       310
67.520       293
67.540       237
67.560       237
67.580       273
67.600       217
67.620       267
67.640       283
67.660       303
67.680       237
67.700       287
67.720       313
67.740       253
67.760       223
67.780       290
67.800       263
67.820       287
67.840       300
67.860       203
67.880       280
67.900       303
67.920       220
67.940       260
67.960       263
67.980       253
68.000       233
68.020       287
68.040       280
68.060       273
68.080       270
68.100       267
68.120       287
68.140       273
68.160       267
68.180       280
68.200       320
68.220       273
68.240       233
68.260       303
68.280       277
68.300       310
68.320       293
68.340       287
68.360       340
68.380       273
68.400       350
68.420       310
68.440       280
68.460       313
68.480       280
68.500       337
68.520       303
68.540       233
68.560       247
68.580       290
68.600       243
68.620       223
68.640       243
68.660       233
68.680       280
68.700       267
68.720       263
68.740       240
68.760       203
68.780       247
68.800       263
68.820       263
68.840       230
68.860       243
68.880       280
68.900       267
68.920       233
68.940       263
68.960       273
68.980       190
69.000       240
69.020       207
69.040       193
69.060       253
69.080       223
69.100       243
69.120       223
69.140       253
69.160       227
69.180       227
69.200       263
69.220       217
69.240       257
69.260       190
69.280       263
69.300       243
69.320       213
69.340       267
69.360       223
69.380       283
69.400       237
69.420       223
69.440       180
69.460       223
69.480       210
69.500       223
69.520       240
69.540       230
69.560       210
69.580       250
69.600       220
69.620       213
69.640       240
69.660       187
69.680       217
69.700       253
69.720       297
69.740       237
69.760       187
69.780       240
69.800       223
69.820       257
69.840       227
69.860       300
69.880       227
69.900       213
69.920       253
69.940       227
69.960       277
69.980       267
70.000       273
70.020       160
70.040       240
70.060       243
70.080       200
70.100       230
70.120       203
70.140       280
70.160       230
70.180       237
70.200       253
70.220       197
70.240       217
70.260       260
70.280       290
70.300       253
70.320       237
70.340       213
70.360       240
70.380       177
70.400       233
70.420       230
70.440       203
70.460       287
70.480       287
70.500       227
70.520       247
70.540       207
70.560       247
70.580       253
70.600       227
70.620       233
70.640       217
70.660       227
70.680       187
70.700       210
70.720       197
70.740       240
70.760       277
70.780       233
70.800       207
70.820       237
70.840       187
70.860       197
70.880       240
70.900       217
70.920       247
70.940       263
70.960       230
70.980       243
71.000       227
71.020       207
71.040       253
71.060       250
71.080       227
71.100       227
71.120       220
71.140       297
71.160       203
71.180       223
71.200       300
71.220       240
71.240       190
71.260       200
71.280       200
71.300       283
71.320       230
71.340       230
71.360       237
71.380       223
71.400       267
71.420       250
71.440       227
71.460       260
71.480       250
71.500       207
71.520       230
71.540       257
71.560       223
71.580       233
71.600       230
71.620       247
71.640       273
71.660       220
71.680       223
71.700       227
71.720       227
71.740       257
71.760       243
71.780       213
71.800       180
71.820       317
71.840       180
71.860       227
71.880       240
71.900       207
71.920       250
71.940       207
71.960       220
71.980       250
72.000       257
72.020       237
72.040       263
72.060       227
72.080       297
72.100       230
72.120       270
72.140       197
72.160       227
72.180       250
72.200       263
72.220       217
72.240       177
72.260       243
72.280       230
72.300       207
72.320       237
72.340       190
72.360       227
72.380       290
72.400       220
72.420       320
72.440       253
72.460       433
72.480       456
72.500       523
72.520       526
72.540       476
72.560       466
72.580       510
72.600       540
72.620       520
72.640       500
72.660       450
72.680       520
72.700       463
72.720       453
72.740       476
72.760       533
72.780       530
72.800       473
72.820       420
72.840       523
72.860       493
72.880       456
72.900       500
72.920       496
72.940       473
72.960       436
72.980       493
73.000       456
73.020       490
73.040       506
73.060       426
73.080       473
73.100       476
73.120       450
73.140       503
73.160       493
73.180       520
73.200       496
73.220       413
73.240       493
73.260       490
73.280       480
73.300       500
73.320       476
73.340       493
73.360       433
73.380       440
73.400       476
73.420       450
73.440       480
73.460       500
73.480       520
73.500       496
73.520       486
73.540       473
73.560       413
73.580       463
73.600       476
73.620       420
73.640       496
73.660       417
73.680       510
73.700       446
73.720       420
73.740       493
73.760       486
73.780       450
73.800       490
73.820       423
73.840       500
73.860       533
73.880       393
73.900       410
73.920       440
73.940       466
73.960       483
73.980       566
74.000       440
74.020       443
74.040       493
74.060       470
74.080       583
74.100       530
74.120       493
74.140       450
74.160       563
74.180       496
74.200       526
74.220       566
74.240       516
74.260       563
74.280       456
74.300       536
74.320       496
74.340       540
74.360       563
74.380       453
74.400       503
74.420       496
74.440       523
74.460       523
74.480       550
74.500       556
74.520       590
74.540       630
74.560       563
74.580       516
74.600       590
74.620       653
74.640       633
74.660       690
74.680       720
74.700       600
74.720       800
74.740       720
74.760       710
74.780       800
74.800       760
74.820       810
74.840       940
74.860       920
74.880       890
74.900       883
74.920      1060
74.940      1233
74.960      1473
74.980      1639
75.000      1939
75.020      2139
75.040      2256
75.060      2476
75.080      2716
75.100      2876
75.120      2929
75.140      3129
75.160      3652
75.180      4238
75.200      4938
75.220      6307
75.240      7320
75.260      8413
75.280      9833
75.300     11645
75.320     14018
75.340     18693
75.360     30454
75.380     59373
75.400    109963
75.420    150133
75.440    161152
75.460    139368
75.480     94542
75.500     56361
75.520     33687
75.540     24657
75.560     21788
75.580     25353
75.600     37268
75.620     60529
75.640     81021
75.660     89151
75.680     77809
75.700     53425
75.720     31821
75.740     17880
75.760     11615
75.780      8737
75.800      6894
75.820      5131
75.840      4078
75.860      3142
75.880      2369
75.900      2239
75.920      1906
75.940      1666
75.960      1529
75.980      1456
76.000      1403
76.020      1223
76.040      1090
76.060      1143
76.080       996
76.100      1106
76.120       930
76.140      1006
76.160       896
76.180       916
76.200       850
76.220       773
76.240       856
76.260       776
76.280       733
76.300       650
76.320       673
76.340       746
76.360       633
76.380       743
76.400       683
76.420       646
76.440       676
76.460       616
76.480       643
76.500       583
76.520       590
76.540       556
76.560       613
76.580       563
76.600       493
76.620       536
76.640       543
76.660       610
76.680       450
76.700       580
76.720       496
76.740       593
76.760       570
76.780       490
76.800       490
76.820       466
76.840       446
76.860       463
76.880       466
76.900       473
76.920       466
76.940       556
76.960       480
76.980       536
77.000       436
77.020       500
77.040       433
77.060       543
77.080       483
77.100       466
77.120       430
77.140       443
77.160       530
77.180       390
77.200       480
77.220       480
77.240       423
77.260       466
77.280       393
77.300       440
77.320       473
77.340       410
77.360       400
77.380       400
77.400       463
77.420       436
77.440       373
77.460       370
77.480       380
77.500       470
77.520       387
77.540       400
77.560       387
77.580       433
77.600       380
77.620       410
77.640       343
77.660       420
77.680       367
77.700       400
77.720       353
77.740       417
77.760       340
77.780       413
77.800       413
77.820       290
77.840       337
77.860       393
77.880       403
77.900       350
77.920       363
77.940       290
77.960       420
77.980       387
78.000       360
78.020       407
78.040       360
78.060       350
78.080       350
78.100       327
78.120       350
78.140       423
78.160       440
78.180       293
78.200       407
78.220       423
78.240       340
78.260       390
78.280       370
78.300       370
78.320       370
78.340       363
78.360       357
78.380       337
78.400       330
78.420       426
78.440       380
78.460       303
78.480       323
78.500       350
78.520       370
78.540       363
78.560       383
78.580       363
78.600       350
78.620       403
78.640       403
78.660       360
78.680       380
78.700       297
78.720       283
78.740       453
78.760       317
78.780       360
78.800       390
78.820       277
78.840       340
78.860       360
78.880       297
78.900       370
78.920       353
78.940       363
78.960       370
78.980       347
79.000       373
79.020       310
79.040       307
79.060       303
79.080       350
79.100       347
79.120       357
79.140       303
79.160       243
79.180       337
79.200       327
79.220       337
79.240       343
79.260       313
79.280       323
79.300       350
79.320       327
79.340       347
79.360       340
79.380       357
79.400       353
79.420       350
79.440       283
79.460       397
79.480       320
79.500       330
79.520       343
79.540       297
79.560       333
79.580       297
79.600       343
79.620       310
79.640       337
79.660       290
79.680       320
79.700       360
79.720       387
79.740       307
79.760       353
79.780       317
79.800       290
79.820       353
79.840       290
79.860       290
79.880       237
79.900       333
79.920       350
79.940       333
79.960       337
79.980       283
80.000       353
