20.000         0
20.020         0
20.040         0
20.060         0
20.080         0
20.100         0
20.120         0
20.140         0
20.160         0
20.180         0
20.200         0
20.220         0
20.240         3
20.260         0
20.280         0
20.300        83
20.320       200
20.340       220
20.360       177
20.380       187
20.400       227
20.420       150
20.440       210
20.460       183
20.480       143
20.500       163
20.520       183
20.540       197
20.560       150
20.580       200
20.600       180
20.620       173
20.640       170
20.660       173
20.680       163
20.700       160
20.720       133
20.740       153
20.760       173
20.780       177
20.800       143
20.820       160
20.840       177
20.860       183
20.880       167
20.900       170
20.920       200
20.940       193
20.960       177
20.980       170
21.000       190
21.020       167
21.040       230
21.060       210
21.080       233
21.100       177
21.120       200
21.140       200
21.160       203
21.180       200
21.200       220
21.220       240
21.240       130
21.260       133
21.280       190
21.300       200
21.320       133
21.340       210
21.360       190
21.380       143
21.400       230
21.420       170
21.440       220
21.460       190
21.480       227
21.500       190
21.520       180
21.540       170
21.560       213
21.580       217
21.600       207
21.620       187
21.640       163
21.660       160
21.680       240
21.700       213
21.720       227
21.740       220
21.760       220
21.780       207
21.800       250
21.820       160
21.840       210
21.860       187
21.880       223
21.900       263
21.920       210
21.940       200
21.960       243
21.980       217
22.000       227
22.020       243
22.040       210
22.060       183
22.080       210
22.100       263
22.120       210
22.140       253
22.160       180
22.180       250
22.200       237
22.220       213
22.240       250
22.260       210
22.280       177
22.300       240
22.320       280
22.340       210
22.360       257
22.380       220
22.400       260
22.420       263
22.440       227
22.460       197
22.480       277
22.500       203
22.520       250
22.540       227
22.560       207
22.580       203
22.600       230
22.620       273
22.640       227
22.660       253
22.680       217
22.700       220
22.720       290
22.740       290
22.760       290
22.780       237
22.800       303
22.820       317
22.840       280
22.860       300
22.880       313
22.900       343
22.920       310
22.940       307
22.960       300
22.980       373
23.000       303
23.020       290
23.040       287
23.060       320
23.080       453
23.100       626
23.120       583
23.140       613
23.160       526
23.180       373
23.200       377
23.220       353
23.240       320
23.260       320
23.280       313
23.300       253
23.320       320
23.340       377
23.360       353
23.380       327
23.400       370
23.420       313
23.440       320
23.460       320
23.480       337
23.500       330
23.520       323
23.540       377
23.560       363
23.580       350
23.600       337
23.620       277
23.640       300
23.660       363
23.680       300
23.700       357
23.720       273
23.740       297
23.760       373
23.780       340
23.800       247
23.820       357
23.840       283
23.860       270
23.880       283
23.900       293
23.920       390
23.940       323
23.960       240
23.980       350
24.000       310
24.020       350
24.040       300
24.060       353
24.080       370
24.100       337
24.120       293
24.140       383
24.160       287
24.180       277
24.200       327
24.220       327
24.240       350
24.260       400
24.280       327
24.300       340
24.320       320
24.340       287
24.360       317
24.380       420
24.400       390
24.420       353
24.440       363
24.460       400
24.480       300
24.500       323
24.520       357
24.540       323
24.560       323
24.580       330
24.600       373
24.620       300
24.640       383
24.660       367
24.680       300
24.700       320
24.720       337
24.740       417
24.760       456
24.780       380
24.800       440
24.820       430
24.840       393
24.860       450
24.880       400
24.900       506
24.920       410
24.940       383
24.960       460
24.980       353
25.000       387
25.020       463
25.040       317
25.060       363
25.080       426
25.100       363
25.120       443
25.140       373
25.160       480
25.180       430
25.200       413
25.220       390
25.240       397
25.260       420
25.280       430
25.300       426
25.320       426
25.340       456
25.360       470
25.380       523
25.400       503
25.420       676
25.440       820
25.460      1003
25.480      1403
25.500      1596
25.520      1773
25.540      1913
25.560      2826
25.580      7417
25.600     19156
25.620     26476
25.640     28695
25.660     26323
25.680     19266
25.700     15234
25.720     11982
25.740      5988
25.760      2569
25.780      1803
25.800      1596
25.820      1056
25.840       790
25.860       773
25.880       620
25.900       493
25.920       496
25.940       397
25.960       367
25.980       413
26.000       397
26.020       410
26.040       450
26.060       383
26.080       400
26.100       450
26.120       423
26.140       453
26.160       393
26.180       390
26.200       400
26.220       453
26.240       383
26.260       387
26.280       367
26.300       360
26.320       333
26.340       387
26.360       330
26.380       313
26.400       357
26.420       407
26.440       383
26.460       337
26.480       340
26.500       377
26.520       390
26.540       313
26.560       373
26.580       393
26.600       377
26.620       287
26.640       330
26.660       377
26.680       297
26.700       363
26.720       330
26.740       333
26.760       327
26.780       333
26.800       350
26.820       317
26.840       337
26.860       363
26.880       333
26.900       340
26.920       327
26.940       300
26.960       327
26.980       313
27.000       377
27.020       330
27.040       400
27.060       343
27.080       303
27.100       377
27.120       337
27.140       313
27.160       380
27.180       340
27.200       317
27.220       353
27.240       350
27.260       390
27.280       353
27.300       330
27.320       373
27.340       300
27.360       397
27.380       340
27.400       320
27.420       320
27.440       317
27.460       320
27.480       337
27.500       320
27.520       320
27.540       327
27.560       283
27.580       340
27.600       310
27.620       347
27.640       313
27.660       350
27.680       383
27.700       307
27.720       363
27.740       320
27.760       317
27.780       313
27.800       277
27.820       337
27.840       303
27.860       313
27.880       267
27.900       280
27.920       310
27.940       273
27.960       340
27.980       340
28.000       297
28.020       307
28.040       297
28.060       343
28.080       353
28.100       260
28.120       263
28.140       327
28.160       303
28.180       287
28.200       280
28.220       313
28.240       337
28.260       270
28.280       250
28.300       303
28.320       333
28.340       263
28.360       273
28.380       283
28.400       303
28.420       273
28.440       253
28.460       263
28.480       257
28.500       277
28.520       247
28.540       280
28.560       293
28.580       277
28.600       257
28.620       263
28.640       240
28.660       240
28.680       357
28.700       293
28.720       277
28.740       307
28.760       303
28.780       333
28.800       257
28.820       273
28.840       290
28.860       277
28.880       307
28.900       323
28.920       347
28.940       290
28.960       267
28.980       243
29.000       273
29.020       297
29.040       307
29.060       297
29.080       217
29.100       253
29.120       287
29.140       297
29.160       223
29.180       263
29.200       280
29.220       300
29.240       297
29.260       330
29.280       297
29.300       323
29.320       293
29.340       267
29.360       283
29.380       290
29.400       297
29.420       290
29.440       283
29.460       287
29.480       300
29.500       313
29.520       297
29.540       293
29.560       263
29.580       220
29.600       310
29.620       253
29.640       253
29.660       223
29.680       233
29.700       247
29.720       230
29.740       263
29.760       233
29.780       290
29.800       217
29.820       277
29.840       230
29.860       240
29.880       247
29.900       227
29.920       280
29.940       247
29.960       280
29.980       273
30.000       257
30.020       207
30.040       257
30.060       247
30.080       243
30.100       213
30.120       270
30.140       240
30.160       267
30.180       243
30.200       283
30.220       240
30.240       267
30.260       300
30.280       277
30.300       250
30.320       217
30.340       223
30.360       223
30.380       193
30.400       230
30.420       230
30.440       220
30.460       230
30.480       200
30.500       197
30.520       207
30.540       220
30.560       223
30.580       237
30.600       210
30.620       193
30.640       150
30.660       130
30.680       193
30.700       210
30.720       220
30.740       217
30.760       187
30.780       187
30.800       213
30.820       227
30.840       173
30.860       207
30.880       227
30.900       207
30.920       180
30.940       210
30.960       197
30.980       240
31.000       197
31.020       217
31.040       193
31.060       190
31.080       220
31.100       230
31.120       190
31.140       153
31.160       197
31.180       167
31.200       187
31.220       273
31.240       203
31.260       137
31.280       237
31.300       193
31.320       173
31.340       180
31.360       167
31.380       193
31.400       190
31.420       190
31.440       137
31.460       143
31.480       210
31.500       207
31.520       153
31.540       173
31.560       180
31.580       180
31.600       150
31.620       190
31.640       173
31.660       177
31.680       190
31.700       210
31.720       170
31.740       187
31.760       180
31.780       177
31.800       143
31.820       207
31.840       190
31.860       187
31.880       123
31.900       153
31.920       230
31.940       210
31.960       163
31.980       157
32.000       177
32.020       160
32.040       150
32.060       183
32.080       180
32.100       170
32.120       183
32.140       170
32.160       173
32.180       157
32.200       197
32.220       177
32.240       180
32.260       223
32.280       130
32.300       160
32.320       140
32.340       173
32.360       170
32.380       197
32.400       167
32.420       140
32.440       153
32.460       203
32.480       157
32.500       153
32.520       163
32.540       167
32.560       137
32.580       137
32.600       170
32.620       123
32.640       137
32.660       163
32.680       130
32.700       127
32.720       173
32.740       107
32.760       143
32.780       123
32.800       153
32.820       123
32.840       140
32.860       167
32.880       180
32.900       120
32.920       147
32.940       163
32.960       137
32.980       153
33.000       150
33.020       110
33.040       130
33.060       140
33.080       163
33.100       153
33.120       137
33.140       130
33.160       160
33.180       143
33.200       110
33.220       127
33.240       143
33.260       133
33.280       143
33.300       137
33.320       117
33.340       133
33.360       123
33.380       143
33.400       137
33.420       173
33.440       120
33.460       137
33.480       143
33.500       180
33.520       147
33.540        80
33.560       113
33.580       197
33.600       173
33.620       140
33.640       137
33.660       157
33.680       137
33.700       147
33.720        93
33.740        90
33.760       173
33.780       143
33.800        93
33.820       133
33.840       123
33.860       113
33.880       113
33.900       120
33.920       110
33.940       133
33.960       107
33.980       153
34.000       157
34.020       107
34.040       113
34.060       137
34.080       137
34.100       127
34.120       140
34.140       133
34.160       113
34.180        93
34.200       130
34.220       123
34.240       130
34.260       110
34.280       123
34.300       100
34.320       103
34.340       113
34.360       137
34.380       117
34.400       117
34.420       117
34.440       113
34.460       113
34.480       150
34.500       117
34.520       130
34.540        80
34.560        77
34.580        87
34.600       107
34.620       130
34.640       123
34.660       107
34.680       127
34.700       147
34.720        90
34.740       157
34.760        70
34.780        87
34.800       147
34.820       133
34.840        97
34.860       120
34.880       103
34.900       113
34.920        77
34.940       110
34.960       107
34.980        87
35.000       113
35.020       117
35.040       127
35.060       113
35.080        97
35.100       127
35.120       103
35.140       133
35.160       127
35.180       117
35.200       110
35.220       107
35.240        87
35.260       117
35.280        70
35.300       123
35.320        87
35.340       120
35.360       113
35.380        83
35.400       120
35.420       110
35.440       107
35.460        97
35.480       107
35.500        80
35.520       110
35.540        63
35.560       133
35.580       113
35.600        90
35.620       120
35.640       113
35.660       147
35.680        97
35.700       120
35.720        87
35.740        97
35.760        97
35.780       107
35.800       123
35.820        97
35.840       110
35.860       137
35.880        83
35.900        77
35.920        90
35.940       120
35.960       107
35.980       100
36.000       117
36.020        80
36.040        93
36.060        77
36.080        90
36.100        87
36.120        93
36.140       120
36.160        67
36.180       133
36.200       103
36.220        63
36.240       113
36.260       130
36.280        97
36.300       107
36.320       100
36.340        90
36.360       123
36.380       103
36.400        93
36.420        67
36.440       163
36.460       100
36.480        90
36.500        67
36.520       117
36.540        70
36.560        97
36.580       110
36.600        87
36.620       100
36.640        47
36.660       103
36.680       107
36.700        77
36.720       113
36.740       123
36.760        83
36.780        90
36.800        83
36.820       103
36.840        77
36.860        77
36.880       120
36.900       107
36.920       117
36.940       103
36.960       103
36.980       103
37.000        97
37.020       103
37.040        53
37.060        73
37.080        90
37.100        63
37.120       117
37.140        93
37.160       113
37.180        83
37.200       100
37.220        93
37.240       103
37.260        90
37.280       107
37.300        80
37.320        97
37.340        73
37.360       103
37.380        80
37.400        93
37.420        97
37.440       110
37.460       117
37.480        77
37.500        73
37.520       103
37.540       103
37.560        93
37.580       110
37.600        57
37.620        57
37.640        87
37.660        60
37.680        87
37.700        80
37.720        73
37.740        60
37.760       110
37.780        87
37.800        83
37.820       100
37.840       153
37.860       143
37.880       133
37.900       217
37.920       267
37.940       327
37.960       440
37.980       436
38.000       603
38.020       866
38.040       966
38.060      1096
38.080      1233
38.100      1279
38.120      1173
38.140      1113
38.160       990
38.180       840
38.200       710
38.220       500
38.240       417
38.260       317
38.280       270
38.300       223
38.320       137
38.340       163
38.360       123
38.380       110
38.400       103
38.420        87
38.440        90
38.460        70
38.480        83
38.500        60
38.520        67
38.540        63
38.560        70
38.580        97
38.600        90
38.620        70
38.640        80
38.660        70
38.680        50
38.700       130
38.720        70
38.740        77
38.760        67
38.780        77
38.800        77
38.820        67
38.840        90
38.860        53
38.880        87
38.900        50
38.920        97
38.940        90
38.960        90
38.980        67
39.000       133
39.020        60
39.040        77
39.060        97
39.080        80
39.100        80
39.120        97
39.140        70
39.160        63
39.180        70
39.200        93
39.220        80
39.240       100
39.260        80
39.280        87
39.300        90
39.320       120
39.340        73
39.360        57
39.380        53
39.400        87
39.420        80
39.440        60
39.460        93
39.480        77
39.500        70
39.520        63
39.540        77
39.560        73
39.580        73
39.600        90
39.620        73
39.640        73
39.660        67
39.680        77
39.700        53
39.720        97
39.740        83
39.760        70
39.780        57
39.800        80
39.820        90
39.840        67
39.860        73
39.880        83
39.900        87
39.920        63
39.940        77
39.960        70
39.980        67
40.000        90
40.020        50
40.040        67
40.060        63
40.080        53
40.100        67
40.120        63
40.140        70
40.160        97
40.180        73
40.200        77
40.220        63
40.240        80
40.260        67
40.280        77
40.300        60
40.320        73
40.340        60
40.360        53
40.380        57
40.400        53
40.420        53
40.440        73
40.460        83
40.480        63
40.500        50
40.520        83
40.540        57
40.560        57
40.580        73
40.600        73
40.620        67
40.640       107
40.660        67
40.680        73
40.700       103
40.720        57
40.740        80
40.760       100
40.780       117
40.800        73
40.820        90
40.840        83
40.860        97
40.880       117
40.900        70
40.920       120
40.940       130
40.960       157
40.980       120
41.000       160
41.020       213
41.040       197
41.060       273
41.080       260
41.100       407
41.120       360
41.140       463
41.160       500
41.180       533
41.200       616
41.220       683
41.240       673
41.260       776
41.280       690
41.300       593
41.320       516
41.340       453
41.360       327
41.380       290
41.400       277
41.420       160
41.440       193
41.460       133
41.480       133
41.500       113
41.520        73
41.540        90
41.560        60
41.580       100
41.600        67
41.620        67
41.640       117
41.660        70
41.680        97
41.700        77
41.720        80
41.740        47
41.760        77
41.780        57
41.800        77
41.820        60
41.840        47
41.860        37
41.880        77
41.900        60
41.920        70
41.940        80
41.960        57
41.980        40
42.000        63
42.020        97
42.040        73
42.060        47
42.080        83
42.100        63
42.120        57
42.140        73
42.160        67
42.180        63
42.200        73
42.220        90
42.240        50
42.260        53
42.280        47
42.300        63
42.320        80
42.340        93
42.360        63
42.380        77
42.400        73
42.420        70
42.440        47
42.460        53
42.480        70
42.500        60
42.520        60
42.540        80
42.560        77
42.580        40
42.600        83
42.620        77
42.640        67
42.660        40
42.680        67
42.700        57
42.720        63
42.740        57
42.760        47
42.780        77
42.800        73
42.820        60
42.840        57
42.860        90
42.880        73
42.900        47
42.920        73
42.940        40
42.960        80
42.980        67
43.000        47
43.020        70
43.040        80
43.060        67
43.080        43
43.100        53
43.120        27
43.140        87
43.160        73
43.180        63
43.200        57
43.220        57
43.240        70
43.260        60
43.280        33
43.300        40
43.320        80
43.340        90
43.360        67
43.380        80
43.400        47
43.420        43
43.440        77
43.460        63
43.480        53
43.500        70
43.520        53
43.540        43
43.560        50
43.580        40
43.600        50
43.620        50
43.640        80
43.660        40
43.680        80
43.700        50
43.720        70
43.740        87
43.760        53
43.780        80
43.800        93
43.820        63
43.840        40
43.860        50
43.880        80
43.900        57
43.920        60
43.940        43
43.960        50
43.980        90
44.000        43
44.020        57
44.040        87
44.060        77
44.080        47
44.100        77
44.120        53
44.140        87
44.160        67
44.180        47
44.200        73
44.220        40
44.240        57
44.260        50
44.280        47
44.300        53
44.320        80
44.340        67
44.360        57
44.380        47
44.400        63
44.420        37
44.440        53
44.460        60
44.480        57
44.500        67
44.520        87
44.540        47
44.560        70
44.580        73
44.600        53
44.620        63
44.640        77
44.660        70
44.680        60
44.700        40
44.720        83
44.740        33
44.760        67
44.780        53
44.800        77
44.820        73
44.840        53
44.860        80
44.880        73
44.900        87
44.920        73
44.940        47
44.960        37
44.980        50
45.000        40
45.020        83
45.040        47
45.060        50
45.080        67
45.100        40
45.120        60
45.140        60
45.160        63
45.180        47
45.200        53
45.220        63
45.240        47
45.260        60
45.280        83
45.300        67
45.320        63
45.340        30
45.360        30
45.380        63
45.400        77
45.420        50
45.440        60
45.460        57
45.480        77
45.500        63
45.520        40
45.540        47
45.560        70
45.580        90
45.600        47
45.620        67
45.640        43
45.660        50
45.680        40
45.700        70
45.720        60
45.740        63
45.760        47
45.780        63
45.800        60
45.820        53
45.840        60
45.860        50
45.880        63
45.900        50
45.920        70
45.940        63
45.960        53
45.980        67
46.000        70
46.020        80
46.040        50
46.060        67
46.080        63
46.100        77
46.120        57
46.140        60
46.160        77
46.180        63
46.200        73
46.220        47
46.240        90
46.260        60
46.280        57
46.300        80
46.320        53
46.340        63
46.360        63
46.380        70
46.400        40
46.420        50
46.440        83
46.460        50
46.480        57
46.500        50
46.520        80
46.540        57
46.560        90
46.580        50
46.600        93
46.620        33
46.640        77
46.660        70
46.680        67
46.700        70
46.720        47
46.740        67
46.760        50
46.780        70
46.800        67
46.820        93
46.840        93
46.860        87
46.880        87
46.900       100
46.920        97
46.940        87
46.960        77
46.980        97
47.000        83
47.020       130
47.040        87
47.060       113
47.080       160
47.100       107
47.120       153
47.140       167
47.160       237
47.180       556
47.200       686
47.220       820
47.240       690
47.260       556
47.280       360
47.300       203
47.320       203
47.340       173
47.360       117
47.380       103
47.400       123
47.420        77
47.440        90
47.460        93
47.480       100
47.500        90
47.520        97
47.540       103
47.560        83
47.580        67
47.600        90
47.620        60
47.640        87
47.660        73
47.680        57
47.700        77
47.720        40
47.740        70
47.760       100
47.780        70
47.800        83
47.820        73
47.840        73
47.860        77
47.880        57
47.900        37
47.920        57
47.940        67
47.960        53
47.980        77
48.000        63
48.020        63
48.040        63
48.060        83
48.080        73
48.100        43
48.120        70
48.140        40
48.160        83
48.180        70
48.200        57
48.220        70
48.240        90
48.260        70
48.280        63
48.300        90
48.320        67
48.340        77
48.360        67
48.380        70
48.400        50
48.420        83
48.440        70
48.460        67
48.480       103
48.500       110
48.520        53
48.540       113
48.560        57
48.580        83
48.600        50
48.620        53
48.640        37
48.660        73
48.680        63
48.700        73
48.720        63
48.740        47
48.760        77
48.780        70
48.800        50
48.820        53
48.840        40
48.860        83
48.880        50
48.900        60
48.920        80
48.940        40
48.960        83
48.980        63
49.000        97
49.020        77
49.040        70
49.060        63
49.080        87
49.100        63
49.120        50
49.140        43
49.160        60
49.180        60
49.200        60
49.220        87
49.240        73
49.260        60
49.280        67
49.300        43
49.320        50
49.340        57
49.360        67
49.380        60
49.400        70
49.420        90
49.440        53
49.460        67
49.480        57
49.500        53
49.520        33
49.540        70
49.560        73
49.580        53
49.600        80
49.620        50
49.640        67
49.660        53
49.680        60
49.700        60
49.720        63
49.740        33
49.760        70
49.780        43
49.800        50
49.820        77
49.840        83
49.860        47
49.880        43
49.900        37
49.920        50
49.940        90
49.960        57
49.980        60
50.000        83
50.020        60
50.040        60
50.060        43
50.080        60
50.100        73
50.120        40
50.140        80
50.160        47
50.180        53
50.200        57
50.220        63
50.240        83
50.260        67
50.280        53
50.300        70
50.320        67
50.340        87
50.360        70
50.380        40
50.400        57
50.420        63
50.440        63
50.460        77
50.480        63
50.500        70
50.520        67
50.540        60
50.560        40
50.580        70
50.600        50
50.620        77
50.640        87
50.660       120
50.680       117
50.700       110
50.720       163
50.740       160
50.760       207
50.780       237
50.800       230
50.820       233
50.840       243
50.860       243
50.880       233
50.900       203
50.920       283
50.940       197
50.960       200
50.980       207
51.000       233
51.020       223
51.040       197
51.060       227
51.080       267
51.100       270
51.120       250
51.140       240
51.160       220
51.180       287
51.200       243
51.220       197
51.240       230
51.260       190
51.280       240
51.300       220
51.320       257
51.340       193
51.360       200
51.380       217
51.400       223
51.420       210
51.440       213
51.460       203
51.480       213
51.500       217
51.520       187
51.540       200
51.560       220
51.580       240
51.600       237
51.620       187
51.640       240
51.660       253
51.680       240
51.700       223
51.720       220
51.740       230
51.760       213
51.780       250
51.800       237
51.820       243
51.840       297
51.860       270
51.880       213
51.900       237
51.920       263
51.940       273
51.960       243
51.980       310
52.000       300
52.020       287
52.040       257
52.060       300
52.080       313
52.100       303
52.120       317
52.140       370
52.160       300
52.180       400
52.200       417
52.220       400
52.240       466
52.260       560
52.280       580
52.300       730
52.320       816
52.340      1093
52.360      1306
52.380      1719
52.400      1993
52.420      2339
52.440      3005
52.460      3525
52.480      4542
52.500      5115
52.520      6687
52.540     11322
52.560     25100
52.580     53479
52.600     78429
52.620     87792
52.640     73194
52.660     43829
52.680     21975
52.700     20518
52.720     32180
52.740     44779
52.760     47834
52.780     39218
52.800     23287
52.820     10269
52.840      5311
52.860      3652
52.880      3052
52.900      2529
52.920      2013
52.940      1536
52.960      1076
52.980       830
53.000       803
53.020       663
53.040       616
53.060       490
53.080       533
53.100       503
53.120       436
53.140       353
53.160       277
53.180       393
53.200       390
53.220       340
53.240       337
53.260       307
53.280       303
53.300       300
53.320       333
53.340       287
53.360       300
53.380       223
53.400       233
53.420       320
53.440       287
53.460       263
53.480       303
53.500       257
53.520       230
53.540       220
53.560       270
53.580       257
53.600       237
53.620       203
53.640       257
53.660       213
53.680       203
53.700       163
53.720       180
53.740       280
53.760       250
53.780       173
53.800       197
53.820       207
53.840       200
53.860       240
53.880       220
53.900       177
53.920       180
53.940       180
53.960       223
53.980       210
54.000       190
54.020       193
54.040       210
54.060       197
54.080       150
54.100       157
54.120       157
54.140       183
54.160       137
54.180       167
54.200       150
54.220       180
54.240       153
54.260       187
54.280       170
54.300       197
54.320       187
54.340       187
54.360       167
54.380       123
54.400       157
54.420       147
54.440       207
54.460       143
54.480       163
54.500       153
54.520       167
54.540       160
54.560       157
54.580       157
54.600       187
54.620       160
54.640       193
54.660       197
54.680       227
54.700       160
54.720       220
54.740       243
54.760       230
54.780       197
54.800       247
54.820       193
54.840       257
54.860       247
54.880       267
54.900       363
54.920       287
54.940       323
54.960       310
54.980       327
55.000       363
55.020       353
55.040       297
55.060       317
55.080       293
55.100       233
55.120       257
55.140       270
55.160       177
55.180       203
55.200       187
55.220       183
55.240       187
55.260       140
55.280       133
55.300       197
55.320       143
55.340       153
55.360       183
55.380       120
55.400       143
55.420       133
55.440       127
55.460       117
55.480       157
55.500       120
55.520       180
55.540       123
55.560       143
55.580       147
55.600       147
55.620        93
55.640       140
55.660       160
55.680       130
55.700       140
55.720       110
55.740        93
55.760       143
55.780       113
55.800       120
55.820       123
55.840       120
55.860       120
55.880       143
55.900       133
55.920       120
55.940       110
55.960       113
55.980       140
56.000       123
56.020       120
56.040       120
56.060       130
56.080       127
56.100       130
56.120       103
56.140       140
56.160       117
56.180        60
56.200        87
56.220       133
56.240       103
56.260       110
56.280       107
56.300       100
56.320       130
56.340       103
56.360        87
56.380       107
56.400       120
56.420       120
56.440        97
56.460        90
56.480       137
56.500       103
56.520       137
56.540       107
56.560       137
56.580       150
56.600       107
56.620       100
56.640       127
56.660       127
56.680        97
56.700       143
56.720        87
56.740        83
56.760        93
56.780       127
56.800       107
56.820       133
56.840       117
56.860       127
56.880       153
56.900       100
56.920       133
56.940       127
56.960       127
56.980       117
57.000       110
57.020       120
57.040       107
57.060       123
57.080       130
57.100       143
57.120       103
57.140        97
57.160        93
57.180       130
57.200        97
57.220       143
57.240       113
57.260        97
57.280       117
57.300       113
57.320       100
57.340       107
57.360       157
57.380        87
57.400        93
57.420        77
57.440       117
57.460        97
57.480       103
57.500        83
57.520        90
57.540        80
57.560        83
57.580        93
57.600       110
57.620        73
57.640        97
57.660       110
57.680        73
57.700       103
57.720       127
57.740       113
57.760       107
57.780        93
57.800       107
57.820       120
57.840       110
57.860       117
57.880        73
57.900       100
57.920       117
57.940        87
57.960        97
57.980        93
58.000       117
58.020       113
58.040       110
58.060        90
58.080        87
58.100        77
58.120        90
58.140        67
58.160        73
58.180        93
58.200       113
58.220        97
58.240       103
58.260        80
58.280        87
58.300        83
58.320        77
58.340       100
58.360        90
58.380        93
58.400       113
58.420       103
58.440       103
58.460       113
58.480        60
58.500        83
58.520        57
58.540        83
58.560        83
58.580       117
58.600       107
58.620        70
58.640        63
58.660        93
58.680        77
58.700        93
58.720        70
58.740        60
58.760        73
58.780       100
58.800        97
58.820        80
58.840        77
58.860        77
58.880       113
58.900       107
58.920       133
58.940        97
58.960       110
58.980       100
59.000        97
59.020        87
59.040       100
59.060       120
59.080        93
59.100        83
59.120        93
59.140        83
59.160        63
59.180        77
59.200        63
59.220        90
59.240        93
59.260        80
59.280        87
59.300        77
59.320        93
59.340        90
59.360       113
59.380        70
59.400       103
59.420        70
59.440        87
59.460        77
59.480        63
59.500        67
59.520        93
59.540        93
59.560        90
59.580        80
59.600        83
59.620        67
59.640        77
59.660        67
59.680        80
59.700        87
59.720        70
59.740        63
59.760        60
59.780        70
59.800       107
59.820        63
59.840        67
59.860        87
59.880        80
59.900       110
59.920        60
59.940        77
59.960       100
59.980        77
60.000       110
