20.000         0
20.020         0
20.040         0
20.060         0
20.080         0
20.100         0
20.120         0
20.140         0
20.160         0
20.180         0
20.200         0
20.220         7
20.240         0
20.260         0
20.280         0
20.300         0
20.320         0
20.340         0
20.360         0
20.380       120
20.400       273
20.420       207
20.440       207
20.460       220
20.480       267
20.500       347
20.520       260
20.540       220
20.560       247
20.580       233
20.600       213
20.620       233
20.640       307
20.660       247
20.680       293
20.700       280
20.720       240
20.740       127
20.760       220
20.780       187
20.800       240
20.820       247
20.840       247
20.860       147
20.880       287
20.900       293
20.920       213
20.940       207
20.960       173
20.980       247
21.000       233
21.020       293
21.040       233
21.060       213
21.080       227
21.100       293
21.120       260
21.140       160
21.160       220
21.180       207
21.200       193
21.220       213
21.240       280
21.260       273
21.280       267
21.300       247
21.320       227
21.340       247
21.360       220
21.380       287
21.400       273
21.420       333
21.440       240
21.460       200
21.480       327
21.500       320
21.520       173
21.540       260
21.560       167
21.580       273
21.600       233
21.620       233
21.640       220
21.660       120
21.680       213
21.700       220
21.720       173
21.740       220
21.760       213
21.780       133
21.800       300
21.820       233
21.840       207
21.860       153
21.880       193
21.900       220
21.920       140
21.940       220
21.960       213
21.980       140
22.000       100
22.020       147
22.040       213
22.060       167
22.080       173
22.100       193
22.120       207
22.140       193
22.160       187
22.180       193
22.200       233
22.220       187
22.240       260
22.260       167
22.280       187
22.300       133
22.320       160
22.340       153
22.360       240
22.380       140
22.400       233
22.420       147
22.440       280
22.460       200
22.480       120
22.500       253
22.520       227
22.540       280
22.560       253
22.580       187
22.600       187
22.620       207
22.640       207
22.660       160
22.680       180
22.700       187
22.720       220
22.740       180
22.760       173
22.780       193
22.800       167
22.820       280
22.840       207
22.860       167
22.880       193
22.900       253
22.920       247
22.940       187
22.960       233
22.980       167
23.000       200
23.020       167
23.040       287
23.060       267
23.080       173
23.100       173
23.120       227
23.140       280
23.160       200
23.180       173
23.200       180
23.220       187
23.240       167
23.260       147
23.280       180
23.300       173
23.320       180
23.340       180
23.360       200
23.380       260
23.400       213
23.420       153
23.440       133
23.460       233
23.480       160
23.500       147
23.520       100
23.540       180
23.560       160
23.580       207
23.600       147
23.620       187
23.640       207
23.660       173
23.680       140
23.700       180
23.720       180
23.740       167
23.760       220
23.780       160
23.800       160
23.820       153
23.840       140
23.860       180
23.880       200
23.900       340
23.920       127
23.940       147
23.960       127
23.980       173
24.000       227
24.020       153
24.040       147
24.060       200
24.080       193
24.100       213
24.120       173
24.140       180
24.160       173
24.180       187
24.200       220
24.220       200
24.240       193
24.260       247
24.280       160
24.300       213
24.320       187
24.340       173
24.360       180
24.380       147
24.400       173
24.420       147
24.440       193
24.460       140
24.480       220
24.500       127
24.520       233
24.540       173
24.560       120
24.580       187
24.600       227
24.620       153
24.640       140
24.660       220
24.680       220
24.700       200
24.720       233
24.740       220
24.760       200
24.780       193
24.800       180
24.820       220
24.840       347
24.860       273
24.880       260
24.900       253
24.920       187
24.940       233
24.960       213
24.980       213
25.000       147
25.020       207
25.040       227
25.060       107
25.080       153
25.100       140
25.120       180
25.140       180
25.160       200
25.180       167
25.200       167
25.220       173
25.240       140
25.260       160
25.280       147
25.300       120
25.320       140
25.340       133
25.360       120
25.380       187
25.400       113
25.420       193
25.440       153
25.460       127
25.480       173
25.500       180
25.520       127
25.540       160
25.560       187
25.580       140
25.600       167
25.620       160
25.640       187
25.660       133
25.680       140
25.700       140
25.720       140
25.740        93
25.760       153
25.780        47
25.800       173
25.820       173
25.840       133
25.860       180
25.880       133
25.900       107
25.920       147
25.940       113
25.960       153
25.980       200
26.000       127
26.020       140
26.040       120
26.060       173
26.080       133
26.100       140
26.120       133
26.140       127
26.160       173
26.180       127
26.200       173
26.220       187
26.240       127
26.260       160
26.280       127
26.300       153
26.320       167
26.340       153
26.360       160
26.380       147
26.400       153
26.420       187
26.440       227
26.460       140
26.480       200
26.500       213
26.520       140
26.540        87
26.560       153
26.580       153
26.600       207
26.620       173
26.640       180
26.660       173
26.680       187
26.700       160
26.720       147
26.740       187
26.760       133
26.780       120
26.800        87
26.820       133
26.840       100
26.860       120
26.880        73
26.900       147
26.920       113
26.940       127
26.960       107
26.980        93
27.000       113
27.020        67
27.040       140
27.060       120
27.080        80
27.100       133
27.120       140
27.140       100
27.160       133
27.180        87
27.200        40
27.220       140
27.240       127
27.260       140
27.280       147
27.300        73
27.320        87
27.340       160
27.360       113
27.380       140
27.400       133
27.420       140
27.440       147
27.460       100
27.480       160
27.500       120
27.520       113
27.540       187
27.560       187
27.580       120
27.600       120
27.620       107
27.640        87
27.660       100
27.680       120
27.700        93
27.720       133
27.740       120
27.760        93
27.780        80
27.800       107
27.820       100
27.840       140
27.860        87
27.880       113
27.900       153
27.920       180
27.940        73
27.960        93
27.980       113
28.000       140
28.020        53
28.040       113
28.060       140
28.080       147
28.100       113
28.120       127
28.140       133
28.160        93
28.180       120
28.200       120
28.220        80
28.240        60
28.260       120
28.280        93
28.300       127
28.320       113
28.340       113
28.360       120
28.380        93
28.400       167
28.420       107
28.440        80
28.460       113
28.480       127
28.500       147
28.520       120
28.540        80
28.560       147
28.580       127
28.600       160
28.620       127
28.640        87
28.660       147
28.680       107
28.700       133
28.720        87
28.740        93
28.760       147
28.780       147
28.800       107
28.820       107
28.840       180
28.860        67
28.880       107
28.900        93
28.920        80
28.940       127
28.960       127
28.980        87
29.000       120
29.020       100
29.040        93
29.060       100
29.080       207
29.100       160
29.120       147
29.140       173
29.160       193
29.180       227
29.200       167
29.220       227
29.240       227
29.260       240
29.280       193
29.300       327
29.320       393
29.340       333
29.360       340
29.380       460
29.400       360
29.420       413
29.440       313
29.460       260
29.480       300
29.500       280
29.520       193
29.540       180
29.560       140
29.580       133
29.600       107
29.620        87
29.640       127
29.660       140
29.680       120
29.700       107
29.720       107
29.740       100
29.760        80
29.780       120
29.800       113
29.820       140
29.840        87
29.860        93
29.880       113
29.900       160
29.920       113
29.940       100
29.960        80
29.980        60
30.000        93
30.020        53
30.040        87
30.060       133
30.080       140
30.100        67
30.120        53
30.140        93
30.160       100
30.180       127
30.200        80
30.220        87
30.240       133
30.260       107
30.280        53
30.300       133
30.320       113
30.340       107
30.360       113
30.380       113
30.400       107
30.420       120
30.440       147
30.460        93
30.480       120
30.500       220
30.520       173
30.540       220
30.560       280
30.580       320
30.600       313
30.620       393
30.640       347
30.660       333
30.680       446
30.700       327
30.720       327
30.740       307
30.760       233
30.780       273
30.800       193
30.820       180
30.840       167
30.860        93
30.880       107
30.900        87
30.920        60
30.940       127
30.960        80
30.980       133
31.000        93
31.020        87
31.040       133
31.060       133
31.080       113
31.100       113
31.120        93
31.140       107
31.160        87
31.180       107
31.200       107
31.220        67
31.240       140
31.260       113
31.280       147
31.300        87
31.320       133
31.340        87
31.360       127
31.380        93
31.400       100
31.420       147
31.440        67
31.460       100
31.480       113
31.500       120
31.520        80
31.540        93
31.560       100
31.580        73
31.600        73
31.620       107
31.640       107
31.660        80
31.680       100
31.700       107
31.720        73
31.740        67
31.760        47
31.780       107
31.800        93
31.820        40
31.840        67
31.860       153
31.880       133
31.900       113
31.920        80
31.940       113
31.960        73
31.980        60
32.000       120
32.020        67
32.040       100
32.060        60
32.080       100
32.100       113
32.120       127
32.140        67
32.160       113
32.180        47
32.200        27
32.220        60
32.240        73
32.260        87
32.280        87
32.300       100
32.320        53
32.340        93
32.360        40
32.380       120
32.400        60
32.420        93
32.440        87
32.460        87
32.480       140
32.500       113
32.520        93
32.540        93
32.560        87
32.580       113
32.600        73
32.620        80
32.640        53
32.660       107
32.680        80
32.700        93
32.720        53
32.740        80
32.760        80
32.780       127
32.800        47
32.820       127
32.840        93
32.860        73
32.880        60
32.900       113
32.920       113
32.940        53
32.960       100
32.980        47
33.000        47
33.020        93
33.040        80
33.060        47
33.080        80
33.100       107
33.120        47
33.140        73
33.160        47
33.180        87
33.200        53
33.220        87
33.240        47
33.260       140
33.280        80
33.300        87
33.320       100
33.340        80
33.360        73
33.380        80
33.400        60
33.420       113
33.440        67
33.460       100
33.480        93
33.500        33
33.520        67
33.540        80
33.560        93
33.580        87
33.600        80
33.620       113
33.640        47
33.660        73
33.680       107
33.700        87
33.720       107
33.740        53
33.760        93
33.780        93
33.800        40
33.820        87
33.840        73
33.860        47
33.880       160
33.900        93
33.920        60
33.940       113
33.960        87
33.980        67
34.000        80
34.020        67
34.040        80
34.060       107
34.080       107
34.100       107
34.120        53
34.140        87
34.160        47
34.180        73
34.200        73
34.220        73
34.240        87
34.260       107
34.280       113
34.300        80
34.320        60
34.340        93
34.360        80
34.380        60
34.400        67
34.420        53
34.440        73
34.460        87
34.480        87
34.500       113
34.520        53
34.540        93
34.560        53
34.580        27
34.600        67
34.620       107
34.640       100
34.660        47
34.680        47
34.700        67
34.720        87
34.740       120
34.760       127
34.780       113
34.800       113
34.820        87
34.840        80
34.860       140
34.880        87
34.900       113
34.920       147
34.940        67
34.960       113
34.980       120
35.000       113
35.020        73
35.040        60
35.060        87
35.080       100
35.100        47
35.120       113
35.140        87
35.160       113
35.180        93
35.200        67
35.220       100
35.240       120
35.260       120
35.280       113
35.300        73
35.320       113
35.340       113
35.360        80
35.380        87
35.400       120
35.420       120
35.440       107
35.460       100
35.480       100
35.500       140
35.520       100
35.540       113
35.560       200
35.580       120
35.600       133
35.620       180
35.640       113
35.660       173
35.680       193
35.700       167
35.720       133
35.740       240
35.760       173
35.780       193
35.800       127
35.820       133
35.840       187
35.860       120
35.880       100
35.900       100
35.920       207
35.940       113
35.960       167
35.980       207
36.000       100
36.020       147
36.040        80
36.060       153
36.080       100
36.100       120
36.120       127
36.140        87
36.160        60
36.180        93
36.200       100
36.220        60
36.240        93
36.260        67
36.280        60
36.300        60
36.320        80
36.340        87
36.360       127
36.380        47
36.400        67
36.420        87
36.440        73
36.460        80
36.480       113
36.500        93
36.520        60
36.540        40
36.560        80
36.580       107
36.600       120
36.620        53
36.640        93
36.660        53
36.680       100
36.700        87
36.720        93
36.740       107
36.760        80
36.780        80
36.800        80
36.820        60
36.840       107
36.860        47
36.880        27
36.900        33
36.920       100
36.940        93
36.960        67
36.980        87
37.000        67
37.020        47
37.040        93
37.060        67
37.080        53
37.100        60
37.120        73
37.140       100
37.160        73
37.180        47
37.200        73
37.220        73
37.240        93
37.260       113
37.280       107
37.300        53
37.320        60
37.340        73
37.360        80
37.380        73
37.400        93
37.420        93
37.440       107
37.460        53
37.480        80
37.500       120
37.520        73
37.540        67
37.560        53
37.580       100
37.600       107
37.620        73
37.640       120
37.660       187
37.680       153
37.700       180
37.720       213
37.740       247
37.760       407
37.780       300
37.800       420
37.820       573
37.840       573
37.860       633
37.880       726
37.900       653
37.920       640
37.940       426
37.960       446
37.980       426
38.000       260
38.020       307
38.040       233
38.060       160
38.080       160
38.100       167
38.120       113
38.140       120
38.160       120
38.180        93
38.200        93
38.220       113
38.240        93
38.260       107
38.280        80
38.300       113
38.320        73
38.340       113
38.360       127
38.380        60
38.400       113
38.420       140
38.440        53
38.460        87
38.480       100
38.500        87
38.520        87
38.540       147
38.560        67
38.580        93
38.600       113
38.620        93
38.640        73
38.660       107
38.680       127
38.700        67
38.720       113
38.740        80
38.760       120
38.780        40
38.800       113
38.820        80
38.840        67
38.860        93
38.880        67
38.900       107
38.920        93
38.940       140
38.960        73
38.980        93
39.000        53
39.020       120
39.040       160
39.060        60
39.080       100
39.100       140
39.120       100
39.140       113
39.160       127
39.180        93
39.200        73
39.220       120
39.240       147
39.260       127
39.280        87
39.300       120
39.320       127
39.340        73
39.360       107
39.380       193
39.400       140
39.420       120
39.440       153
39.460        73
39.480       120
39.500        67
39.520        53
39.540       107
39.560       100
39.580        47
39.600        67
39.620        93
39.640       120
39.660        80
39.680       100
39.700        60
39.720        47
39.740        93
39.760        87
39.780        80
39.800        47
39.820        53
39.840        73
39.860       113
39.880        73
39.900        80
39.920        87
39.940        73
39.960        73
39.980        47
40.000        47
40.020        33
40.040        60
40.060        67
40.080        60
40.100        60
40.120        80
40.140        53
40.160        67
40.180        87
40.200        67
40.220        47
40.240        67
40.260        80
40.280        60
40.300        53
40.320        73
40.340        73
40.360        80
40.380        60
40.400        93
40.420        93
40.440       113
40.460       100
40.480        47
40.500        60
40.520       107
40.540        73
40.560        87
40.580        47
40.600        67
40.620       100
40.640        67
40.660        80
40.680        53
40.700        73
40.720        60
40.740        53
40.760       153
40.780        47
40.800        67
40.820        27
40.840        93
40.860        53
40.880        73
40.900        87
40.920        60
40.940        67
40.960        80
40.980        33
41.000        87
41.020        73
41.040        93
41.060        13
41.080        80
41.100        27
41.120        60
41.140       107
41.160        67
41.180        80
41.200       120
41.220        67
41.240        73
41.260       100
41.280        53
41.300        67
41.320        87
41.340        93
41.360        73
41.380        53
41.400        47
41.420       100
41.440       107
41.460        60
41.480        60
41.500        53
41.520        80
41.540        60
41.560        40
41.580        47
41.600        60
41.620        67
41.640        80
41.660       107
41.680        27
41.700        80
41.720        80
41.740        67
41.760        53
41.780        73
41.800        47
41.820        33
41.840        47
41.860        93
41.880        33
41.900        93
41.920        40
41.940        33
41.960        53
41.980        33
42.000        53
42.020        60
42.040        53
42.060        47
42.080        87
42.100        47
42.120        53
42.140        73
42.160        73
42.180        27
42.200        20
42.220        60
42.240        73
42.260        40
42.280        80
42.300        67
42.320        67
42.340        80
42.360        60
42.380        80
42.400        60
42.420        87
42.440        80
42.460        67
42.480        33
42.500        93
42.520        60
42.540        87
42.560        60
42.580        80
42.600        73
42.620        67
42.640        87
42.660        80
42.680        73
42.700        80
42.720        73
42.740        93
42.760        87
42.780        60
42.800        73
42.820        67
42.840       100
42.860       120
42.880        73
42.900        53
42.920        93
42.940        80
42.960        87
42.980       113
43.000        93
43.020        73
43.040       120
43.060       127
43.080       100
43.100       113
43.120        80
43.140       200
43.160        93
43.180       147
43.200       127
43.220       140
43.240       140
43.260        80
43.280        60
43.300       133
43.320        67
43.340        60
43.360        93
43.380        80
43.400        80
43.420        60
43.440        93
43.460        80
43.480       113
43.500        73
43.520        53
43.540        47
43.560        67
43.580       107
43.600        60
43.620        60
43.640        40
43.660        53
43.680       100
43.700        93
43.720        60
43.740        60
43.760        33
43.780        67
43.800        87
43.820        93
43.840        87
43.860        47
43.880        33
43.900        93
43.920        87
43.940        53
43.960        27
43.980        67
44.000        40
44.020        80
44.040        93
44.060       107
44.080        80
44.100        67
44.120        80
44.140        47
44.160        87
44.180        53
44.200        40
44.220        27
44.240        53
44.260        80
44.280        47
44.300        67
44.320        73
44.340        47
44.360        67
44.380        93
44.400        53
44.420        60
44.440        47
44.460        60
44.480        67
44.500        53
44.520        87
44.540        60
44.560        47
44.580        73
44.600        67
44.620        93
44.640        93
44.660        80
44.680        67
44.700        93
44.720        27
44.740        47
44.760        33
44.780        60
44.800        27
44.820        47
44.840        80
44.860        67
44.880        13
44.900        47
44.920        53
44.940        33
44.960        67
44.980        53
45.000        60
45.020        80
45.040        40
45.060        53
45.080        80
45.100        87
45.120        47
45.140        80
45.160        73
45.180        60
45.200       113
45.220        60
45.240       100
45.260        87
45.280        60
45.300        93
45.320       107
45.340        87
45.360        27
45.380       107
45.400        87
45.420        53
45.440        60
45.460        80
45.480        80
45.500        80
45.520        53
45.540        60
45.560       113
45.580        67
45.600        33
45.620        73
45.640        47
45.660        67
45.680        67
45.700        47
45.720        80
45.740        47
45.760        93
45.780        53
45.800        47
45.820        47
45.840        67
45.860        53
45.880        93
45.900        67
45.920       140
45.940        93
45.960        60
45.980       100
46.000        67
46.020        73
46.040        53
46.060        73
46.080        73
46.100        53
46.120        67
46.140        73
46.160        60
46.180        60
46.200        80
46.220        47
46.240        67
46.260        67
46.280        80
46.300        80
46.320        80
46.340        87
46.360        40
46.380        93
46.400        80
46.420        67
46.440        67
46.460        53
46.480        67
46.500       107
46.520        53
46.540        33
46.560        73
46.580       113
46.600        67
46.620        93
46.640        33
46.660        93
46.680        80
46.700        53
46.720       100
46.740        67
46.760        73
46.780        93
46.800        73
46.820        47
46.840        87
46.860       120
46.880        87
46.900       133
46.920       100
46.940        93
46.960       113
46.980       140
47.000       100
47.020       140
47.040       113
47.060       127
47.080       140
47.100       107
47.120        93
47.140       140
47.160       140
47.180        93
47.200       140
47.220        87
47.240       113
47.260        87
47.280        67
47.300       147
47.320       167
47.340       107
47.360       120
47.380       127
47.400       193
47.420       173
47.440       200
47.460       220
47.480       187
47.500       160
47.520       153
47.540       220
47.560       167
47.580       160
47.600       147
47.620       153
47.640       147
47.660       127
47.680       127
47.700        73
47.720        60
47.740        73
47.760       100
47.780        80
47.800        87
47.820        80
47.840        53
47.860       113
47.880        73
47.900       120
47.920        47
47.940        80
47.960       107
47.980        73
48.000        93
48.020        80
48.040        80
48.060        73
48.080        53
48.100        60
48.120        73
48.140       107
48.160        80
48.180       140
48.200        93
48.220       113
48.240        67
48.260       100
48.280        87
48.300        73
48.320       107
48.340       173
48.360       140
48.380        93
48.400       153
48.420       160
48.440       140
48.460       207
48.480       180
48.500       133
48.520       147
48.540       233
48.560       107
48.580       173
48.600        73
48.620       100
48.640       107
48.660       113
48.680       100
48.700        87
48.720       127
48.740        60
48.760        67
48.780        87
48.800       120
48.820        80
48.840        67
48.860        33
48.880        87
48.900        67
48.920        93
48.940        80
48.960        40
48.980        80
49.000        87
49.020       113
49.040        87
49.060        73
49.080        53
49.100        73
49.120        80
49.140       127
49.160        93
49.180        67
49.200        67
49.220        60
49.240        20
49.260        80
49.280        60
49.300        67
49.320        67
49.340        73
49.360       100
49.380        67
49.400        93
49.420        67
49.440        60
49.460        60
49.480        87
49.500        87
49.520        67
49.540        47
49.560        73
49.580        60
49.600        60
49.620        27
49.640        93
49.660        93
49.680        53
49.700        60
49.720        40
49.740        93
49.760        53
49.780        67
49.800        40
49.820        47
49.840       107
49.860        53
49.880        53
49.900        60
49.920        67
49.940       113
49.960        87
49.980        73
50.000        67
50.020       100
50.040        60
50.060        47
50.080        73
50.100        60
50.120        73
50.140       113
50.160        53
50.180        73
50.200        93
50.220        33
50.240        80
50.260        93
50.280        67
50.300        67
50.320        93
50.340        73
50.360        47
50.380        47
50.400        80
50.420        93
50.440        53
50.460        53
50.480        73
50.500        47
50.520        40
50.540        80
50.560       140
50.580       100
50.600        67
50.620        40
50.640        60
50.660        67
50.680         7
50.700        80
50.720        53
50.740        67
50.760        53
50.780        67
50.800        73
50.820        27
50.840        73
50.860        73
50.880       113
50.900        87
50.920        87
50.940        60
50.960        67
50.980        60
51.000        80
51.020        53
51.040        53
51.060        60
51.080        60
51.100        53
51.120        40
51.140        47
51.160        33
51.180        80
51.200        67
51.220        67
51.240       107
51.260        93
51.280        67
51.300       113
51.320        73
51.340        87
51.360        60
51.380        40
51.400        87
51.420        53
51.440        73
51.460        60
51.480        40
51.500        47
51.520        27
51.540        80
51.560        67
51.580        73
51.600        67
51.620        87
51.640        73
51.660        60
51.680        93
51.700        40
51.720       120
51.740        93
51.760        53
51.780        80
51.800       100
51.820        27
51.840        80
51.860        53
51.880        47
51.900        80
51.920        73
51.940       127
51.960        87
51.980        53
52.000        87
52.020        60
52.040        67
52.060       113
52.080        60
52.100        67
52.120        47
52.140        53
52.160       113
52.180        47
52.200        60
52.220        73
52.240        80
52.260        73
52.280       100
52.300        40
52.320        93
52.340       107
52.360        87
52.380        93
52.400        60
52.420        67
52.440        47
52.460        67
52.480        87
52.500        13
52.520       120
52.540        33
52.560        73
52.580        73
52.600        40
52.620        53
52.640       100
52.660        87
52.680        53
52.700        53
52.720        47
52.740        47
52.760        53
52.780        60
52.800        73
52.820        27
52.840        47
52.860        60
52.880        73
52.900        93
52.920        67
52.940        60
52.960       100
52.980        73
53.000        67
53.020        67
53.040        47
53.060        73
53.080        80
53.100        67
53.120        87
53.140        80
53.160        60
53.180       120
53.200        80
53.220        67
53.240        67
53.260        27
53.280        53
53.300        80
53.320        67
53.340        73
53.360        80
53.380        87
53.400        33
53.420        53
53.440       100
53.460       120
53.480        93
53.500        53
53.520        80
53.540       100
53.560        60
53.580        87
53.600        53
53.620       100
53.640        73
53.660        73
53.680        53
53.700        47
53.720        67
53.740        60
53.760        40
53.780        47
53.800       107
53.820        53
53.840        87
53.860        53
53.880        67
53.900        40
53.920       120
53.940        67
53.960        73
53.980        87
54.000        67
54.020       100
54.040       107
54.060        73
54.080        53
54.100        47
54.120        80
54.140        47
54.160        93
54.180        73
54.200       140
54.220        73
54.240       113
54.260       107
54.280       173
54.300       153
54.320       153
54.340       167
54.360       193
54.380       240
54.400       240
54.420       307
54.440       387
54.460       533
54.480       446
54.500       553
54.520       666
54.540       860
54.560       713
54.580       740
54.600       806
54.620       600
54.640       720
54.660       613
54.680       773
54.700       660
54.720       540
54.740       693
54.760       473
54.780       473
54.800       327
54.820       426
54.840       313
54.860       247
54.880       200
54.900       173
54.920       200
54.940       167
54.960       180
54.980       107
55.000       113
55.020        93
55.040       173
55.060       127
55.080       113
55.100        93
55.120        87
55.140       107
55.160       113
55.180        73
55.200        93
55.220        73
55.240        73
55.260        93
55.280        93
55.300       113
55.320        93
55.340       107
55.360        67
55.380       107
55.400        73
55.420       100
55.440        80
55.460        40
55.480       113
55.500       113
55.520       100
55.540        67
55.560        87
55.580        53
55.600        67
55.620        67
55.640        53
55.660       100
55.680        73
55.700        47
55.720        73
55.740       107
55.760        73
55.780        67
55.800       107
55.820       100
55.840        93
55.860        93
55.880        93
55.900        73
55.920        87
55.940        60
55.960        67
55.980       113
56.000       133
56.020        93
56.040        87
56.060        67
56.080        87
56.100        93
56.120       120
56.140       120
56.160        80
56.180        80
56.200        73
56.220        47
56.240        73
56.260       127
56.280       120
56.300        73
56.320        73
56.340       147
56.360        67
56.380        67
56.400        93
56.420       107
56.440        53
56.460        80
56.480        87
56.500       100
56.520        80
56.540       107
56.560       120
56.580       100
56.600        60
56.620       100
56.640        93
56.660        67
56.680       100
56.700       120
56.720       167
56.740        67
56.760        60
56.780       100
56.800        80
56.820        67
56.840        73
56.860       113
56.880        67
56.900       100
56.920        67
56.940        53
56.960       120
56.980        67
57.000       113
57.020        73
57.040       127
57.060        93
57.080       133
57.100        60
57.120        80
57.140       107
57.160        67
57.180        87
57.200       120
57.220        73
57.240       113
57.260        93
57.280        33
57.300       153
57.320        93
57.340       100
57.360       127
57.380       107
57.400       120
57.420       107
57.440       140
57.460        93
57.480       120
57.500        93
57.520        53
57.540       127
57.560       113
57.580        87
57.600        73
57.620        33
57.640        80
57.660        60
57.680        73
57.700        53
57.720        67
57.740        60
57.760        47
57.780       160
57.800        67
57.820        60
57.840        93
57.860        73
57.880        53
57.900        40
57.920        80
57.940        87
57.960        60
57.980        60
58.000        60
58.020        80
58.040        47
58.060        87
58.080        67
58.100       100
58.120        93
58.140       100
58.160        80
58.180        67
58.200        80
58.220        27
58.240        47
58.260        47
58.280        80
58.300        87
58.320        80
58.340        80
58.360        60
58.380        87
58.400        53
58.420        80
58.440        87
58.460        67
58.480        67
58.500        47
58.520        53
58.540        47
58.560        80
58.580        87
58.600        67
58.620        60
58.640        73
58.660        40
58.680        40
58.700       107
58.720       100
58.740        67
58.760        53
58.780        60
58.800        40
58.820        33
58.840        60
58.860        80
58.880        60
58.900        47
58.920        80
58.940        67
58.960        53
58.980        80
59.000        40
59.020       100
59.040        53
59.060        80
59.080        60
59.100        73
59.120        47
59.140        60
59.160        93
59.180        87
59.200        27
59.220        80
59.240        87
59.260        93
59.280        47
59.300        80
59.320       100
59.340        93
59.360        73
59.380        60
59.400        73
59.420        67
59.440        67
59.460        60
59.480       100
59.500        67
59.520        67
59.540        93
59.560        47
59.580        53
59.600       140
59.620        93
59.640        47
59.660        60
59.680       100
59.700        80
59.720        80
59.740        93
59.760        87
59.780       120
59.800       120
59.820        47
59.840        80
59.860       113
59.880        80
59.900        47
59.920       113
59.940        93
59.960        93
59.980        60
60.000        87
