20.000       217
20.020       220
20.040       223
20.060       233
20.080       217
20.100       217
20.120       257
20.140       247
20.160       237
20.180       220
20.200       203
20.220       220
20.240       233
20.260       200
20.280       247
20.300       207
20.320       213
20.340       250
20.360       247
20.380       260
20.400       217
20.420       237
20.440       213
20.460       260
20.480       230
20.500       177
20.520       220
20.540       237
20.560       253
20.580       240
20.600       220
20.620       240
20.640       200
20.660       253
20.680       230
20.700       193
20.720       190
20.740       240
20.760       250
20.780       267
20.800       220
20.820       260
20.840       253
20.860       207
20.880       250
20.900       227
20.920       217
20.940       257
20.960       260
20.980       243
21.000       250
21.020       193
21.040       227
21.060       217
21.080       257
21.100       233
21.120       260
21.140       237
21.160       290
21.180       200
21.200       267
21.220       243
21.240       267
21.260       237
21.280       233
21.300       290
21.320       237
21.340       227
21.360       233
21.380       230
21.400       183
21.420       187
21.440       207
21.460       223
21.480       197
21.500       177
21.520       203
21.540       223
21.560       183
21.580       193
21.600       207
21.620       217
21.640       210
21.660       253
21.680       203
21.700       227
21.720       223
21.740       210
21.760       230
21.780       203
21.800       183
21.820       257
21.840       187
21.860       237
21.880       210
21.900       213
21.920       143
21.940       247
21.960       183
21.980       260
22.000       193
22.020       207
22.040       190
22.060       237
22.080       187
22.100       190
22.120       170
22.140       177
22.160       210
22.180       183
22.200       160
22.220       217
22.240       163
22.260       183
22.280       200
22.300       223
22.320       163
22.340       230
22.360       200
22.380       237
22.400       217
22.420       203
22.440       200
22.460       183
22.480       193
22.500       203
22.520       197
22.540       167
22.560       253
22.580       223
22.600       163
22.620       213
22.640       150
22.660       193
22.680       207
22.700       173
22.720       160
22.740       163
22.760       193
22.780       167
22.800       213
22.820       190
22.840       213
22.860       190
22.880       207
22.900       197
22.920       203
22.940       207
22.960       240
22.980       203
23.000       197
23.020       150
23.040       220
23.060       203
23.080       160
23.100       180
23.120       170
23.140       197
23.160       180
23.180       147
23.200       170
23.220       167
23.240       167
23.260       187
23.280       170
23.300       193
23.320       200
23.340       163
23.360       170
23.380       193
23.400       210
23.420       180
23.440       213
23.460       213
23.480       157
23.500       187
23.520       243
23.540       163
23.560       167
23.580       187
23.600       210
23.620       190
23.640       183
23.660       190
23.680       170
23.700       187
23.720       167
23.740       163
23.760       157
23.780       143
23.800       187
23.820       197
23.840       170
23.860       170
23.880       180
23.900       160
23.920       157
23.940       173
23.960       163
23.980       230
24.000       193
24.020       167
24.040       170
24.060       200
24.080       233
24.100       177
24.120       220
24.140       200
24.160       187
24.180       190
24.200       130
24.220       193
24.240       167
24.260       113
24.280       210
24.300       223
24.320       183
24.340       197
24.360       170
24.380       170
24.400       160
24.420       200
24.440       187
24.460       157
24.480       180
24.500       227
24.520       190
24.540       223
24.560       190
24.580       213
24.600       183
24.620       177
24.640       177
24.660       170
24.680       223
24.700       233
24.720       197
24.740       197
24.760       223
24.780       200
24.800       173
24.820       213
24.840       217
24.860       193
24.880       200
24.900       170
24.920       187
24.940       193
24.960       157
24.980       180
25.000       167
25.020       127
25.040       160
25.060       163
25.080       177
25.100       140
25.120       167
25.140       223
25.160       150
25.180       133
25.200       120
25.220       167
25.240       183
25.260       170
25.280       153
25.300       180
25.320       147
25.340       183
25.360       137
25.380       167
25.400       130
25.420       110
25.440       130
25.460       130
25.480       183
25.500       137
25.520       130
25.540       127
25.560       173
25.580       127
25.600       167
25.620       123
25.640       117
25.660       183
25.680       153
25.700       147
25.720       143
25.740       110
25.760       123
25.780       177
25.800       130
25.820       143
25.840       163
25.860       163
25.880       120
25.900       163
25.920       140
25.940       127
25.960       173
25.980       113
26.000       157
26.020       103
26.040       160
26.060       133
26.080       137
26.100       113
26.120       160
26.140       133
26.160       137
26.180       120
26.200       180
26.220       137
26.240       153
26.260       110
26.280       153
26.300       160
26.320       127
26.340       147
26.360       133
26.380       127
26.400       167
26.420       133
26.440       133
26.460       123
26.480       110
26.500       130
26.520       133
26.540       107
26.560       137
26.580       123
26.600       143
26.620       150
26.640       160
26.660       117
26.680       117
26.700       163
26.720       113
26.740       150
26.760       120
26.780       150
26.800       137
26.820       123
26.840        97
26.860       100
26.880       133
26.900       140
26.920       137
26.940       147
26.960       153
26.980       133
27.000       120
27.020       123
27.040       133
27.060       143
27.080       110
27.100       123
27.120       113
27.140       113
27.160       143
27.180        93
27.200       117
27.220       117
27.240       130
27.260       103
27.280       130
27.300       147
27.320       103
27.340       120
27.360        90
27.380       120
27.400       133
27.420       107
27.440       117
27.460       117
27.480       130
27.500       160
27.520       127
27.540       117
27.560       107
27.580       123
27.600       127
27.620       110
27.640       130
27.660       137
27.680        93
27.700       123
27.720       133
27.740        97
27.760        93
27.780       113
27.800       147
27.820        90
27.840       113
27.860        77
27.880        87
27.900       113
27.920       153
27.940        90
27.960        97
27.980       120
28.000       140
28.020       120
28.040        80
28.060       103
28.080       113
28.100       133
28.120       133
28.140       127
28.160       127
28.180       137
28.200       113
28.220       117
28.240       110
28.260       117
28.280       137
28.300        90
28.320       127
28.340        70
28.360        77
28.380       113
28.400        77
28.420       160
28.440       140
28.460       103
28.480       117
28.500       167
28.520       130
28.540       130
28.560       123
28.580       107
28.600       110
28.620       137
28.640       103
28.660       120
28.680       127
28.700       147
28.720       140
28.740       163
28.760       113
28.780       173
28.800       120
28.820       137
28.840       163
28.860       157
28.880       153
28.900       190
28.920       160
28.940       147
28.960       197
28.980       197
29.000       200
29.020       223
29.040       230
29.060       277
29.080       240
29.100       230
29.120       260
29.140       257
29.160       310
29.180       287
29.200       273
29.220       353
29.240       297
29.260       367
29.280       230
29.300       267
29.320       220
29.340       257
29.360       207
29.380       227
29.400       223
29.420       193
29.440       167
29.460       127
29.480       123
29.500       130
29.520       117
29.540       137
29.560       100
29.580       127
29.600       103
29.620       110
29.640        97
29.660       123
29.680       137
29.700       117
29.720       100
29.740       110
29.760        73
29.780        87
29.800        83
29.820       113
29.840       117
29.860        70
29.880       127
29.900        87
29.920       107
29.940       110
29.960        70
29.980        63
30.000       103
30.020       117
30.040        90
30.060        97
30.080       110
30.100        73
30.120       123
30.140        93
30.160        70
30.180        93
30.200        77
30.220       110
30.240       100
30.260       123
30.280       123
30.300       107
30.320       123
30.340       110
30.360       133
30.380       130
30.400       117
30.420       137
30.440       170
30.460       157
30.480       173
30.500       207
30.520       220
30.540       290
30.560       260
30.580       403
30.600       397
30.620       350
30.640       380
30.660       433
30.680       430
30.700       340
30.720       280
30.740       307
30.760       297
30.780       170
30.800       167
30.820       193
30.840       170
30.860       163
30.880       143
30.900       117
30.920        97
30.940        97
30.960        87
30.980        80
31.000        97
31.020       110
31.040       117
31.060        93
31.080       120
31.100        57
31.120       100
31.140       117
31.160        77
31.180       107
31.200       110
31.220        90
31.240       120
31.260       107
31.280       123
31.300        87
31.320       107
31.340       113
31.360       153
31.380       117
31.400        97
31.420        87
31.440        90
31.460        90
31.480       130
31.500        67
31.520        60
31.540       117
31.560       100
31.580       107
31.600        97
31.620       120
31.640        97
31.660        80
31.680        90
31.700        93
31.720       103
31.740        97
31.760        83
31.780        87
31.800        87
31.820        80
31.840       100
31.860        90
31.880       100
31.900        97
31.920        73
31.940       113
31.960        93
31.980       107
32.000       100
32.020        87
32.040        83
32.060       150
32.080       100
32.100       100
32.120        80
32.140       100
32.160        93
32.180        87
32.200        93
32.220       113
32.240        90
32.260        77
32.280        93
32.300       113
32.320        77
32.340        83
32.360        87
32.380        70
32.400       100
32.420        93
32.440       103
32.460       100
32.480       110
32.500        83
32.520       107
32.540        67
32.560        80
32.580        73
32.600        57
32.620       117
32.640        80
32.660        87
32.680        77
32.700        53
32.720        70
32.740       113
32.760        80
32.780       117
32.800       123
32.820        90
32.840        83
32.860        83
32.880        63
32.900        83
32.920        70
32.940        93
32.960       113
32.980        77
33.000        97
33.020        80
33.040        73
33.060        73
33.080        77
33.100        60
33.120        80
33.140       103
33.160        73
33.180       110
33.200        97
33.220        60
33.240       117
33.260        63
33.280       107
33.300       103
33.320        87
33.340        43
33.360        80
33.380        93
33.400        93
33.420        93
33.440        90
33.460        93
33.480        77
33.500        50
33.520       113
33.540        87
33.560        67
33.580       123
33.600        60
33.620        73
33.640        90
33.660        77
33.680        80
33.700        77
33.720        50
33.740        63
33.760        93
33.780        83
33.800        83
33.820        97
33.840        47
33.860        73
33.880        60
33.900        90
33.920        73
33.940        87
33.960        90
33.980        73
34.000        83
34.020        43
34.040        30
34.060        90
34.080        93
34.100        93
34.120        97
34.140        83
34.160       103
34.180       100
34.200        80
34.220        80
34.240        97
34.260        77
34.280       100
34.300        83
34.320        93
34.340        67
34.360        70
34.380        67
34.400        93
34.420        57
34.440       100
34.460       100
34.480       100
34.500        83
34.520        77
34.540       110
34.560        73
34.580        43
34.600        90
34.620        80
34.640        87
34.660        63
34.680        83
34.700        73
34.720       133
34.740        67
34.760        87
34.780        47
34.800       100
34.820        90
34.840       100
34.860        90
34.880       107
34.900        90
34.920       103
34.940        83
34.960        83
34.980        97
35.000       113
35.020       107
35.040       103
35.060       117
35.080        87
35.100        77
35.120        93
35.140        87
35.160       100
35.180        67
35.200       107
35.220        90
35.240        93
35.260       127
35.280       100
35.300       147
35.320        90
35.340       103
35.360       150
35.380       120
35.400        73
35.420       103
35.440       143
35.460       163
35.480       140
35.500       140
35.520       153
35.540       163
35.560       140
35.580       267
35.600       320
35.620       387
35.640       353
35.660       327
35.680       260
35.700       257
35.720       267
35.740       260
35.760       237
35.780       213
35.800       167
35.820       147
35.840       153
35.860       153
35.880       123
35.900       120
35.920       103
35.940       157
35.960        97
35.980       127
36.000       150
36.020       133
36.040        93
36.060        67
36.080       110
36.100       103
36.120       100
36.140        90
36.160       107
36.180        93
36.200        77
36.220        77
36.240       107
36.260        97
36.280        73
36.300        97
36.320        87
36.340       110
36.360        87
36.380       113
36.400        87
36.420        80
36.440        83
36.460        83
36.480        67
36.500        87
36.520        87
36.540        73
36.560        47
36.580        83
36.600       110
36.620        77
36.640        70
36.660        83
36.680        60
36.700        97
36.720        67
36.740        60
36.760        90
36.780        80
36.800        87
36.820        63
36.840        83
36.860        63
36.880       100
36.900        90
36.920        67
36.940        50
36.960        63
36.980        97
37.000        67
37.020        77
37.040        60
37.060        70
37.080        67
37.100        83
37.120       110
37.140       100
37.160        53
37.180        77
37.200        87
37.220        90
37.240        93
37.260       100
37.280       110
37.300        67
37.320       103
37.340        80
37.360        73
37.380        67
37.400       100
37.420        97
37.440       143
37.460       107
37.480       100
37.500        87
37.520        97
37.540        93
37.560       103
37.580       123
37.600       117
37.620       103
37.640       103
37.660       150
37.680       163
37.700       193
37.720       237
37.740       340
37.760       330
37.780       463
37.800       563
37.820       636
37.840       740
37.860       700
37.880       676
37.900       590
37.920       566
37.940       476
37.960       377
37.980       357
38.000       297
38.020       233
38.040       193
38.060       147
38.080       117
38.100       160
38.120       173
38.140       100
38.160       110
38.180        93
38.200       133
38.220       120
38.240       117
38.260        97
38.280       100
38.300       127
38.320       107
38.340       123
38.360        87
38.380       100
38.400        70
38.420       117
38.440        90
38.460        87
38.480       100
38.500        80
38.520        80
38.540       127
38.560       100
38.580       113
38.600        97
38.620        83
38.640        83
38.660        63
38.680       120
38.700       120
38.720        83
38.740        63
38.760        77
38.780        83
38.800        77
38.820       113
38.840       130
38.860        90
38.880        60
38.900        93
38.920       113
38.940       153
38.960       113
38.980       117
39.000       130
39.020        93
39.040        90
39.060       137
39.080       150
39.100       143
39.120       153
39.140       150
39.160       163
39.180       123
39.200       127
39.220       123
39.240       147
39.260       143
39.280       143
39.300       147
39.320       157
39.340       137
39.360       120
39.380       110
39.400       133
39.420        97
39.440        90
39.460       100
39.480        73
39.500       113
39.520        80
39.540        77
39.560        67
39.580        70
39.600        67
39.620        73
39.640        73
39.660        93
39.680        70
39.700        80
39.720        67
39.740        57
39.760        93
39.780        60
39.800       103
39.820        73
39.840        63
39.860        63
39.880        77
39.900        70
39.920        83
39.940        63
39.960        77
39.980       100
40.000        70
40.020        47
40.040        47
40.060        77
40.080        83
40.100        70
40.120        97
40.140        67
40.160        83
40.180        50
40.200        83
40.220        83
40.240        70
40.260       103
40.280        77
40.300        83
40.320        60
40.340        67
40.360        73
40.380        80
40.400        93
40.420        87
40.440        93
40.460        70
40.480        97
40.500       107
40.520        57
40.540        40
40.560        73
40.580        93
40.600        77
40.620        87
40.640        60
40.660        80
40.680        67
40.700        90
40.720       117
40.740        63
40.760        87
40.780        50
40.800        60
40.820        77
40.840        83
40.860        70
40.880       117
40.900        77
40.920       100
40.940        63
40.960        97
40.980        77
41.000        43
41.020        43
41.040        87
41.060        73
41.080        60
41.100        83
41.120        87
41.140       123
41.160        93
41.180        80
41.200        77
41.220        67
41.240        97
41.260        37
41.280        87
41.300        70
41.320        87
41.340        90
41.360        73
41.380        70
41.400        70
41.420        73
41.440        60
41.460        80
41.480        77
41.500        70
41.520        37
41.540        67
41.560        73
41.580        60
41.600        93
41.620        67
41.640        67
41.660        87
41.680        60
41.700        63
41.720        77
41.740        63
41.760        60
41.780        63
41.800        83
41.820       100
41.840        60
41.860        83
41.880        73
41.900        93
41.920        90
41.940        83
41.960        87
41.980        57
42.000        70
42.020        67
42.040        53
42.060        77
42.080        63
42.100        83
42.120        70
42.140        67
42.160       107
42.180        40
42.200        80
42.220        67
42.240        67
42.260        73
42.280        63
42.300        60
42.320        53
42.340       110
42.360        63
42.380        93
42.400        97
42.420        73
42.440        80
42.460        93
42.480        70
42.500        83
42.520        97
42.540        87
42.560        97
42.580        77
42.600        73
42.620       100
42.640        67
42.660       117
42.680        80
42.700        97
42.720        80
42.740        87
42.760       110
42.780        97
42.800       113
42.820       133
42.840       117
42.860       110
42.880       127
42.900       163
42.920       107
42.940        80
42.960       127
42.980       143
43.000       117
43.020       113
43.040       133
43.060       130
43.080       147
43.100       130
43.120        83
43.140       110
43.160        83
43.180       103
43.200        70
43.220       123
43.240        97
43.260        80
43.280        67
43.300        80
43.320        67
43.340        43
43.360        73
43.380        73
43.400        67
43.420        63
43.440        43
43.460        87
43.480        83
43.500        63
43.520        60
43.540        87
43.560       100
43.580        87
43.600        83
43.620        67
43.640       110
43.660        57
43.680        93
43.700        80
43.720        83
43.740        73
43.760        77
43.780        47
43.800       107
43.820        80
43.840        80
43.860        73
43.880        90
43.900       107
43.920        53
43.940        87
43.960       100
43.980        97
44.000        90
44.020        73
44.040       117
44.060        57
44.080        90
44.100        87
44.120       107
44.140        77
44.160        73
44.180       100
44.200        53
44.220        90
44.240        63
44.260        63
44.280       110
44.300        77
44.320        83
44.340        80
44.360        93
44.380        67
44.400        57
44.420        83
44.440        73
44.460        63
44.480        63
44.500        73
44.520        93
44.540        60
44.560        53
44.580        50
44.600        43
44.620        67
44.640        67
44.660        53
44.680        83
44.700        67
44.720        90
44.740        33
44.760        97
44.780        70
44.800        77
44.820        70
44.840        97
44.860       117
44.880        83
44.900        80
44.920        53
44.940        77
44.960        83
44.980       117
45.000        83
45.020        57
45.040        67
45.060        97
45.080       117
45.100        70
45.120        90
45.140        90
45.160        57
45.180       100
45.200        63
45.220        80
45.240        60
45.260       110
45.280        53
45.300        80
45.320        83
45.340       113
45.360        73
45.380       117
45.400        87
45.420       110
45.440        90
45.460       110
45.480        67
45.500        90
45.520        53
45.540        63
45.560        67
45.580        73
45.600        90
45.620        40
45.640        63
45.660        90
45.680        70
45.700        70
45.720        77
45.740        97
45.760        73
45.780       100
45.800        97
45.820        70
45.840        83
45.860        70
45.880        80
45.900        77
45.920        70
45.940        87
45.960        73
45.980        50
46.000        70
46.020        67
46.040        60
46.060        73
46.080        57
46.100        67
46.120        70
46.140        90
46.160        77
46.180       103
46.200        77
46.220        67
46.240        63
46.260        93
46.280        50
46.300        83
46.320        83
46.340        70
46.360        97
46.380       103
46.400        60
46.420        83
46.440        87
46.460        97
46.480        70
46.500        90
46.520       103
46.540        90
46.560        67
46.580        67
46.600       107
46.620        77
46.640        83
46.660        97
46.680        60
46.700       103
46.720        97
46.740       107
46.760        93
46.780       103
46.800       130
46.820       100
46.840       110
46.860       117
46.880       103
46.900        93
46.920       140
46.940       120
46.960       137
46.980       137
47.000       133
47.020       150
47.040       120
47.060       127
47.080       137
47.100       143
47.120       147
47.140       150
47.160       133
47.180       157
47.200       137
47.220       187
47.240       170
47.260       173
47.280       140
47.300       180
47.320       177
47.340       120
47.360       190
47.380       170
47.400       183
47.420       177
47.440       133
47.460       127
47.480       133
47.500       117
47.520       147
47.540       133
47.560       127
47.580        90
47.600        97
47.620        77
47.640        97
47.660       123
47.680        70
47.700        90
47.720        80
47.740        70
47.760        40
47.780       107
47.800        57
47.820       107
47.840        90
47.860       100
47.880        80
47.900        90
47.920       120
47.940        80
47.960       107
47.980        97
48.000       100
48.020       103
48.040       127
48.060       120
48.080       130
48.100       127
48.120       117
48.140       120
48.160        83
48.180       103
48.200       133
48.220       137
48.240       140
48.260       170
48.280       160
48.300       160
48.320       180
48.340       143
48.360       143
48.380       173
48.400       167
48.420       190
48.440       140
48.460       170
48.480       133
48.500       123
48.520       163
48.540       143
48.560       150
48.580       130
48.600        50
48.620        67
48.640        83
48.660        57
48.680       100
48.700        90
48.720       103
48.740        80
48.760        73
48.780        90
48.800        67
48.820        97
48.840        80
48.860        87
48.880        53
48.900        73
48.920        83
48.940        40
48.960        87
48.980        87
49.000       100
49.020        97
49.040       123
49.060        77
49.080       103
49.100        70
49.120        77
49.140        83
49.160        50
49.180        80
49.200       123
49.220        67
49.240       113
49.260        60
49.280        73
49.300        57
49.320       110
49.340        73
49.360        63
49.380        80
49.400        80
49.420        73
49.440        67
49.460        63
49.480        77
49.500        50
49.520        77
49.540        77
49.560        90
49.580        77
49.600        77
49.620        83
49.640        77
49.660        37
49.680        57
49.700        77
49.720       120
49.740        70
49.760        77
49.780        50
49.800        80
49.820        80
49.840        83
49.860        73
49.880        77
49.900        90
49.920        70
49.940        83
49.960        93
49.980        87
50.000        70
50.020        63
50.040        57
50.060        83
50.080        63
50.100        67
50.120        53
50.140        67
50.160        60
50.180        87
50.200        83
50.220       103
50.240        77
50.260        53
50.280        73
50.300        60
50.320        73
50.340        83
50.360        83
50.380        83
50.400        47
50.420        67
50.440        83
50.460       103
50.480        87
50.500        63
50.520        77
50.540        80
50.560        50
50.580        70
50.600        57
50.620        90
50.640        83
50.660       103
50.680        97
50.700        93
50.720        83
50.740       113
50.760        63
50.780       120
50.800        57
50.820        63
50.840        77
50.860        73
50.880       103
50.900       103
50.920        80
50.940        80
50.960        70
50.980        83
51.000        83
51.020        77
51.040        73
51.060        70
51.080        63
51.100        40
51.120        83
51.140        67
51.160        60
51.180        97
51.200        50
51.220        77
51.240        77
51.260        43
51.280        77
51.300        80
51.320        47
51.340        90
51.360        73
51.380        53
51.400        70
51.420        77
51.440        33
51.460        90
51.480        93
51.500        73
51.520        57
51.540        77
51.560        87
51.580        60
51.600       110
51.620        63
51.640        57
51.660        87
51.680        90
51.700       100
51.720       110
51.740        53
51.760        90
51.780        83
51.800        73
51.820        83
51.840        57
51.860        60
51.880        60
51.900        83
51.920        70
51.940        50
51.960        73
51.980        87
52.000        60
52.020        70
52.040        77
52.060        63
52.080        67
52.100        97
52.120        47
52.140        97
52.160        67
52.180        67
52.200        83
52.220        70
52.240        63
52.260        50
52.280        73
52.300       123
52.320        63
52.340        67
52.360        50
52.380        70
52.400        60
52.420        53
52.440        97
52.460        57
52.480       120
52.500        70
52.520        67
52.540        73
52.560        73
52.580        87
52.600        77
52.620        53
52.640        97
52.660        73
52.680        87
52.700       123
52.720        67
52.740        80
52.760        57
52.780       100
52.800       100
52.820        43
52.840        87
52.860        80
52.880        53
52.900        67
52.920       103
52.940        63
52.960        83
52.980        90
53.000        83
53.020        83
53.040        77
53.060        83
53.080        67
53.100        67
53.120        93
53.140        83
53.160        83
53.180        73
53.200        60
53.220       103
53.240        80
53.260        73
53.280        83
53.300        67
53.320        43
53.340        90
53.360        67
53.380       113
53.400        90
53.420        87
53.440        97
53.460        67
53.480        87
53.500        60
53.520       103
53.540        90
53.560       103
53.580        80
53.600        67
53.620       100
53.640        87
53.660        57
53.680       110
53.700        57
53.720        80
53.740        80
53.760        73
53.780       103
53.800        90
53.820        57
53.840        70
53.860        67
53.880        77
53.900        93
53.920        80
53.940        70
53.960        80
53.980       100
54.000        97
54.020       103
54.040       117
54.060        97
54.080       150
54.100        53
54.120        93
54.140       120
54.160       127
54.180        97
54.200       167
54.220       160
54.240       110
54.260       150
54.280       170
54.300       167
54.320       160
54.340       187
54.360       250
54.380       270
54.400       307
54.420       373
54.440       460
54.460       630
54.480       603
54.500       630
54.520       776
54.540       746
54.560       783
54.580       803
54.600       790
54.620       780
54.640       660
54.660       620
54.680       726
54.700       686
54.720       530
54.740       540
54.760       453
54.780       413
54.800       390
54.820       323
54.840       260
54.860       200
54.880       237
54.900       150
54.920       193
54.940       140
54.960       157
54.980       163
55.000       123
55.020       130
55.040       133
55.060        97
55.080       110
55.100       127
55.120        97
55.140       103
55.160       117
55.180        67
55.200        93
55.220       103
55.240       100
55.260       113
55.280       113
55.300       100
55.320        73
55.340        87
55.360        63
55.380        93
55.400        90
55.420        93
55.440        93
55.460       133
55.480        93
55.500       100
55.520        67
55.540        87
55.560       103
55.580        97
55.600        67
55.620        73
55.640        77
55.660        67
55.680        57
55.700       107
55.720       107
55.740        67
55.760        97
55.780        90
55.800       107
55.820        80
55.840        80
55.860        90
55.880        67
55.900       127
55.920       107
55.940        77
55.960        93
55.980        60
56.000        63
56.020        93
56.040       107
56.060        83
56.080        90
56.100        97
56.120        87
56.140        77
56.160       107
56.180       117
56.200        80
56.220        73
56.240       110
56.260       143
56.280       133
56.300       103
56.320       103
56.340       120
56.360       153
56.380       107
56.400       113
56.420       137
56.440       137
56.460       143
56.480        87
56.500       143
56.520       100
56.540       107
56.560       127
56.580       143
56.600       130
56.620        97
56.640       100
56.660       140
56.680        87
56.700        97
56.720        93
56.740        60
56.760        80
56.780       100
56.800       113
56.820        87
56.840       107
56.860       123
56.880        93
56.900       133
56.920       103
56.940        90
56.960       113
56.980       107
57.000        70
57.020        77
57.040       107
57.060       103
57.080       127
57.100       110
57.120       147
57.140       133
57.160       113
57.180       143
57.200       107
57.220       150
57.240       110
57.260       117
57.280       143
57.300       123
57.320       133
57.340       143
57.360       107
57.380       127
57.400       140
57.420       120
57.440       113
57.460       107
57.480       107
57.500       120
57.520        93
57.540        73
57.560        90
57.580        93
57.600        97
57.620        80
57.640       103
57.660        93
57.680       103
57.700        77
57.720        93
57.740       103
57.760        63
57.780       127
57.800       117
57.820       127
57.840        77
57.860       117
57.880       117
57.900        90
57.920        87
57.940        73
57.960        93
57.980        77
58.000        97
58.020        97
58.040        70
58.060        90
58.080        90
58.100        80
58.120        80
58.140        93
58.160        90
58.180        83
58.200        93
58.220       107
58.240        80
58.260       103
58.280        77
58.300        93
58.320        67
58.340        70
58.360        93
58.380        60
58.400        47
58.420        57
58.440        97
58.460       103
58.480       103
58.500        83
58.520       107
58.540        87
58.560        80
58.580        73
58.600        87
58.620        77
58.640        87
58.660        53
58.680        80
58.700        90
58.720       103
58.740        93
58.760        60
58.780        90
58.800        87
58.820        87
58.840        73
58.860        83
58.880        87
58.900        57
58.920        87
58.940        83
58.960        77
58.980        73
59.000        90
59.020        60
59.040        97
59.060        80
59.080        67
59.100        67
59.120        77
59.140       100
59.160        50
59.180        73
59.200        57
59.220        73
59.240        90
59.260        53
59.280       103
59.300        63
59.320       100
59.340        83
59.360        80
59.380        90
59.400        73
59.420       137
59.440        87
59.460        83
59.480        73
59.500        93
59.520        60
59.540       107
59.560        57
59.580        83
59.600        50
59.620        87
59.640        67
59.660        70
59.680       100
59.700        93
59.720         7
59.740         0
59.760         0
59.780         0
59.800         0
59.820         0
59.840         0
59.860         0
59.880         0
59.900         3
59.920         0
59.940         0
59.960         0
59.980         0
60.000         0
