20.000       240
20.020       257
20.040       320
20.060       283
20.080       217
20.100       220
20.120       250
20.140       240
20.160       233
20.180       217
20.200       240
20.220       230
20.240       230
20.260       237
20.280       227
20.300       193
20.320       170
20.340       250
20.360       230
20.380       230
20.400       267
20.420       243
20.440       247
20.460       213
20.480       223
20.500       213
20.520       277
20.540       230
20.560       197
20.580       217
20.600       270
20.620       243
20.640       243
20.660       213
20.680       260
20.700       253
20.720       220
20.740       230
20.760       237
20.780       233
20.800       187
20.820       253
20.840       200
20.860       190
20.880       270
20.900       260
20.920       210
20.940       223
20.960       237
20.980       250
21.000       263
21.020       260
21.040       263
21.060       197
21.080       250
21.100       270
21.120       160
21.140       220
21.160       230
21.180       243
21.200       260
21.220       243
21.240       240
21.260       230
21.280       237
21.300       253
21.320       250
21.340       250
21.360       240
21.380       280
21.400       247
21.420       160
21.440       217
21.460       217
21.480       287
21.500       217
21.520       240
21.540       223
21.560       237
21.580       157
21.600       180
21.620       187
21.640       167
21.660       233
21.680       227
21.700       193
21.720       220
21.740       233
21.760       203
21.780       163
21.800       163
21.820       223
21.840       217
21.860       263
21.880       227
21.900       277
21.920       197
21.940       227
21.960       170
21.980       213
22.000       140
22.020       163
22.040       207
22.060       170
22.080       220
22.100       267
22.120       193
22.140       213
22.160       227
22.180       213
22.200       230
22.220       200
22.240       247
22.260       200
22.280       217
22.300       163
22.320       223
22.340       207
22.360       183
22.380       153
22.400       223
22.420       173
22.440       230
22.460       237
22.480       233
22.500       177
22.520       177
22.540       180
22.560       197
22.580       217
22.600       257
22.620       183
22.640       253
22.660       177
22.680       207
22.700       237
22.720       207
22.740       213
22.760       233
22.780       223
22.800       253
22.820       240
22.840       220
22.860       170
22.880       193
22.900       227
22.920       170
22.940       153
22.960       173
22.980       223
23.000       200
23.020       203
23.040       190
23.060       223
23.080       193
23.100       230
23.120       137
23.140       210
23.160       197
23.180       213
23.200       187
23.220       190
23.240       190
23.260       193
23.280       183
23.300       167
23.320       270
23.340       170
23.360       180
23.380       163
23.400       240
23.420       170
23.440       190
23.460       200
23.480       177
23.500       127
23.520       190
23.540       230
23.560       210
23.580       147
23.600       187
23.620       197
23.640       243
23.660       173
23.680       233
23.700       210
23.720       190
23.740       220
23.760       167
23.780       163
23.800       230
23.820       233
23.840       237
23.860       237
23.880       143
23.900       187
23.920       167
23.940       220
23.960       183
23.980       173
24.000       160
24.020       197
24.040       153
24.060       157
24.080       207
24.100       197
24.120       167
24.140       213
24.160       180
24.180       130
24.200       193
24.220       193
24.240       163
24.260       180
24.280       180
24.300       147
24.320       150
24.340       147
24.360       140
24.380       150
24.400       193
24.420       197
24.440       190
24.460       187
24.480       143
24.500       177
24.520       223
24.540       180
24.560       177
24.580       137
24.600       167
24.620       197
24.640       187
24.660       200
24.680       167
24.700       213
24.720       203
24.740       190
24.760       210
24.780       220
24.800       207
24.820       173
24.840       267
24.860       243
24.880       293
24.900       260
24.920       213
24.940       227
24.960       197
24.980       157
25.000       217
25.020       153
25.040       160
25.060       197
25.080       160
25.100       173
25.120       153
25.140       200
25.160       177
25.180       177
25.200       167
25.220       160
25.240       180
25.260       180
25.280       140
25.300       200
25.320       200
25.340       127
25.360       153
25.380       190
25.400       187
25.420       160
25.440       177
25.460       183
25.480       143
25.500       173
25.520       180
25.540       127
25.560       203
25.580       217
25.600       187
25.620       197
25.640       200
25.660       223
25.680       167
25.700       170
25.720       210
25.740       160
25.760       180
25.780       193
25.800       153
25.820       163
25.840       150
25.860       153
25.880       150
25.900       140
25.920       150
25.940       153
25.960       173
25.980       117
26.000       147
26.020       147
26.040       147
26.060       150
26.080       157
26.100       157
26.120       150
26.140       167
26.160       107
26.180       157
26.200       163
26.220       140
26.240       143
26.260       143
26.280       103
26.300       157
26.320       190
26.340       123
26.360       123
26.380       143
26.400       133
26.420       187
26.440       160
26.460       170
26.480       147
26.500       150
26.520       150
26.540       113
26.560       127
26.580       147
26.600       157
26.620       167
26.640       113
26.660       127
26.680       123
26.700       123
26.720       117
26.740       123
26.760       120
26.780       120
26.800       143
26.820       113
26.840       137
26.860       127
26.880       120
26.900       157
26.920       130
26.940       140
26.960       120
26.980       127
27.000       130
27.020       147
27.040       167
27.060       137
27.080       130
27.100       137
27.120       117
27.140       150
27.160       133
27.180       140
27.200       127
27.220       167
27.240       193
27.260       130
27.280       157
27.300       133
27.320       150
27.340       130
27.360       137
27.380       123
27.400       163
27.420       117
27.440       143
27.460       123
27.480       117
27.500       140
27.520       107
27.540       123
27.560        80
27.580       130
27.600       170
27.620       133
27.640        73
27.660       147
27.680       107
27.700       113
27.720       147
27.740       127
27.760       130
27.780       167
27.800       137
27.820       107
27.840       113
27.860       157
27.880       153
27.900       110
27.920       127
27.940       133
27.960       127
27.980       137
28.000       117
28.020       123
28.040       123
28.060       110
28.080        93
28.100       110
28.120       127
28.140       107
28.160       110
28.180       123
28.200       113
28.220        80
28.240       103
28.260       140
28.280       127
28.300       140
28.320       113
28.340        90
28.360       110
28.380       140
28.400       123
28.420       133
28.440        97
28.460       137
28.480       113
28.500       123
28.520       103
28.540       100
28.560       117
28.580       120
28.600        80
28.620       113
28.640       103
28.660       133
28.680       110
28.700       107
28.720       123
28.740       100
28.760       107
28.780       170
28.800       117
28.820       100
28.840       143
28.860       123
28.880       160
28.900       140
28.920       100
28.940       150
28.960       120
28.980       150
29.000       133
29.020       173
29.040       153
29.060       137
29.080       170
29.100       180
29.120       120
29.140       193
29.160       210
29.180       193
29.200       210
29.220       267
29.240       257
29.260       313
29.280       347
29.300       310
29.320       330
29.340       307
29.360       363
29.380       303
29.400       307
29.420       343
29.440       250
29.460       190
29.480       200
29.500       137
29.520       167
29.540       147
29.560       110
29.580       127
29.600       137
29.620       157
29.640       113
29.660        83
29.680       103
29.700       127
29.720        93
29.740       117
29.760       117
29.780        87
29.800        90
29.820       117
29.840        70
29.860       140
29.880        87
29.900        77
29.920       143
29.940        93
29.960       117
29.980       120
30.000        97
30.020        63
30.040       100
30.060       113
30.080       107
30.100        60
30.120        87
30.140        83
30.160        83
30.180       113
30.200        80
30.220       123
30.240        47
30.260       103
30.280       103
30.300       113
30.320       117
30.340       117
30.360        97
30.380        73
30.400       133
30.420       130
30.440       107
30.460        77
30.480       127
30.500       117
30.520       117
30.540       110
30.560       143
30.580       113
30.600       150
30.620       157
30.640       177
30.660       177
30.680       223
30.700       183
30.720       160
30.740       183
30.760       197
30.780       130
30.800       140
30.820       127
30.840       127
30.860       153
30.880       120
30.900       123
30.920       120
30.940        60
30.960       123
30.980        90
31.000        67
31.020       137
31.040        87
31.060        97
31.080       117
31.100       113
31.120        97
31.140        93
31.160       120
31.180       107
31.200       130
31.220       100
31.240        97
31.260       103
31.280       133
31.300       107
31.320       143
31.340       100
31.360       110
31.380       120
31.400        87
31.420        83
31.440       117
31.460        77
31.480        53
31.500        83
31.520       100
31.540       103
31.560       107
31.580       103
31.600        70
31.620        93
31.640        97
31.660        83
31.680        57
31.700       107
31.720       107
31.740       100
31.760       117
31.780        90
31.800        70
31.820        83
31.840        83
31.860       123
31.880       100
31.900        83
31.920        93
31.940        90
31.960        93
31.980        67
32.000        90
32.020        97
32.040        77
32.060       110
32.080       103
32.100        90
32.120       127
32.140       107
32.160       107
32.180        77
32.200       100
32.220        93
32.240        87
32.260        90
32.280        93
32.300        90
32.320       110
32.340        67
32.360        93
32.380        93
32.400        80
32.420       120
32.440       110
32.460       113
32.480        80
32.500        73
32.520       123
32.540       100
32.560       103
32.580        57
32.600        73
32.620       120
32.640        67
32.660       120
32.680       123
32.700        93
32.720        77
32.740        87
32.760       107
32.780        50
32.800       107
32.820       100
32.840       107
32.860        80
32.880       103
32.900        77
32.920        87
32.940        90
32.960        60
32.980        70
33.000        63
33.020        87
33.040        80
33.060        97
33.080        90
33.100        70
33.120       133
33.140        97
33.160        73
33.180       100
33.200        70
33.220       100
33.240        83
33.260        87
33.280        87
33.300        67
33.320        60
33.340        97
33.360        87
33.380        87
33.400        97
33.420        87
33.440        73
33.460        93
33.480       100
33.500        87
33.520       133
33.540        93
33.560        93
33.580        87
33.600        67
33.620        77
33.640        63
33.660        77
33.680        73
33.700        87
33.720       107
33.740        87
33.760        93
33.780        93
33.800        80
33.820        77
33.840        70
33.860       103
33.880        67
33.900        93
33.920        90
33.940        93
33.960        87
33.980        83
34.000        93
34.020        87
34.040        90
34.060        80
34.080        63
34.100       113
34.120        73
34.140        93
34.160        73
34.180        63
34.200        80
34.220        57
34.240        63
34.260        80
34.280        70
34.300        70
34.320        87
34.340        73
34.360        80
34.380        90
34.400        77
34.420       120
34.440       103
34.460        77
34.480        63
34.500        80
34.520        83
34.540        63
34.560        90
34.580        57
34.600        83
34.620        90
34.640       100
34.660        83
34.680        70
34.700        77
34.720        73
34.740        77
34.760       107
34.780        80
34.800        97
34.820        97
34.840        67
34.860        73
34.880       100
34.900        90
34.920       113
34.940       107
34.960        67
34.980        80
35.000        63
35.020        93
35.040        87
35.060        87
35.080       107
35.100       103
35.120       103
35.140       120
35.160        83
35.180       110
35.200        93
35.220        73
35.240        73
35.260        83
35.280        73
35.300       103
35.320       100
35.340        90
35.360        67
35.380        83
35.400        60
35.420        83
35.440        70
35.460       123
35.480       120
35.500        90
35.520        83
35.540        73
35.560        87
35.580        67
35.600        80
35.620       103
35.640        60
35.660        90
35.680        80
35.700        77
35.720       117
35.740       100
35.760        83
35.780        93
35.800        93
35.820        93
35.840        90
35.860       127
35.880       107
35.900       123
35.920       137
35.940       130
35.960        93
35.980        87
36.000       110
36.020        83
36.040        53
36.060        53
36.080        87
36.100        87
36.120        73
36.140       103
36.160        93
36.180        93
36.200        67
36.220        57
36.240       103
36.260        77
36.280       100
36.300        53
36.320        60
36.340        73
36.360        80
36.380        77
36.400        50
36.420        87
36.440        63
36.460       120
36.480        77
36.500        80
36.520        50
36.540        73
36.560       100
36.580       117
36.600        70
36.620        77
36.640        97
36.660        77
36.680        53
36.700        73
36.720        90
36.740        50
36.760        67
36.780        50
36.800        80
36.820        67
36.840        53
36.860        63
36.880        70
36.900       113
36.920        63
36.940       137
36.960        77
36.980        70
37.000        97
37.020        97
37.040        60
37.060        57
37.080        77
37.100        83
37.120        53
37.140        87
37.160        53
37.180        67
37.200       100
37.220        73
37.240       103
37.260        83
37.280        70
37.300        87
37.320        87
37.340        77
37.360        93
37.380        93
37.400        93
37.420        43
37.440        97
37.460        80
37.480       120
37.500        80
37.520        60
37.540       107
37.560        80
37.580        90
37.600        97
37.620        93
37.640       113
37.660       120
37.680       173
37.700       190
37.720       203
37.740       233
37.760       253
37.780       343
37.800       430
37.820       466
37.840       653
37.860       683
37.880       663
37.900       653
37.920       653
37.940       530
37.960       540
37.980       443
38.000       307
38.020       293
38.040       277
38.060       220
38.080       153
38.100       130
38.120        90
38.140       120
38.160       130
38.180        87
38.200       103
38.220        87
38.240       107
38.260       100
38.280       120
38.300       143
38.320       100
38.340       110
38.360        80
38.380       107
38.400        93
38.420       133
38.440       103
38.460        90
38.480        97
38.500       133
38.520        63
38.540        90
38.560        73
38.580        87
38.600        87
38.620        93
38.640        97
38.660        73
38.680        83
38.700        83
38.720       100
38.740        60
38.760        83
38.780        90
38.800        63
38.820        87
38.840       127
38.860       120
38.880        83
38.900        87
38.920        90
38.940        70
38.960       120
38.980       157
39.000       110
39.020        97
39.040       123
39.060        97
39.080       130
39.100        97
39.120        97
39.140       100
39.160       113
39.180       133
39.200       130
39.220       113
39.240       130
39.260       123
39.280       143
39.300       150
39.320       117
39.340       177
39.360       130
39.380       150
39.400       133
39.420       147
39.440       140
39.460       107
39.480        73
39.500        80
39.520        93
39.540        97
39.560       117
39.580        80
39.600        73
39.620        77
39.640        80
39.660       107
39.680       100
39.700        83
39.720       133
39.740        70
39.760       103
39.780        90
39.800        93
39.820       100
39.840        73
39.860        90
39.880       113
39.900       117
39.920        80
39.940        53
39.960        97
39.980        73
40.000        83
40.020        67
40.040        70
40.060        80
40.080        67
40.100       113
40.120        70
40.140        83
40.160        70
40.180        87
40.200        77
40.220       103
40.240        87
40.260        83
40.280        77
40.300       103
40.320        83
40.340       100
40.360        83
40.380        63
40.400       113
40.420        73
40.440        73
40.460       100
40.480        80
40.500        93
40.520       140
40.540        93
40.560        97
40.580        73
40.600        80
40.620        93
40.640       110
40.660        87
40.680        60
40.700        53
40.720        83
40.740       120
40.760        90
40.780        77
40.800        87
40.820       103
40.840        87
40.860       100
40.880        90
40.900        77
40.920       100
40.940        60
40.960        77
40.980       100
41.000        37
41.020        93
41.040        67
41.060       150
41.080        57
41.100       103
41.120        67
41.140        87
41.160        97
41.180        87
41.200       100
41.220       117
41.240       120
41.260        97
41.280        97
41.300        73
41.320        73
41.340        97
41.360        80
41.380       100
41.400        93
41.420        97
41.440        63
41.460        73
41.480       100
41.500        90
41.520       113
41.540        93
41.560       100
41.580       110
41.600       107
41.620        80
41.640        87
41.660        97
41.680       110
41.700        47
41.720       107
41.740       107
41.760       120
41.780        83
41.800       127
41.820       103
41.840       100
41.860        90
41.880        97
41.900       133
41.920        53
41.940       120
41.960       103
41.980        87
42.000       110
42.020       117
42.040        93
42.060       123
42.080        87
42.100        90
42.120        73
42.140        90
42.160        90
42.180       117
42.200        67
42.220       100
42.240        90
42.260        83
42.280       103
42.300        87
42.320        80
42.340       100
42.360       100
42.380        73
42.400        97
42.420        97
42.440       113
42.460       117
42.480        97
42.500       100
42.520        77
42.540       107
42.560        90
42.580        87
42.600       110
42.620       103
42.640        63
42.660        87
42.680        87
42.700        93
42.720       130
42.740       113
42.760        90
42.780       123
42.800        70
42.820       123
42.840        80
42.860       143
42.880       113
42.900       133
42.920       120
42.940       110
42.960       173
42.980       133
43.000       150
43.020       143
43.040       117
43.060       143
43.080       143
43.100       137
43.120       150
43.140       173
43.160       143
43.180       157
43.200       173
43.220       100
43.240       117
43.260       120
43.280       110
43.300       120
43.320       117
43.340        87
43.360       103
43.380       107
43.400       107
43.420       123
43.440       103
43.460        87
43.480        90
43.500       120
43.520        73
43.540        60
43.560        90
43.580       110
43.600       103
43.620       107
43.640        60
43.660       110
43.680       103
43.700        77
43.720        93
43.740       100
43.760       137
43.780       127
43.800        83
43.820        70
43.840       107
43.860       117
43.880       100
43.900        93
43.920       110
43.940        77
43.960        87
43.980        73
44.000        83
44.020        97
44.040       117
44.060       107
44.080        87
44.100        90
44.120        90
44.140       120
44.160        97
44.180        73
44.200       113
44.220        83
44.240       107
44.260       100
44.280       110
44.300       117
44.320        80
44.340       100
44.360       113
44.380       117
44.400       100
44.420       117
44.440        90
44.460       100
44.480        97
44.500        80
44.520       127
44.540        87
44.560       103
44.580       123
44.600       100
44.620        97
44.640       100
44.660       110
44.680       110
44.700        83
44.720       140
44.740        73
44.760       137
44.780       110
44.800        63
44.820        97
44.840        87
44.860       113
44.880       123
44.900        97
44.920       113
44.940       117
44.960       107
44.980        87
45.000        90
45.020       133
45.040        90
45.060       133
45.080       103
45.100        93
45.120        87
45.140       120
45.160       123
45.180        80
45.200       160
45.220       130
45.240       120
45.260        90
45.280       103
45.300       120
45.320       153
45.340       163
45.360       127
45.380       120
45.400       117
45.420       103
45.440       123
45.460       120
45.480       120
45.500       127
45.520       153
45.540       120
45.560       130
45.580       107
45.600       107
45.620       103
45.640       110
45.660       100
45.680       107
45.700       127
45.720       127
45.740       147
45.760       107
45.780       163
45.800       133
45.820       107
45.840        97
45.860       123
45.880       107
45.900       120
45.920        93
45.940       130
45.960        70
45.980       100
46.000        93
46.020        97
46.040        97
46.060       120
46.080        83
46.100       143
46.120       107
46.140        87
46.160       113
46.180       100
46.200        70
46.220       127
46.240       150
46.260       120
46.280       110
46.300        80
46.320       103
46.340        90
46.360       117
46.380       137
46.400       133
46.420        90
46.440       120
46.460       100
46.480       117
46.500       110
46.520       100
46.540       147
46.560       147
46.580       143
46.600       103
46.620       107
46.640       160
46.660       167
46.680       130
46.700       157
46.720       170
46.740       190
46.760       180
46.780       157
46.800       170
46.820       193
46.840       183
46.860       157
46.880       177
46.900       160
46.920       143
46.940       160
46.960       240
46.980       180
47.000       187
47.020       203
47.040       233
47.060       217
47.080       300
47.100       227
47.120       363
47.140       410
47.160       573
47.180       976
47.200      1233
47.220      1529
47.240      1216
47.260       950
47.280       573
47.300       383
47.320       330
47.340       300
47.360       350
47.380       293
47.400       243
47.420       280
47.440       263
47.460       163
47.480       213
47.500       220
47.520       260
47.540       217
47.560       257
47.580       173
47.600       200
47.620       177
47.640       173
47.660       163
47.680       117
47.700       193
47.720       140
47.740       163
47.760       127
47.780       140
47.800       167
47.820        93
47.840       143
47.860       157
47.880       140
47.900       173
47.920       130
47.940       107
47.960       123
47.980       127
48.000       137
48.020       143
48.040       157
48.060       150
48.080       170
48.100       187
48.120       160
48.140       160
48.160       190
48.180       117
48.200       130
48.220       137
48.240       133
48.260       183
48.280       213
48.300       153
48.320       167
48.340       233
48.360       153
48.380       257
48.400       187
48.420       197
48.440       207
48.460       177
48.480       220
48.500       240
48.520       190
48.540       187
48.560       220
48.580       173
48.600       150
48.620       150
48.640       163
48.660       163
48.680       160
48.700       133
48.720       110
48.740       137
48.760       140
48.780       127
48.800       147
48.820       127
48.840       110
48.860       147
48.880       127
48.900       110
48.920       133
48.940       130
48.960       147
48.980       133
49.000       113
49.020       153
49.040       133
49.060       117
49.080       117
49.100       137
49.120       103
49.140       127
49.160       133
49.180       160
49.200       180
49.220       113
49.240       147
49.260       127
49.280       120
49.300       140
49.320       137
49.340       147
49.360       137
49.380       140
49.400       153
49.420       130
49.440       130
49.460       183
49.480       153
49.500       117
49.520       127
49.540       133
49.560       140
49.580       180
49.600       157
49.620        97
49.640       127
49.660       140
49.680       113
49.700       110
49.720       140
49.740       127
49.760       120
49.780        93
49.800       137
49.820       147
49.840       113
49.860       133
49.880       100
49.900        93
49.920       147
49.940        97
49.960       117
49.980       147
50.000       170
50.020        70
50.040       110
50.060       130
50.080       137
50.100       167
50.120       103
50.140       147
50.160       123
50.180       153
50.200       117
50.220       123
50.240       113
50.260       140
50.280       137
50.300       147
50.320       147
50.340       110
50.360        97
50.380       123
50.400       120
50.420       140
50.440       123
50.460       133
50.480       160
50.500       133
50.520       100
50.540       137
50.560       147
50.580       140
50.600       153
50.620       153
50.640       173
50.660       227
50.680       277
50.700       367
50.720       303
50.740       443
50.760       377
50.780       420
50.800       440
50.820       473
50.840       387
50.860       466
50.880       446
50.900       446
50.920       470
50.940       473
50.960       516
50.980       453
51.000       480
51.020       543
51.040       483
51.060       470
51.080       430
51.100       410
51.120       423
51.140       400
51.160       380
51.180       443
51.200       420
51.220       420
51.240       460
51.260       413
51.280       436
51.300       446
51.320       436
51.340       480
51.360       466
51.380       453
51.400       420
51.420       480
51.440       430
51.460       473
51.480       476
51.500       476
51.520       500
51.540       413
51.560       550
51.580       463
51.600       466
51.620       486
51.640       523
51.660       516
51.680       466
51.700       480
51.720       436
51.740       530
51.760       536
51.780       583
51.800       506
51.820       496
51.840       603
51.860       543
51.880       493
51.900       583
51.920       530
51.940       500
51.960       586
51.980       603
52.000       583
52.020       640
52.040       573
52.060       646
52.080       580
52.100       650
52.120       716
52.140       630
52.160       810
52.180       863
52.200       843
52.220       896
52.240      1033
52.260      1176
52.280      1276
52.300      1676
52.320      2109
52.340      2509
52.360      3045
52.380      3499
52.400      3868
52.420      4322
52.440      4925
52.460      6158
52.480      7537
52.500      9733
52.520     13395
52.540     22774
52.560     55744
52.580    117360
52.600    158943
52.620    162915
52.640    129988
52.660     76809
52.680     42176
52.700     44429
52.720     72121
52.740     95192
52.760     96375
52.780     74047
52.800     40950
52.820     18946
52.840     10416
52.860      7917
52.880      6401
52.900      4881
52.920      3699
52.940      2692
52.960      1926
52.980      1649
53.000      1456
53.020      1309
53.040      1329
53.060      1120
53.080      1120
53.100       950
53.120       986
53.140       956
53.160       803
53.180       893
53.200       850
53.220       856
53.240       766
53.260       696
53.280       636
53.300       706
53.320       683
53.340       743
53.360       730
53.380       676
53.400       680
53.420       520
53.440       663
53.460       610
53.480       506
53.500       570
53.520       603
53.540       560
53.560       536
53.580       480
53.600       446
53.620       510
53.640       523
53.660       466
53.680       526
53.700       510
53.720       460
53.740       496
53.760       486
53.780       430
53.800       423
53.820       430
53.840       413
53.860       490
53.880       456
53.900       493
53.920       533
53.940       510
53.960       423
53.980       420
54.000       500
54.020       433
54.040       443
54.060       407
54.080       433
54.100       420
54.120       453
54.140       377
54.160       436
54.180       327
54.200       453
54.220       387
54.240       503
54.260       490
54.280       500
54.300       370
54.320       413
54.340       496
54.360       503
54.380       543
54.400       550
54.420       553
54.440       673
54.460       750
54.480       776
54.500       946
54.520       953
54.540      1026
54.560      1093
54.580      1206
54.600      1216
54.620      1183
54.640      1090
54.660      1180
54.680      1180
54.700      1126
54.720       930
54.740       936
54.760       940
54.780       810
54.800       766
54.820       780
54.840       666
54.860       630
54.880       550
54.900       493
54.920       573
54.940       417
54.960       446
54.980       423
55.000       380
55.020       387
55.040       337
55.060       426
55.080       297
55.100       377
55.120       387
55.140       353
55.160       330
55.180       387
55.200       333
55.220       310
55.240       357
55.260       413
55.280       337
55.300       333
55.320       313
55.340       383
55.360       340
55.380       343
55.400       310
55.420       310
55.440       337
55.460       290
55.480       307
55.500       337
55.520       363
55.540       403
55.560       310
55.580       323
55.600       300
55.620       287
55.640       257
55.660       343
55.680       313
55.700       267
55.720       297
55.740       357
55.760       293
55.780       323
55.800       373
55.820       327
55.840       297
55.860       357
55.880       320
55.900       317
55.920       327
55.940       287
55.960       343
55.980       257
56.000       283
56.020       280
56.040       290
56.060       283
56.080       297
56.100       333
56.120       310
56.140       283
56.160       257
56.180       323
56.200       243
56.220       263
56.240       300
56.260       320
56.280       280
56.300       303
56.320       323
56.340       307
56.360       300
56.380       327
56.400       290
56.420       280
56.440       257
56.460       317
56.480       297
56.500       277
56.520       307
56.540       307
56.560       263
56.580       313
56.600       287
56.620       247
56.640       283
56.660       253
56.680       280
56.700       287
56.720       293
56.740       303
56.760       290
56.780       280
56.800       283
56.820       290
56.840       313
56.860       257
56.880       320
56.900       267
56.920       247
56.940       327
56.960       293
56.980       290
57.000       247
57.020       307
57.040       303
57.060       203
57.080       307
57.100       283
57.120       223
57.140       233
57.160       293
57.180       317
57.200       243
57.220       323
57.240       270
57.260       307
57.280       377
57.300       313
57.320       357
57.340       403
57.360       263
57.380       330
57.400       317
57.420       270
57.440       327
57.460       243
57.480       323
57.500       247
57.520       280
57.540       240
57.560       257
57.580       290
57.600       290
57.620       270
57.640       290
57.660       293
57.680       243
57.700       240
57.720       277
57.740       240
57.760       250
57.780       237
57.800       240
57.820       237
57.840       243
57.860       263
57.880       257
57.900       283
57.920       247
57.940       227
57.960       253
57.980       253
58.000       233
58.020       263
58.040       250
58.060       287
58.080       247
58.100       227
58.120       237
58.140       247
58.160       263
58.180       283
58.200       200
58.220       223
58.240       237
58.260       260
58.280       283
58.300       280
58.320       260
58.340       253
58.360       220
58.380       200
58.400       237
58.420       280
58.440       230
58.460       243
58.480       207
58.500       230
58.520       227
58.540       193
58.560       250
58.580       273
58.600       263
58.620       260
58.640       190
58.660       230
58.680       243
58.700       257
58.720       280
58.740       233
58.760       167
58.780       183
58.800       200
58.820       213
58.840       213
58.860       240
58.880       230
58.900       200
58.920       243
58.940       270
58.960       243
58.980       233
59.000       190
59.020       207
59.040       213
59.060       170
59.080       240
59.100       230
59.120       200
59.140       203
59.160       180
59.180       230
59.200       213
59.220       223
59.240       197
59.260       200
59.280       210
59.300       193
59.320       220
59.340       213
59.360       197
59.380       203
59.400       247
59.420       237
59.440       227
59.460       187
59.480       203
59.500       183
59.520       193
59.540       200
59.560       217
59.580       150
59.600       203
59.620       197
59.640       217
59.660       163
59.680       200
59.700       257
59.720       207
59.740       217
59.760        57
59.780         0
59.800         0
59.820         3
59.840         0
59.860         0
59.880         0
59.900         0
59.920         0
59.940         0
59.960         0
59.980         0
60.000         0
