20.000       197
20.020       197
20.040       197
20.060       160
20.080       170
20.100       217
20.120       167
20.140       147
20.160       183
20.180       190
20.200       217
20.220       187
20.240       263
20.260       247
20.280       290
20.300       283
20.320       310
20.340       303
20.360       273
20.380       210
20.400       257
20.420       247
20.440       227
20.460       183
20.480       203
20.500       197
20.520       170
20.540       167
20.560       210
20.580       180
20.600       197
20.620       193
20.640       190
20.660       247
20.680       177
20.700       187
20.720       187
20.740       150
20.760       190
20.780       213
20.800       203
20.820       210
20.840       160
20.860       240
20.880       180
20.900       240
20.920       200
20.940       200
20.960       167
20.980       207
21.000       220
21.020       197
21.040       187
21.060       223
21.080       200
21.100       210
21.120       200
21.140       230
21.160       203
21.180       290
21.200       210
21.220       257
21.240       250
21.260       247
21.280       203
21.300       217
21.320       210
21.340       210
21.360       263
21.380       157
21.400       233
21.420       220
21.440       233
21.460       220
21.480       233
21.500       237
21.520       293
21.540       207
21.560       277
21.580       217
21.600       197
21.620       220
21.640       197
21.660       230
21.680       267
21.700       213
21.720       230
21.740       230
21.760       250
21.780       197
21.800       230
21.820       240
21.840       307
21.860       250
21.880       230
21.900       253
21.920       250
21.940       243
21.960       220
21.980       233
22.000       220
22.020       293
22.040       290
22.060       290
22.080       250
22.100       233
22.120       250
22.140       270
22.160       230
22.180       237
22.200       267
22.220       267
22.240       297
22.260       260
22.280       253
22.300       247
22.320       250
22.340       307
22.360       320
22.380       263
22.400       227
22.420       263
22.440       230
22.460       267
22.480       293
22.500       293
22.520       293
22.540       233
22.560       277
22.580       233
22.600       323
22.620       307
22.640       310
22.660       337
22.680       277
22.700       250
22.720       287
22.740       270
22.760       260
22.780       283
22.800       270
22.820       313
22.840       377
22.860       297
22.880       383
22.900       337
22.920       310
22.940       353
22.960       397
22.980       413
23.000       360
23.020       330
23.040       433
23.060       480
23.080       716
23.100       826
23.120       833
23.140       830
23.160       410
23.180       410
23.200       410
23.220       357
23.240       330
23.260       440
23.280       400
23.300       323
23.320       370
23.340       353
23.360       380
23.380       347
23.400       337
23.420       333
23.440       337
23.460       343
23.480       390
23.500       420
23.520       370
23.540       370
23.560       330
23.580       393
23.600       367
23.620       333
23.640       337
23.660       343
23.680       360
23.700       390
23.720       400
23.740       357
23.760       300
23.780       320
23.800       347
23.820       360
23.840       383
23.860       363
23.880       373
23.900       420
23.920       347
23.940       353
23.960       340
23.980       387
24.000       343
24.020       360
24.040       380
24.060       390
24.080       317
24.100       347
24.120       320
24.140       283
24.160       350
24.180       380
24.200       367
24.220       383
24.240       380
24.260       350
24.280       410
24.300       357
24.320       313
24.340       387
24.360       363
24.380       360
24.400       410
24.420       357
24.440       360
24.460       330
24.480       337
24.500       327
24.520       430
24.540       397
24.560       327
24.580       420
24.600       373
24.620       370
24.640       426
24.660       357
24.680       433
24.700       367
24.720       516
24.740       516
24.760       513
24.780       407
24.800       530
24.820       510
24.840       580
24.860       600
24.880       543
24.900       530
24.920       526
24.940       490
24.960       520
24.980       576
25.000       500
25.020       523
25.040       493
25.060       493
25.080       496
25.100       563
25.120       570
25.140       570
25.160       570
25.180       453
25.200       550
25.220       580
25.240       540
25.260       603
25.280       540
25.300       613
25.320       683
25.340       560
25.360       646
25.380       670
25.400       983
25.420      1399
25.440      1696
25.460      2406
25.480      3195
25.500      3419
25.520      3878
25.540      4825
25.560     11565
25.580     32704
25.600     50050
25.620     56557
25.640     54485
25.660     42037
25.680     31987
25.700     27949
25.720     15564
25.740      5984
25.760      3379
25.780      2732
25.800      2099
25.820      1669
25.840      1183
25.860       993
25.880       763
25.900       646
25.920       620
25.940       533
25.960       543
25.980       656
26.000       546
26.020       573
26.040       553
26.060       503
26.080       493
26.100       596
26.120       463
26.140       503
26.160       466
26.180       453
26.200       516
26.220       423
26.240       526
26.260       573
26.280       486
26.300       500
26.320       466
26.340       440
26.360       410
26.380       470
26.400       440
26.420       420
26.440       446
26.460       443
26.480       463
26.500       506
26.520       426
26.540       423
26.560       387
26.580       353
26.600       426
26.620       460
26.640       450
26.660       423
26.680       443
26.700       436
26.720       443
26.740       423
26.760       443
26.780       436
26.800       417
26.820       417
26.840       410
26.860       423
26.880       407
26.900       450
26.920       436
26.940       433
26.960       350
26.980       360
27.000       370
27.020       506
27.040       443
27.060       373
27.080       466
27.100       360
27.120       390
27.140       430
27.160       387
27.180       373
27.200       400
27.220       403
27.240       436
27.260       357
27.280       347
27.300       400
27.320       367
27.340       436
27.360       413
27.380       360
27.400       390
27.420       426
27.440       383
27.460       400
27.480       310
27.500       387
27.520       333
27.540       380
27.560       390
27.580       417
27.600       410
27.620       330
27.640       370
27.660       383
27.680       323
27.700       350
27.720       353
27.740       353
27.760       417
27.780       367
27.800       377
27.820       370
27.840       390
27.860       367
27.880       367
27.900       313
27.920       380
27.940       370
27.960       397
27.980       327
28.000       373
28.020       340
28.040       407
28.060       327
28.080       377
28.100       383
28.120       397
28.140       353
28.160       370
28.180       360
28.200       373
28.220       317
28.240       323
28.260       307
28.280       340
28.300       340
28.320       347
28.340       293
28.360       363
28.380       337
28.400       367
28.420       290
28.440       323
28.460       323
28.480       313
28.500       357
28.520       350
28.540       400
28.560       380
28.580       280
28.600       337
28.620       300
28.640       370
28.660       300
28.680       313
28.700       337
28.720       383
28.740       380
28.760       333
28.780       353
28.800       297
28.820       283
28.840       340
28.860       320
28.880       257
28.900       310
28.920       333
28.940       340
28.960       310
28.980       333
29.000       293
29.020       313
29.040       350
29.060       367
29.080       297
29.100       323
29.120       373
29.140       283
29.160       420
29.180       407
29.200       357
29.220       317
29.240       393
29.260       323
29.280       357
29.300       350
29.320       400
29.340       390
29.360       357
29.380       337
29.400       323
29.420       353
29.440       353
29.460       267
29.480       330
29.500       317
29.520       323
29.540       337
29.560       280
29.580       297
29.600       293
29.620       373
29.640       327
29.660       310
29.680       323
29.700       293
29.720       277
29.740       300
29.760       300
29.780       290
29.800       310
29.820       317
29.840       320
29.860       263
29.880       243
29.900       317
29.920       247
29.940       317
29.960       310
29.980       237
30.000       327
30.020       237
30.040       323
30.060       247
30.080       317
30.100       223
30.120       273
30.140       230
30.160       300
30.180       260
30.200       357
30.220       237
30.240       240
30.260       280
30.280       280
30.300       233
30.320       303
30.340       267
30.360       313
30.380       217
30.400       267
30.420       283
30.440       340
30.460       257
30.480       303
30.500       240
30.520       300
30.540       217
30.560       333
30.580       287
30.600       230
30.620       223
30.640       320
30.660       253
30.680       233
30.700       260
30.720       280
30.740       280
30.760       250
30.780       220
30.800       270
30.820       257
30.840       250
30.860       257
30.880       223
30.900       347
30.920       183
30.940       277
30.960       267
30.980       213
31.000       263
31.020       210
31.040       240
31.060       313
31.080       213
31.100       337
31.120       270
31.140       223
31.160       257
31.180       227
31.200       270
31.220       233
31.240       240
31.260       190
31.280       287
31.300       217
31.320       197
31.340       197
31.360       220
31.380       237
31.400       250
31.420       203
31.440       257
31.460       210
31.480       207
31.500       227
31.520       230
31.540       253
31.560       243
31.580       267
31.600       197
31.620       187
31.640       213
31.660       257
31.680       220
31.700       217
31.720       243
31.740       207
31.760       227
31.780       193
31.800       203
31.820       227
31.840       193
31.860       180
31.880       190
31.900       237
31.920       180
31.940       190
31.960       230
31.980       160
32.000       210
32.020       217
32.040       220
32.060       223
32.080       167
32.100       203
32.120       200
32.140       207
32.160       237
32.180       207
32.200       173
32.220       210
32.240       190
32.260       217
32.280       207
32.300       210
32.320       203
32.340       190
32.360       157
32.380       230
32.400       167
32.420       187
32.440       153
32.460       153
32.480       167
32.500       193
32.520       187
32.540       233
32.560       170
32.580       180
32.600       180
32.620       203
32.640       183
32.660       177
32.680       207
32.700       150
32.720       230
32.740       190
32.760       203
32.780       173
32.800       183
32.820       163
32.840       160
32.860       153
32.880       180
32.900       167
32.920       143
32.940       200
32.960       147
32.980       160
33.000       160
33.020       170
33.040       200
33.060       130
33.080       193
33.100       170
33.120       177
33.140       147
33.160       190
33.180       147
33.200       183
33.220       153
33.240       190
33.260       177
33.280       173
33.300       153
33.320       167
33.340       207
33.360       153
33.380       133
33.400       137
33.420       130
33.440       203
33.460       133
33.480       150
33.500       157
33.520       163
33.540       150
33.560       170
33.580       117
33.600       143
33.620       140
33.640       157
33.660       123
33.680       157
33.700       167
33.720       143
33.740       177
33.760       170
33.780       153
33.800       117
33.820       173
33.840       167
33.860       153
33.880       147
33.900       130
33.920       147
33.940       123
33.960       140
33.980       137
34.000       127
34.020       140
34.040       103
34.060       187
34.080       153
34.100       113
34.120       150
34.140       177
34.160       147
34.180       157
34.200       143
34.220       157
34.240       130
34.260       163
34.280       120
34.300       137
34.320       157
34.340       167
34.360       120
34.380       167
34.400       127
34.420       110
34.440       147
34.460       137
34.480       137
34.500       137
34.520       130
34.540       160
34.560       167
34.580       120
34.600       113
34.620       113
34.640       150
34.660       103
34.680       143
34.700       123
34.720       167
34.740       123
34.760       137
34.780       127
34.800       143
34.820       120
34.840        90
34.860       107
34.880       143
34.900       127
34.920        87
34.940       127
34.960       140
34.980       150
35.000       157
35.020       113
35.040       163
35.060       137
35.080       113
35.100       113
35.120       110
35.140        97
35.160        93
35.180        93
35.200       143
35.220       170
35.240       117
35.260       137
35.280       113
35.300       147
35.320       173
35.340       143
35.360       113
35.380       110
35.400       113
35.420       150
35.440       103
35.460       113
35.480       130
35.500       140
35.520       107
35.540       123
35.560       120
35.580       123
35.600       147
35.620       123
35.640       123
35.660       100
35.680        87
35.700       107
35.720       137
35.740       127
35.760       147
35.780       133
35.800       137
35.820       133
35.840       123
35.860       147
35.880       130
35.900        93
35.920       120
35.940       127
35.960        77
35.980        90
36.000       127
36.020       130
36.040       103
36.060       133
36.080       110
36.100        87
36.120        70
36.140        90
36.160       117
36.180        90
36.200        80
36.220       127
36.240       140
36.260        80
36.280       120
36.300       130
36.320        80
36.340        93
36.360       113
36.380       107
36.400       117
36.420        97
36.440       100
36.460       113
36.480       133
36.500       123
36.520        73
36.540       117
36.560        93
36.580       107
36.600        97
36.620        73
36.640       143
36.660        83
36.680        70
36.700        63
36.720       107
36.740       107
36.760       120
36.780        80
36.800       117
36.820       103
36.840        93
36.860        90
36.880       130
36.900        97
36.920       150
36.940        93
36.960       103
36.980       137
37.000       137
37.020       117
37.040       107
37.060        63
37.080       107
37.100        90
37.120       103
37.140       123
37.160       103
37.180        77
37.200        67
37.220        83
37.240        90
37.260       120
37.280       117
37.300        73
37.320        83
37.340       117
37.360       120
37.380       110
37.400       103
37.420        70
37.440       107
37.460       110
37.480        80
37.500       127
37.520        77
37.540       100
37.560       117
37.580       117
37.600        77
37.620        80
37.640       100
37.660        97
37.680        93
37.700        90
37.720       107
37.740       137
37.760        97
37.780       130
37.800       113
37.820       163
37.840       183
37.860       190
37.880       207
37.900       220
37.920       317
37.940       393
37.960       503
37.980       640
38.000       603
38.020       683
38.040       696
38.060       783
38.080       570
38.100       586
38.120       516
38.140       420
38.160       456
38.180       307
38.200       223
38.220       180
38.240       163
38.260       140
38.280       117
38.300       110
38.320        93
38.340        57
38.360        90
38.380       147
38.400        60
38.420        97
38.440        87
38.460        97
38.480        97
38.500        63
38.520        83
38.540        80
38.560        93
38.580        83
38.600        60
38.620        70
38.640        70
38.660        83
38.680        97
38.700       120
38.720        87
38.740       103
38.760        80
38.780        80
38.800        53
38.820        70
38.840        47
38.860       100
38.880        80
38.900        97
38.920        70
38.940       110
38.960        53
38.980       100
39.000        80
39.020        80
39.040        80
39.060        93
39.080        90
39.100        77
39.120       100
39.140        90
39.160        77
39.180        63
39.200        70
39.220        73
39.240        90
39.260       107
39.280        77
39.300       130
39.320        53
39.340        83
39.360        70
39.380        90
39.400       103
39.420       100
39.440        77
39.460        67
39.480       107
39.500        67
39.520        67
39.540        77
39.560        70
39.580        87
39.600        63
39.620        67
39.640        63
39.660        70
39.680        63
39.700        67
39.720        73
39.740        90
39.760        90
39.780        73
39.800        90
39.820        87
39.840       107
39.860        83
39.880        93
39.900        50
39.920       100
39.940        63
39.960        90
39.980        73
40.000        60
40.020       103
40.040        93
40.060        67
40.080        83
40.100       117
40.120        80
40.140        80
40.160        57
40.180        63
40.200        90
40.220       103
40.240        47
40.260        57
40.280        87
40.300        90
40.320        60
40.340        77
40.360        77
40.380       123
40.400        93
40.420        97
40.440        53
40.460        97
40.480        90
40.500        87
40.520       127
40.540        77
40.560        70
40.580       100
40.600        93
40.620        87
40.640        83
40.660        77
40.680        87
40.700       107
40.720        90
40.740        90
40.760       100
40.780        57
40.800       100
40.820        90
40.840        70
40.860       153
40.880       117
40.900       127
40.920       140
40.940       203
40.960       203
40.980       187
41.000       193
41.020       273
41.040       270
41.060       353
41.080       413
41.100       516
41.120       573
41.140       686
41.160       706
41.180       836
41.200       936
41.220      1066
41.240       960
41.260      1006
41.280       786
41.300       823
41.320       606
41.340       516
41.360       493
41.380       353
41.400       343
41.420       267
41.440       183
41.460       170
41.480       153
41.500       133
41.520        63
41.540        87
41.560       113
41.580        93
41.600        83
41.620        53
41.640        70
41.660       100
41.680        77
41.700        83
41.720        70
41.740       110
41.760        90
41.780        90
41.800        87
41.820        97
41.840        73
41.860        80
41.880        63
41.900        87
41.920       110
41.940        80
41.960        67
41.980        90
42.000        60
42.020        83
42.040        70
42.060       103
42.080        70
42.100       100
42.120        63
42.140        57
42.160        87
42.180        63
42.200        83
42.220        70
42.240        60
42.260        67
42.280        80
42.300        73
42.320        93
42.340        87
42.360        53
42.380        50
42.400        53
42.420        87
42.440        70
42.460        80
42.480        63
42.500        60
42.520        80
42.540        53
42.560        63
42.580        57
42.600        67
42.620        60
42.640        80
42.660        50
42.680        77
42.700        50
42.720        63
42.740        50
42.760        63
42.780        93
42.800        73
42.820        57
42.840        77
42.860        87
42.880        73
42.900        77
42.920        73
42.940        50
42.960        83
42.980        63
43.000       107
43.020       107
43.040        80
43.060        93
43.080        53
43.100       107
43.120        57
43.140        73
43.160        93
43.180       123
43.200        83
43.220        80
43.240        70
43.260        73
43.280        77
43.300        60
43.320        80
43.340        47
43.360        63
43.380        67
43.400        80
43.420        80
43.440        77
43.460        37
43.480        80
43.500        60
43.520        63
43.540        60
43.560        57
43.580        37
43.600        57
43.620        50
43.640        47
43.660        80
43.680        70
43.700        63
43.720        60
43.740        60
43.760        60
43.780        43
43.800        53
43.820        53
43.840        50
43.860        60
43.880        73
43.900        80
43.920        47
43.940        53
43.960        53
43.980        47
44.000        67
44.020        53
44.040        53
44.060        43
44.080        83
44.100        77
44.120        80
44.140        57
44.160        77
44.180        83
44.200        40
44.220        63
44.240        43
44.260        70
44.280        70
44.300        57
44.320        63
44.340        90
44.360        67
44.380        57
44.400        70
44.420        87
44.440        90
44.460        60
44.480        77
44.500        47
44.520        53
44.540        73
44.560        63
44.580        40
44.600        57
44.620        77
44.640        47
44.660        73
44.680        67
44.700        83
44.720        67
44.740        37
44.760        57
44.780        47
44.800        87
44.820        60
44.840        60
44.860        60
44.880        67
44.900        60
44.920        53
44.940        53
44.960        57
44.980        43
45.000        63
45.020        67
45.040        90
45.060        73
45.080        53
45.100        83
45.120        60
45.140        70
45.160        77
45.180        70
45.200        60
45.220        83
45.240        87
45.260        67
45.280        80
45.300        60
45.320        53
45.340        60
45.360        50
45.380        60
45.400        47
45.420        60
45.440        73
45.460        67
45.480        60
45.500        87
45.520        63
45.540        33
45.560        63
45.580        77
45.600        67
45.620        47
45.640        67
45.660        73
45.680        63
45.700        93
45.720        77
45.740        57
45.760        57
45.780        43
45.800        60
45.820        63
45.840        80
45.860        73
45.880        80
45.900        77
45.920        57
45.940        73
45.960        43
45.980        57
46.000        50
46.020        53
46.040        53
46.060        83
46.080        87
46.100        60
46.120        60
46.140        63
46.160        57
46.180        57
46.200        63
46.220        57
46.240        77
46.260        57
46.280        70
46.300        80
46.320        57
46.340        63
46.360        70
46.380        70
46.400        57
46.420        80
46.440        60
46.460        77
46.480        60
46.500        63
46.520        77
46.540        90
46.560        40
46.580        63
46.600        80
46.620        60
46.640        90
46.660        67
46.680        57
46.700        80
46.720        57
46.740        60
46.760       100
46.780       117
46.800       103
46.820        83
46.840       107
46.860        90
46.880        80
46.900       110
46.920        73
46.940        80
46.960        87
46.980        97
47.000        87
47.020       110
47.040       147
47.060       140
47.080       153
47.100       147
47.120       213
47.140       267
47.160       583
47.180       846
47.200      1193
47.220      1013
47.240       730
47.260       513
47.280       323
47.300       240
47.320       173
47.340       197
47.360       130
47.380       150
47.400       123
47.420       127
47.440        97
47.460       100
47.480        93
47.500        83
47.520       107
47.540       110
47.560       100
47.580       103
47.600       100
47.620        90
47.640       110
47.660        63
47.680        50
47.700        80
47.720        73
47.740        63
47.760        90
47.780        60
47.800        90
47.820        67
47.840        57
47.860        70
47.880        97
47.900        93
47.920        57
47.940        63
47.960        80
47.980        87
48.000        53
48.020        40
48.040        37
48.060        77
48.080        63
48.100        50
48.120        43
48.140        63
48.160        93
48.180        90
48.200       100
48.220        90
48.240        87
48.260        93
48.280        60
48.300        77
48.320        67
48.340        53
48.360        97
48.380        57
48.400        60
48.420        93
48.440        60
48.460        90
48.480        67
48.500        90
48.520        63
48.540        70
48.560       100
48.580        50
48.600        67
48.620        63
48.640        37
48.660        80
48.680        57
48.700        53
48.720        77
48.740        73
48.760        43
48.780        53
48.800        83
48.820        57
48.840        43
48.860        57
48.880        43
48.900        77
48.920        70
48.940        70
48.960        60
48.980        80
49.000        77
49.020        90
49.040        50
49.060        47
49.080        57
49.100        77
49.120        63
49.140        80
49.160        47
49.180        30
49.200        77
49.220        47
49.240        77
49.260        70
49.280        63
49.300        83
49.320        43
49.340       103
49.360        70
49.380        57
49.400        77
49.420        57
49.440        50
49.460        60
49.480        57
49.500        90
49.520        77
49.540        47
49.560        80
49.580        60
49.600        57
49.620        67
49.640        63
49.660        77
49.680        33
49.700        77
49.720        80
49.740        67
49.760        63
49.780        70
49.800        70
49.820        57
49.840        87
49.860        87
49.880        60
49.900        83
49.920        77
49.940        60
49.960        57
49.980        43
50.000        50
50.020        73
50.040        73
50.060        53
50.080        63
50.100        47
50.120        53
50.140        50
50.160        53
50.180        50
50.200        60
50.220        53
50.240        60
50.260        67
50.280        73
50.300        70
50.320        63
50.340        63
50.360        63
50.380        50
50.400        37
50.420        60
50.440        53
50.460        40
50.480        57
50.500        97
50.520        50
50.540        40
50.560        70
50.580        97
50.600        83
50.620       100
50.640        97
50.660       133
50.680       213
50.700       217
50.720       247
50.740       270
50.760       283
50.780       357
50.800       247
50.820       307
50.840       287
50.860       303
50.880       237
50.900       303
50.920       317
50.940       273
50.960       300
50.980       290
51.000       283
51.020       260
51.040       313
51.060       320
51.080       303
51.100       267
51.120       327
51.140       230
51.160       247
51.180       290
51.200       313
51.220       297
51.240       280
51.260       247
51.280       313
51.300       243
51.320       290
51.340       307
51.360       323
51.380       357
51.400       300
51.420       343
51.440       267
51.460       310
51.480       327
51.500       333
51.520       250
51.540       340
51.560       297
51.580       340
51.600       280
51.620       313
51.640       297
51.660       327
51.680       353
51.700       263
51.720       357
51.740       327
51.760       277
51.780       277
51.800       343
51.820       363
51.840       377
51.860       320
51.880       303
51.900       323
51.920       417
51.940       423
51.960       380
51.980       343
52.000       320
52.020       347
52.040       426
52.060       523
52.080       443
52.100       490
52.120       407
52.140       486
52.160       506
52.180       543
52.200       523
52.220       636
52.240       793
52.260       910
52.280       976
52.300      1246
52.320      1623
52.340      1919
52.360      2346
52.380      2759
52.400      3445
52.420      4258
52.440      5238
52.460      6244
52.480      7600
52.500      9726
52.520     15031
52.540     32187
52.560     68789
52.580    103229
52.600    117253
52.620    103848
52.640     66240
52.660     33137
52.680     28379
52.700     42540
52.720     60243
52.740     66147
52.760     57204
52.780     35559
52.800     16074
52.820      7900
52.840      5494
52.860      4415
52.880      3365
52.900      2822
52.920      2049
52.940      1433
52.960      1263
52.980      1063
53.000       963
53.020       670
53.040       750
53.060       626
53.080       640
53.100       633
53.120       613
53.140       576
53.160       400
53.180       483
53.200       453
53.220       400
53.240       463
53.260       423
53.280       390
53.300       440
53.320       403
53.340       407
53.360       397
53.380       337
53.400       357
53.420       387
53.440       383
53.460       343
53.480       337
53.500       337
53.520       307
53.540       263
53.560       323
53.580       303
53.600       287
53.620       310
53.640       310
53.660       253
53.680       320
53.700       273
53.720       320
53.740       273
53.760       247
53.780       310
53.800       287
53.820       267
53.840       213
53.860       267
53.880       260
53.900       300
53.920       227
53.940       203
53.960       290
53.980       250
54.000       190
54.020       250
54.040       213
54.060       257
54.080       233
54.100       257
54.120       220
54.140       213
54.160       227
54.180       223
54.200       187
54.220       290
54.240       207
54.260       247
54.280       250
54.300       237
54.320       237
54.340       243
54.360       213
54.380       207
54.400       210
54.420       187
54.440       250
54.460       230
54.480       223
54.500       203
54.520       230
54.540       250
54.560       200
54.580       203
54.600       177
54.620       200
54.640       247
54.660       223
54.680       327
54.700       330
54.720       337
54.740       390
54.760       380
54.780       493
54.800       486
54.820       510
54.840       526
54.860       490
54.880       596
54.900       576
54.920       530
54.940       476
54.960       486
54.980       420
55.000       337
55.020       393
55.040       357
55.060       343
55.080       337
55.100       193
55.120       247
55.140       290
55.160       240
55.180       210
55.200       177
55.220       193
55.240       173
55.260       173
55.280       183
55.300       230
55.320       127
55.340       173
55.360       153
55.380       187
55.400       180
55.420       170
55.440       207
55.460       187
55.480       157
55.500       187
55.520       173
55.540       167
55.560       223
55.580       190
55.600       190
55.620       140
55.640       197
55.660       137
55.680       127
55.700       170
55.720       173
55.740       163
55.760       120
55.780       163
55.800       137
55.820       143
55.840       163
55.860       177
55.880       183
55.900       167
55.920       183
55.940       177
55.960       183
55.980       160
56.000       160
56.020       120
56.040       137
56.060       173
56.080       177
56.100       150
56.120       170
56.140       157
56.160       167
56.180       157
56.200       153
56.220       157
56.240       110
56.260       107
56.280       160
56.300       150
56.320       197
56.340       177
56.360       207
56.380       143
56.400       133
56.420       147
56.440       180
56.460       153
56.480       157
56.500       120
56.520       147
56.540       173
56.560       197
56.580       143
56.600       137
56.620       130
56.640       137
56.660       210
56.680       110
56.700       153
56.720       153
56.740       120
56.760       130
56.780       160
56.800       157
56.820       140
56.840       167
56.860       167
56.880       177
56.900       150
56.920       127
56.940       137
56.960       133
56.980       173
57.000       163
57.020       117
57.040       110
57.060       163
57.080       157
57.100       147
57.120        97
57.140       150
57.160       113
57.180       143
57.200       133
57.220       137
57.240       137
57.260        93
57.280       140
57.300       123
57.320       100
57.340       163
57.360       163
57.380       127
57.400       120
57.420       143
57.440       117
57.460       120
57.480       130
57.500       133
57.520       170
57.540       113
57.560       143
57.580       150
57.600       133
57.620       143
57.640       110
57.660       110
57.680       133
57.700       117
57.720       147
57.740        90
57.760       143
57.780       153
57.800       150
57.820       127
57.840        87
57.860       147
57.880        77
57.900       153
57.920        97
57.940        97
57.960       120
57.980       103
58.000       127
58.020       103
58.040       117
58.060       127
58.080       103
58.100       130
58.120       107
58.140       117
58.160       100
58.180       110
58.200       123
58.220       137
58.240        97
58.260       133
58.280       123
58.300       127
58.320       117
58.340        90
58.360        93
58.380        97
58.400       110
58.420       123
58.440        73
58.460       100
58.480       100
58.500       127
58.520       103
58.540        97
58.560       120
58.580        97
58.600       123
58.620       130
58.640       133
58.660       150
58.680       140
58.700       103
58.720       107
58.740       110
58.760        77
58.780       113
58.800       117
58.820       123
58.840       147
58.860        80
58.880       117
58.900       110
58.920       100
58.940        80
58.960        83
58.980        90
59.000        77
59.020        90
59.040       113
59.060       110
59.080       110
59.100       113
59.120        90
59.140       107
59.160        90
59.180       103
59.200       100
59.220       107
59.240        80
59.260       100
59.280        90
59.300       100
59.320        90
59.340       123
59.360        73
59.380       100
59.400       117
59.420        83
59.440       107
59.460       127
59.480        87
59.500       127
59.520        80
59.540        83
59.560       100
59.580        93
59.600       107
59.620        67
59.640        90
59.660        87
59.680       103
59.700       140
59.720        90
59.740        97
59.760       100
59.780       100
59.800        90
59.820        97
59.840        87
59.860        90
59.880        90
59.900       110
59.920       163
59.940        70
59.960         0
59.980         0
60.000         0
