20.000       573
20.020       473
20.040       470
20.060       556
20.080       563
20.100       486
20.120       566
20.140       483
20.160       493
20.180       583
20.200       510
20.220       490
20.240       556
20.260       466
20.280       530
20.300       536
20.320       540
20.340       500
20.360       473
20.380       526
20.400       523
20.420       483
20.440       473
20.460       536
20.480       520
20.500       456
20.520       513
20.540       530
20.560       436
20.580       483
20.600       463
20.620       426
20.640       393
20.660       483
20.680       480
20.700       506
20.720       490
20.740       440
20.760       520
20.780       460
20.800       446
20.820       436
20.840       513
20.860       433
20.880       433
20.900       430
20.920       540
20.940       377
20.960       486
20.980       476
21.000       373
21.020       453
21.040       510
21.060       493
21.080       500
21.100       446
21.120       436
21.140       436
21.160       407
21.180       460
21.200       426
21.220       456
21.240       480
21.260       436
21.280       563
21.300       423
21.320       443
21.340       470
21.360       430
21.380       523
21.400       496
21.420       476
21.440       417
21.460       483
21.480       410
21.500       463
21.520       413
21.540       460
21.560       420
21.580       340
21.600       490
21.620       400
21.640       417
21.660       300
21.680       470
21.700       367
21.720       357
21.740       393
21.760       430
21.780       370
21.800       360
21.820       456
21.840       433
21.860       337
21.880       407
21.900       496
21.920       417
21.940       413
21.960       426
21.980       393
22.000       436
22.020       397
22.040       410
22.060       436
22.080       367
22.100       533
22.120       410
22.140       350
22.160       363
22.180       340
22.200       433
22.220       353
22.240       373
22.260       387
22.280       367
22.300       400
22.320       330
22.340       466
22.360       367
22.380       347
22.400       400
22.420       433
22.440       323
22.460       310
22.480       370
22.500       347
22.520       333
22.540       373
22.560       383
22.580       340
22.600       387
22.620       360
22.640       347
22.660       410
22.680       340
22.700       400
22.720       300
22.740       417
22.760       403
22.780       420
22.800       380
22.820       363
22.840       387
22.860       440
22.880       303
22.900       370
22.920       380
22.940       390
22.960       337
22.980       380
23.000       390
23.020       360
23.040       377
23.060       380
23.080       417
23.100       267
23.120       380
23.140       377
23.160       430
23.180       337
23.200       273
23.220       357
23.240       387
23.260       317
23.280       353
23.300       340
23.320       403
23.340       313
23.360       320
23.380       337
23.400       313
23.420       343
23.440       323
23.460       357
23.480       283
23.500       307
23.520       367
23.540       363
23.560       300
23.580       380
23.600       460
23.620       367
23.640       310
23.660       333
23.680       330
23.700       387
23.720       367
23.740       377
23.760       383
23.780       353
23.800       350
23.820       340
23.840       380
23.860       343
23.880       307
23.900       303
23.920       310
23.940       337
23.960       443
23.980       270
24.000       333
24.020       420
24.040       363
24.060       327
24.080       297
24.100       370
24.120       303
24.140       347
24.160       337
24.180       330
24.200       436
24.220       280
24.240       390
24.260       303
24.280       370
24.300       347
24.320       270
24.340       283
24.360       360
24.380       330
24.400       297
24.420       307
24.440       323
24.460       367
24.480       290
24.500       263
24.520       313
24.540       287
24.560       333
24.580       377
24.600       363
24.620       323
24.640       360
24.660       330
24.680       350
24.700       313
24.720       343
24.740       353
24.760       337
24.780       387
24.800       400
24.820       420
24.840       436
24.860       380
24.880       460
24.900       516
24.920       420
24.940       393
24.960       360
24.980       397
25.000       343
25.020       287
25.040       313
25.060       327
25.080       310
25.100       327
25.120       303
25.140       333
25.160       293
25.180       353
25.200       293
25.220       283
25.240       310
25.260       280
25.280       263
25.300       240
25.320       247
25.340       250
25.360       260
25.380       307
25.400       250
25.420       270
25.440       243
25.460       310
25.480       280
25.500       250
25.520       227
25.540       293
25.560       280
25.580       240
25.600       277
25.620       283
25.640       250
25.660       233
25.680       223
25.700       270
25.720       220
25.740       253
25.760       233
25.780       193
25.800       243
25.820       233
25.840       190
25.860       230
25.880       233
25.900       250
25.920       257
25.940       230
25.960       237
25.980       210
26.000       207
26.020       210
26.040       203
26.060       187
26.080       223
26.100       180
26.120       217
26.140       180
26.160       243
26.180       270
26.200       217
26.220       163
26.240       187
26.260       207
26.280       233
26.300       203
26.320       257
26.340       270
26.360       263
26.380       207
26.400       183
26.420       250
26.440       187
26.460       220
26.480       223
26.500       277
26.520       220
26.540       267
26.560       290
26.580       313
26.600       283
26.620       293
26.640       240
26.660       250
26.680       177
26.700       227
26.720       190
26.740       210
26.760       207
26.780       267
26.800       203
26.820       180
26.840       213
26.860       210
26.880       187
26.900       220
26.920       193
26.940       157
26.960       217
26.980       180
27.000       167
27.020       187
27.040       167
27.060       123
27.080       207
27.100       130
27.120       207
27.140       177
27.160       140
27.180       197
27.200       140
27.220       163
27.240       200
27.260       190
27.280       150
27.300       190
27.320       153
27.340       193
27.360       200
27.380       180
27.400       173
27.420       147
27.440       187
27.460       160
27.480       157
27.500       217
27.520       143
27.540       163
27.560       200
27.580       133
27.600       197
27.620       177
27.640       170
27.660       173
27.680       220
27.700       217
27.720       180
27.740       197
27.760       170
27.780       123
27.800       147
27.820       180
27.840       127
27.860       150
27.880       153
27.900       167
27.920       167
27.940       147
27.960       163
27.980       207
28.000       207
28.020       163
28.040       123
28.060       167
28.080       120
28.100       190
28.120       167
28.140       170
28.160       217
28.180       153
28.200       173
28.220       150
28.240       153
28.260       137
28.280       213
28.300       140
28.320       167
28.340       140
28.360       173
28.380       117
28.400       143
28.420       147
28.440       130
28.460       173
28.480       147
28.500       167
28.520       170
28.540       123
28.560       207
28.580       130
28.600       123
28.620       193
28.640       137
28.660       227
28.680       177
28.700       117
28.720       193
28.740       170
28.760       217
28.780       160
28.800       163
28.820       187
28.840       133
28.860       170
28.880       157
28.900       143
28.920       167
28.940       173
28.960       177
28.980       157
29.000       160
29.020       177
29.040       190
29.060       177
29.080       207
29.100       193
29.120       207
29.140       173
29.160       227
29.180       213
29.200       207
29.220       273
29.240       243
29.260       293
29.280       387
29.300       380
29.320       446
29.340       546
29.360       573
29.380       526
29.400       603
29.420       496
29.440       476
29.460       363
29.480       323
29.500       307
29.520       230
29.540       233
29.560       223
29.580       207
29.600       177
29.620       153
29.640       140
29.660       157
29.680       153
29.700       170
29.720       103
29.740       127
29.760       150
29.780       143
29.800       147
29.820       137
29.840       153
29.860       120
29.880       203
29.900       183
29.920       140
29.940       147
29.960       170
29.980       140
30.000       183
30.020       153
30.040       193
30.060       167
30.080       117
30.100       117
30.120       160
30.140       137
30.160       120
30.180       123
30.200       117
30.220       170
30.240       203
30.260       160
30.280       180
30.300       127
30.320       173
30.340       157
30.360       117
30.380       160
30.400       120
30.420       160
30.440       120
30.460       157
30.480       170
30.500       160
30.520       203
30.540       170
30.560       173
30.580       170
30.600       163
30.620       187
30.640       190
30.660       260
30.680       233
30.700       207
30.720       223
30.740       297
30.760       217
30.780       170
30.800       183
30.820       170
30.840       147
30.860       177
30.880       190
30.900       170
30.920       153
30.940       150
30.960       157
30.980       167
31.000       143
31.020       160
31.040       123
31.060       167
31.080       190
31.100       140
31.120       183
31.140       183
31.160       140
31.180       143
31.200       177
31.220       150
31.240       147
31.260       123
31.280       173
31.300       153
31.320       160
31.340       200
31.360       147
31.380       153
31.400       150
31.420       143
31.440       173
31.460       133
31.480       123
31.500       167
31.520       133
31.540       183
31.560       153
31.580       133
31.600       163
31.620       150
31.640       133
31.660       163
31.680       150
31.700       153
31.720       187
31.740       207
31.760       137
31.780       143
31.800       190
31.820       183
31.840       137
31.860       197
31.880       220
31.900       160
31.920       187
31.940       177
31.960       150
31.980       193
32.000       173
32.020       180
32.040       230
32.060       343
32.080       480
32.100       736
32.120       743
32.140       643
32.160       417
32.180       297
32.200       233
32.220       187
32.240       197
32.260       197
32.280       170
32.300       183
32.320       160
32.340       160
32.360       177
32.380       173
32.400       173
32.420       147
32.440       150
32.460       163
32.480       150
32.500       157
32.520       167
32.540       200
32.560       143
32.580       153
32.600       160
32.620       127
32.640       163
32.660       163
32.680       150
32.700       180
32.720       137
32.740       150
32.760       173
32.780       190
32.800       163
32.820       180
32.840       193
32.860       123
32.880       190
32.900       150
32.920       187
32.940       127
32.960       180
32.980       157
33.000       150
33.020       143
33.040       173
33.060       173
33.080       153
33.100       163
33.120       170
33.140       150
33.160       177
33.180       153
33.200       137
33.220       183
33.240       167
33.260       157
33.280       163
33.300       137
33.320       130
33.340       137
33.360       123
33.380       200
33.400       110
33.420       160
33.440       190
33.460       157
33.480       150
33.500       167
33.520       147
33.540       143
33.560       130
33.580       113
33.600       180
33.620       147
33.640       177
33.660       183
33.680       150
33.700       157
33.720       170
33.740       113
33.760       157
33.780       140
33.800       137
33.820       183
33.840       153
33.860       157
33.880       137
33.900       117
33.920       160
33.940       137
33.960       160
33.980       163
34.000       180
34.020       143
34.040       143
34.060       160
34.080       193
34.100       163
34.120       147
34.140       150
34.160       177
34.180       147
34.200       160
34.220       163
34.240       147
34.260       117
34.280       183
34.300       130
34.320       180
34.340       107
34.360       163
34.380       223
34.400       230
34.420       210
34.440       287
34.460       333
34.480       287
34.500       243
34.520       323
34.540       247
34.560       247
34.580       283
34.600       280
34.620       300
34.640       293
34.660       293
34.680       220
34.700       277
34.720       287
34.740       303
34.760       313
34.780       240
34.800       287
34.820       317
34.840       323
34.860       320
34.880       300
34.900       300
34.920       290
34.940       347
34.960       327
34.980       290
35.000       320
35.020       267
35.040       287
35.060       357
35.080       270
35.100       303
35.120       323
35.140       387
35.160       357
35.180       373
35.200       333
35.220       373
35.240       327
35.260       410
35.280       387
35.300       483
35.320       536
35.340       713
35.360      1016
35.380      1163
35.400      1589
35.420      2079
35.440      2439
35.460      2836
35.480      3119
35.500      3535
35.520      3868
35.540      4415
35.560      5578
35.580     10393
35.600     27092
35.620     46331
35.640     52162
35.660     48524
35.680     33103
35.700     26693
35.720     28952
35.740     28665
35.760     23474
35.780     13001
35.800      5921
35.820      3805
35.840      2589
35.860      2229
35.880      1753
35.900      1406
35.920      1263
35.940       826
35.960       536
35.980       656
36.000       540
36.020       380
36.040       407
36.060       393
36.080       440
36.100       327
36.120       426
36.140       307
36.160       280
36.180       290
36.200       410
36.220       307
36.240       290
36.260       277
36.280       297
36.300       320
36.320       243
36.340       283
36.360       273
36.380       280
36.400       260
36.420       213
36.440       307
36.460       223
36.480       230
36.500       227
36.520       200
36.540       213
36.560       237
36.580       243
36.600       190
36.620       207
36.640       220
36.660       233
36.680       177
36.700       230
36.720       270
36.740       227
36.760       190
36.780       223
36.800       240
36.820       170
36.840       237
36.860       230
36.880       227
36.900       167
36.920       223
36.940       213
36.960       263
36.980       270
37.000       250
37.020       247
37.040       210
37.060       237
37.080       263
37.100       240
37.120       213
37.140       163
37.160       217
37.180       220
37.200       213
37.220       180
37.240       203
37.260       230
37.280       230
37.300       190
37.320       220
37.340       243
37.360       223
37.380       210
37.400       240
37.420       230
37.440       240
37.460       237
37.480       227
37.500       260
37.520       227
37.540       240
37.560       237
37.580       273
37.600       260
37.620       317
37.640       323
37.660       363
37.680       377
37.700       420
37.720       466
37.740       536
37.760       586
37.780       730
37.800       940
37.820      1046
37.840      1210
37.860      1503
37.880      1466
37.900      1636
37.920      1606
37.940      1319
37.960      1259
37.980      1123
38.000       773
38.020       750
38.040       576
38.060       446
38.080       483
38.100       273
38.120       273
38.140       317
38.160       280
38.180       220
38.200       280
38.220       210
38.240       207
38.260       223
38.280       213
38.300       230
38.320       237
38.340       230
38.360       220
38.380       213
38.400       230
38.420       220
38.440       153
38.460       190
38.480       207
38.500       197
38.520       193
38.540       210
38.560       180
38.580       153
38.600       200
38.620       193
38.640       220
38.660       163
38.680       243
38.700       197
38.720       170
38.740       173
38.760       200
38.780       180
38.800       210
38.820       183
38.840       157
38.860       197
38.880       170
38.900       227
38.920       190
38.940       203
38.960       123
38.980       190
39.000       223
39.020       210
39.040       230
39.060       177
39.080       157
39.100       220
39.120       217
39.140       213
39.160       220
39.180       197
39.200       190
39.220       197
39.240       210
39.260       223
39.280       210
39.300       243
39.320       253
39.340       207
39.360       240
39.380       260
39.400       237
39.420       277
39.440       280
39.460       263
39.480       243
39.500       230
39.520       177
39.540       163
39.560       167
39.580       170
39.600       210
39.620       173
39.640       177
39.660       147
39.680       153
39.700       190
39.720       153
39.740       143
39.760       157
39.780       187
39.800       147
39.820       157
39.840       193
39.860       143
39.880       153
39.900       147
39.920       193
39.940       200
39.960       177
39.980       203
40.000       173
40.020       127
40.040       153
40.060       150
40.080       170
40.100       160
40.120       130
40.140       153
40.160       153
40.180       100
40.200       147
40.220       177
40.240       163
40.260       173
40.280       163
40.300       140
40.320       197
40.340       210
40.360       163
40.380       147
40.400       120
40.420       147
40.440       150
40.460       143
40.480       180
40.500       170
40.520       177
40.540       140
40.560       150
40.580       150
40.600       157
40.620       153
40.640       133
40.660       123
40.680       147
40.700       140
40.720       183
40.740       163
40.760       123
40.780       143
40.800       150
40.820       143
40.840       153
40.860       180
40.880        93
40.900       157
40.920       160
40.940       127
40.960       140
40.980       153
41.000       113
41.020       173
41.040       147
41.060       180
41.080       147
41.100       133
41.120       133
41.140       137
41.160       100
41.180        83
41.200       147
41.220       180
41.240       160
41.260       167
41.280       167
41.300       150
41.320       170
41.340       150
41.360       143
41.380       127
41.400       197
41.420       163
41.440       143
41.460       177
41.480       133
41.500       167
41.520       137
41.540       167
41.560       163
41.580       123
41.600       163
41.620       170
41.640       137
41.660       150
41.680       140
41.700       137
41.720       143
41.740       160
41.760       137
41.780       153
41.800       217
41.820       157
41.840       147
41.860       193
41.880       143
41.900       163
41.920       140
41.940       167
41.960       120
41.980       153
42.000       133
42.020       147
42.040       130
42.060       167
42.080       110
42.100       173
42.120       137
42.140       107
42.160       143
42.180       153
42.200       123
42.220       123
42.240       127
42.260       150
42.280       163
42.300       143
42.320       153
42.340       137
42.360       137
42.380       157
42.400       167
42.420       130
42.440       133
42.460       113
42.480       153
42.500       123
42.520       137
42.540       113
42.560       113
42.580        90
42.600       100
42.620       127
42.640       130
42.660       143
42.680       140
42.700       130
42.720       150
42.740       127
42.760       137
42.780       140
42.800       133
42.820       123
42.840       153
42.860       163
42.880       157
42.900       150
42.920       187
42.940       150
42.960       153
42.980       180
43.000       177
43.020       187
43.040       180
43.060       210
43.080       190
43.100       203
43.120       243
43.140       220
43.160       243
43.180       183
43.200       137
43.220       193
43.240       217
43.260       183
43.280       150
43.300       140
43.320       130
43.340       123
43.360        93
43.380       133
43.400       137
43.420       140
43.440       130
43.460       107
43.480       133
43.500       140
43.520       137
43.540       117
43.560       120
43.580        73
43.600       103
43.620       137
43.640       140
43.660       183
43.680       110
43.700       140
43.720       143
43.740       123
43.760       117
43.780        97
43.800       117
43.820       103
43.840        83
43.860       113
43.880       153
43.900       103
43.920       140
43.940       143
43.960       127
43.980       107
44.000        97
44.020       153
44.040       153
44.060        93
44.080       127
44.100       113
44.120       130
44.140       120
44.160       120
44.180       130
44.200       123
44.220       123
44.240       123
44.260       147
44.280       107
44.300        90
44.320       140
44.340       110
44.360       100
44.380       107
44.400       153
44.420       130
44.440       133
44.460       107
44.480       160
44.500       130
44.520        87
44.540       117
44.560       113
44.580        83
44.600       123
44.620       120
44.640        73
44.660       140
44.680       107
44.700       110
44.720       130
44.740       103
44.760       100
44.780       120
44.800        80
44.820       127
44.840       120
44.860       103
44.880       133
44.900       117
44.920       107
44.940       137
44.960       110
44.980       120
45.000       113
45.020       100
45.040       170
45.060        90
45.080       127
45.100       110
45.120       137
45.140       110
45.160       117
45.180       157
45.200       123
45.220       107
45.240       103
45.260       137
45.280       123
45.300       110
45.320        93
45.340       100
45.360       160
45.380       150
45.400       130
45.420       127
45.440        93
45.460       150
45.480       160
45.500       150
45.520       127
45.540       153
45.560       133
45.580        87
45.600       100
45.620       150
45.640       100
45.660       117
45.680       120
45.700       120
45.720       120
45.740       100
45.760        83
45.780       113
45.800        80
45.820       110
45.840        83
45.860       120
45.880        97
45.900       123
45.920        97
45.940        63
45.960       123
45.980       140
46.000       117
46.020       100
46.040       110
46.060       127
46.080        87
46.100       127
46.120       113
46.140        77
46.160        87
46.180       107
46.200        83
46.220        87
46.240       113
46.260       107
46.280       147
46.300       120
46.320        83
46.340       160
46.360        93
46.380       130
46.400       143
46.420       107
46.440       123
46.460       123
46.480        97
46.500       113
46.520       147
46.540       113
46.560        93
46.580       130
46.600       113
46.620       123
46.640       100
46.660       123
46.680       113
46.700        97
46.720       113
46.740       127
46.760       160
46.780       150
46.800       153
46.820       127
46.840       107
46.860       130
46.880       140
46.900       130
46.920       147
46.940       137
46.960       123
46.980       150
47.000        97
47.020       143
47.040       150
47.060       153
47.080       160
47.100       187
47.120       167
47.140       160
47.160       187
47.180       183
47.200       137
47.220       157
47.240       200
47.260       167
47.280       190
47.300       207
47.320       160
47.340       180
47.360       183
47.380       200
47.400       200
47.420       220
47.440       293
47.460       257
47.480       303
47.500       337
47.520       263
47.540       210
47.560       257
47.580       217
47.600       190
47.620       183
47.640       133
47.660       150
47.680       170
47.700       147
47.720       130
47.740       100
47.760       130
47.780       117
47.800        93
47.820       113
47.840       120
47.860        93
47.880       110
47.900       130
47.920       127
47.940       153
47.960       130
47.980       147
48.000        87
48.020       117
48.040       150
48.060       117
48.080       117
48.100       137
48.120       133
48.140       167
48.160       113
48.180       127
48.200       130
48.220       180
48.240       147
48.260       190
48.280       180
48.300       113
48.320       177
48.340       193
48.360       220
48.380       180
48.400       207
48.420       177
48.440       247
48.460       187
48.480       263
48.500       233
48.520       297
48.540       183
48.560       230
48.580       193
48.600       150
48.620       183
48.640       190
48.660       117
48.680       140
48.700       130
48.720       133
48.740       110
48.760       130
48.780       117
48.800       163
48.820       117
48.840       127
48.860       107
48.880       113
48.900       137
48.920       113
48.940       127
48.960        77
48.980       117
49.000       107
49.020       123
49.040       130
49.060       127
49.080       130
49.100       130
49.120        83
49.140       103
49.160       133
49.180       137
49.200        97
49.220       147
49.240       107
49.260       103
49.280       133
49.300       123
49.320        90
49.340       100
49.360       113
49.380       157
49.400       110
49.420       117
49.440       150
49.460       127
49.480       120
49.500       120
49.520       117
49.540        93
49.560       130
49.580        90
49.600       117
49.620       100
49.640       143
49.660       147
49.680       120
49.700        93
49.720       120
49.740       117
49.760       127
49.780        93
49.800        93
49.820       120
49.840        97
49.860       133
49.880        93
49.900        93
49.920        93
49.940       110
49.960       137
49.980        90
50.000       117
50.020       130
50.040        93
50.060       117
50.080       110
50.100       123
50.120        97
50.140       127
50.160       120
50.180       120
50.200       130
50.220       107
50.240       107
50.260       103
50.280       107
50.300       133
50.320       150
50.340       117
50.360       130
50.380        93
50.400       140
50.420        87
50.440       110
50.460       110
50.480       163
50.500       123
50.520        90
50.540        83
50.560       133
50.580       127
50.600       137
50.620       103
50.640       120
50.660        97
50.680        60
50.700       117
50.720       127
50.740       123
50.760        93
50.780       140
50.800       107
50.820       100
50.840       140
50.860       123
50.880       113
50.900       127
50.920       147
50.940       150
50.960       150
50.980       110
51.000       137
51.020       123
51.040       130
51.060       127
51.080       120
51.100       133
51.120       107
51.140       140
51.160       123
51.180       130
51.200       133
51.220       107
51.240        93
51.260       107
51.280       133
51.300       110
51.320        90
51.340       100
51.360        87
51.380        97
51.400        93
51.420       117
51.440       107
51.460       120
51.480       110
51.500       160
51.520       117
51.540       117
51.560        87
51.580        93
51.600       103
51.620       117
51.640       107
51.660       123
51.680       110
51.700       133
51.720       127
51.740       140
51.760        80
51.780       117
51.800       120
51.820       127
51.840       163
51.860       120
51.880       117
51.900       143
51.920        90
51.940       123
51.960       103
51.980       107
52.000       103
52.020       107
52.040       117
52.060       103
52.080       127
52.100       117
52.120       100
52.140       127
52.160        83
52.180       103
52.200       107
52.220       123
52.240       117
52.260       157
52.280       130
52.300        97
52.320       113
52.340       137
52.360        90
52.380        90
52.400       123
52.420       133
52.440       120
52.460       107
52.480       110
52.500       160
52.520       123
52.540       153
52.560       137
52.580       120
52.600       120
52.620       147
52.640        87
52.660       110
52.680       130
52.700       110
52.720       150
52.740       107
52.760       147
52.780       113
52.800       163
52.820       110
52.840       133
52.860       140
52.880        97
52.900       107
52.920       130
52.940       117
52.960       107
52.980       130
53.000       113
53.020       103
53.040       127
53.060       113
53.080       130
53.100        73
53.120       107
53.140       160
53.160       120
53.180       140
53.200        93
53.220        83
53.240        80
53.260       117
53.280        87
53.300       130
53.320       147
53.340       133
53.360       137
53.380       103
53.400       113
53.420       107
53.440       123
53.460       153
53.480        90
53.500       120
53.520       103
53.540       117
53.560       123
53.580       110
53.600       123
53.620       103
53.640       163
53.660       140
53.680       160
53.700       127
53.720       133
53.740       123
53.760       120
53.780       143
53.800       143
53.820       107
53.840       123
53.860       117
53.880       177
53.900        90
53.920       117
53.940       120
53.960       123
53.980       173
54.000       120
54.020       100
54.040       143
54.060       120
54.080       150
54.100       110
54.120       107
54.140       130
54.160       127
54.180       130
54.200       123
54.220       107
54.240       143
54.260       187
54.280       123
54.300       183
54.320       173
54.340       213
54.360       203
54.380       220
54.400       217
54.420       240
54.440       290
54.460       363
54.480       420
54.500       433
54.520       413
54.540       493
54.560       613
54.580       586
54.600       653
54.620       766
54.640       766
54.660       773
54.680       710
54.700       700
54.720       693
54.740       576
54.760       483
54.780       500
54.800       526
54.820       410
54.840       413
54.860       343
54.880       330
54.900       293
54.920       227
54.940       197
54.960       180
54.980       227
55.000       157
55.020       207
55.040       207
55.060       153
55.080       160
55.100       153
55.120       143
55.140       167
55.160       153
55.180       140
55.200       163
55.220       147
55.240       123
55.260       140
55.280       137
55.300       170
55.320       153
55.340       143
55.360       157
55.380       123
55.400       127
55.420       137
55.440       140
55.460       103
55.480       147
55.500       147
55.520       157
55.540       147
55.560       127
55.580       113
55.600       147
55.620       140
55.640       137
55.660       143
55.680        83
55.700       103
55.720       107
55.740       130
55.760       153
55.780       137
55.800       127
55.820       100
55.840       103
55.860       137
55.880       143
55.900       153
55.920       140
55.940       100
55.960       137
55.980       117
56.000       113
56.020       117
56.040       113
56.060       153
56.080       100
56.100        97
56.120       110
56.140       130
56.160       113
56.180       110
56.200       117
56.220       167
56.240       150
56.260       147
56.280       153
56.300       103
56.320       117
56.340       120
56.360       150
56.380       130
56.400       190
56.420       133
56.440       107
56.460       113
56.480       137
56.500       150
56.520       183
56.540       187
56.560       137
56.580       133
56.600       183
56.620       153
56.640       153
56.660       157
56.680       113
56.700       173
56.720       127
56.740       117
56.760       153
56.780       130
56.800        97
56.820       133
56.840       137
56.860       207
56.880       133
56.900       143
56.920       113
56.940       127
56.960       130
56.980       137
57.000       130
57.020       147
57.040       120
57.060       150
57.080       127
57.100       167
57.120       130
57.140       127
57.160       177
57.180       123
57.200       173
57.220       133
57.240       133
57.260       157
57.280       167
57.300       193
57.320       220
57.340       147
57.360       187
57.380       223
57.400       150
57.420       190
57.440       193
57.460       160
57.480       173
57.500       140
57.520       177
57.540       133
57.560       203
57.580       173
57.600       137
57.620       153
57.640       133
57.660       110
57.680       137
57.700       133
57.720       147
57.740        77
57.760       133
57.780       153
57.800       130
57.820       153
57.840       137
57.860       103
57.880       103
57.900        87
57.920       150
57.940       127
57.960       117
57.980       147
58.000       107
58.020       110
58.040       157
58.060       120
58.080       143
58.100       133
58.120       150
58.140       110
58.160       113
58.180       130
58.200       130
58.220       117
58.240        97
58.260       157
58.280       147
58.300       117
58.320        93
58.340        90
58.360        90
58.380        77
58.400       130
58.420       133
58.440        80
58.460       120
58.480       133
58.500       130
58.520       143
58.540       123
58.560       120
58.580       103
58.600       103
58.620       117
58.640       110
58.660       147
58.680       120
58.700       120
58.720       113
58.740       113
58.760       113
58.780       140
58.800       127
58.820        90
58.840       117
58.860       100
58.880       100
58.900       130
58.920       100
58.940       103
58.960       153
58.980       100
59.000       133
59.020       163
59.040       143
59.060       130
59.080       130
59.100       130
59.120       120
59.140       130
59.160        87
59.180        97
59.200       113
59.220       123
59.240       147
59.260       120
59.280       127
59.300        63
59.320       100
59.340       113
59.360       100
59.380       117
59.400       143
59.420       110
59.440        93
59.460       113
59.480        90
59.500       107
59.520       117
59.540       137
59.560       120
59.580        97
59.600       107
59.620        83
59.640       123
59.660       147
59.680        93
59.700       143
59.720       120
59.740        70
59.760         0
59.780         0
59.800         0
59.820         0
59.840         0
59.860         0
59.880         0
59.900         0
59.920         0
59.940         0
59.960         0
59.980         0
60.000         0
