20.000         0
20.020         0
20.040         0
20.060         0
20.080         0
20.100         0
20.120         0
20.140         0
20.160         0
20.180         0
20.200         0
20.220        30
20.240       307
20.260       200
20.280       213
20.300       290
20.320       260
20.340       233
20.360       243
20.380       187
20.400       263
20.420       277
20.440       233
20.460       250
20.480       263
20.500       220
20.520       260
20.540       217
20.560       207
20.580       243
20.600       193
20.620       223
20.640       213
20.660       210
20.680       237
20.700       203
20.720       210
20.740       240
20.760       183
20.780       280
20.800       237
20.820       280
20.840       183
20.860       240
20.880       223
20.900       233
20.920       233
20.940       210
20.960       210
20.980       150
21.000       220
21.020       250
21.040       263
21.060       220
21.080       223
21.100       297
21.120       220
21.140       233
21.160       230
21.180       273
21.200       277
21.220       230
21.240       240
21.260       233
21.280       257
21.300       327
21.320       243
21.340       317
21.360       300
21.380       317
21.400       200
21.420       293
21.440       290
21.460       310
21.480       200
21.500       247
21.520       250
21.540       240
21.560       213
21.580       193
21.600       220
21.620       207
21.640       190
21.660       250
21.680       200
21.700       227
21.720       220
21.740       180
21.760       203
21.780       237
21.800       193
21.820       207
21.840       190
21.860       227
21.880       250
21.900       177
21.920       207
21.940       217
21.960       210
21.980       160
22.000       237
22.020       210
22.040       173
22.060       157
22.080       213
22.100       230
22.120       220
22.140       280
22.160       190
22.180       187
22.200       193
22.220       210
22.240       200
22.260       227
22.280       170
22.300       183
22.320       207
22.340       157
22.360       227
22.380       183
22.400       250
22.420       153
22.440       200
22.460       193
22.480       240
22.500       200
22.520       180
22.540       167
22.560       197
22.580       170
22.600       170
22.620       217
22.640       173
22.660       210
22.680       200
22.700       207
22.720       187
22.740       200
22.760       220
22.780       173
22.800       193
22.820       173
22.840       207
22.860       230
22.880       180
22.900       187
22.920       207
22.940       183
22.960       187
22.980       200
23.000       200
23.020       200
23.040       193
23.060       210
23.080       213
23.100       187
23.120       210
23.140       207
23.160       160
23.180       137
23.200       223
23.220       190
23.240       193
23.260       177
23.280       170
23.300       150
23.320       210
23.340       183
23.360       207
23.380       203
23.400       200
23.420       170
23.440       217
23.460       230
23.480       177
23.500       207
23.520       133
23.540       220
23.560       167
23.580       187
23.600       177
23.620       180
23.640       217
23.660       177
23.680       240
23.700       173
23.720       177
23.740       180
23.760       230
23.780       247
23.800       160
23.820       203
23.840       207
23.860       237
23.880       170
23.900       210
23.920       217
23.940       197
23.960       173
23.980       160
24.000       187
24.020       183
24.040       133
24.060       180
24.080       200
24.100       153
24.120       227
24.140       203
24.160       210
24.180       240
24.200       183
24.220       177
24.240       170
24.260       153
24.280       213
24.300       157
24.320       190
24.340       180
24.360       207
24.380       180
24.400       170
24.420       217
24.440       177
24.460       167
24.480       150
24.500       163
24.520       120
24.540       230
24.560       203
24.580       177
24.600       160
24.620       220
24.640       137
24.660       203
24.680       190
24.700       200
24.720       167
24.740       263
24.760       250
24.780       253
24.800       237
24.820       267
24.840       270
24.860       303
24.880       337
24.900       293
24.920       387
24.940       290
24.960       273
24.980       267
25.000       237
25.020       190
25.040       203
25.060       177
25.080       147
25.100       227
25.120       210
25.140       197
25.160       173
25.180       183
25.200       160
25.220       163
25.240       170
25.260       140
25.280       133
25.300       157
25.320       193
25.340       107
25.360       140
25.380       157
25.400       130
25.420       170
25.440       180
25.460       103
25.480       157
25.500       197
25.520       127
25.540       147
25.560       153
25.580       147
25.600       133
25.620       167
25.640       160
25.660       140
25.680       153
25.700       170
25.720       160
25.740       143
25.760       163
25.780       173
25.800       163
25.820       130
25.840       157
25.860       153
25.880       137
25.900       147
25.920       127
25.940       153
25.960       163
25.980       173
26.000       137
26.020       137
26.040       127
26.060       213
26.080       157
26.100       120
26.120       143
26.140       170
26.160       163
26.180       130
26.200       137
26.220       147
26.240       137
26.260       117
26.280       177
26.300       137
26.320       147
26.340       160
26.360       140
26.380       120
26.400       163
26.420       127
26.440       153
26.460       120
26.480       157
26.500        80
26.520       113
26.540       157
26.560       187
26.580       177
26.600       137
26.620       120
26.640       100
26.660       160
26.680       163
26.700       160
26.720       200
26.740       167
26.760       147
26.780       107
26.800       113
26.820       157
26.840       117
26.860       137
26.880       120
26.900        93
26.920        97
26.940       117
26.960       113
26.980       120
27.000       140
27.020       153
27.040       160
27.060       140
27.080       117
27.100       140
27.120       100
27.140       123
27.160       153
27.180       113
27.200       127
27.220        97
27.240       160
27.260       127
27.280       113
27.300       117
27.320       150
27.340       140
27.360       140
27.380       137
27.400       123
27.420        93
27.440       117
27.460       140
27.480       117
27.500       100
27.520        97
27.540       110
27.560        87
27.580       117
27.600       147
27.620       143
27.640       130
27.660        93
27.680       100
27.700       143
27.720       143
27.740       120
27.760       123
27.780       110
27.800       110
27.820       113
27.840       103
27.860       163
27.880       107
27.900       123
27.920       163
27.940       107
27.960       117
27.980       117
28.000       113
28.020       130
28.040       120
28.060       113
28.080       123
28.100       110
28.120       123
28.140        87
28.160       113
28.180        70
28.200       137
28.220       143
28.240       117
28.260        93
28.280        87
28.300       127
28.320       130
28.340        93
28.360       173
28.380       123
28.400        90
28.420       100
28.440       130
28.460       107
28.480       107
28.500       117
28.520       150
28.540       110
28.560       113
28.580       107
28.600       143
28.620       133
28.640       137
28.660       110
28.680       107
28.700       120
28.720       120
28.740       117
28.760       110
28.780       157
28.800       123
28.820       140
28.840       107
28.860       147
28.880       157
28.900       157
28.920       117
28.940       117
28.960       150
28.980       150
29.000       150
29.020       153
29.040       137
29.060       177
29.080       147
29.100       117
29.120       137
29.140       163
29.160       163
29.180       183
29.200       197
29.220       203
29.240       193
29.260       283
29.280       283
29.300       300
29.320       387
29.340       423
29.360       417
29.380       540
29.400       593
29.420       580
29.440       483
29.460       446
29.480       393
29.500       337
29.520       247
29.540       193
29.560       167
29.580       123
29.600       100
29.620       147
29.640       140
29.660       123
29.680       137
29.700        93
29.720       107
29.740        77
29.760       130
29.780        97
29.800       107
29.820       103
29.840        73
29.860       103
29.880       130
29.900       113
29.920       117
29.940       103
29.960       133
29.980       110
30.000        93
30.020       120
30.040        87
30.060       107
30.080       117
30.100        97
30.120       137
30.140        70
30.160        97
30.180        97
30.200        80
30.220       120
30.240        93
30.260       103
30.280       120
30.300        90
30.320        83
30.340       123
30.360       107
30.380       123
30.400       103
30.420        87
30.440       107
30.460        87
30.480       120
30.500       110
30.520        87
30.540       100
30.560       133
30.580        80
30.600       130
30.620       113
30.640       120
30.660       150
30.680        97
30.700       103
30.720       127
30.740       117
30.760       100
30.780       197
30.800        87
30.820       127
30.840       110
30.860        87
30.880       137
30.900        87
30.920        93
30.940       103
30.960       103
30.980        83
31.000       107
31.020       127
31.040        67
31.060        90
31.080        97
31.100       107
31.120       110
31.140        73
31.160       107
31.180        80
31.200        90
31.220        73
31.240       107
31.260        53
31.280       107
31.300        80
31.320       123
31.340        87
31.360        70
31.380        87
31.400       103
31.420       107
31.440        97
31.460       113
31.480       127
31.500       120
31.520        97
31.540        87
31.560       137
31.580       110
31.600        80
31.620       110
31.640        80
31.660        97
31.680       113
31.700        87
31.720       107
31.740        80
31.760       100
31.780       107
31.800       113
31.820        97
31.840        87
31.860        70
31.880        80
31.900        87
31.920        97
31.940        93
31.960       140
31.980        80
32.000        60
32.020       140
32.040        93
32.060        97
32.080        93
32.100        70
32.120       117
32.140        93
32.160        80
32.180       120
32.200        97
32.220       107
32.240       127
32.260        67
32.280       107
32.300        97
32.320        70
32.340       117
32.360        67
32.380       123
32.400       100
32.420       100
32.440        97
32.460       107
32.480        73
32.500        83
32.520       137
32.540        90
32.560        83
32.580        90
32.600        87
32.620       137
32.640       110
32.660       123
32.680        70
32.700        90
32.720        90
32.740       100
32.760        97
32.780        67
32.800       113
32.820        60
32.840        87
32.860       113
32.880        70
32.900        70
32.920        67
32.940       100
32.960        90
32.980       107
33.000        73
33.020        73
33.040       107
33.060        73
33.080        60
33.100        80
33.120        70
33.140        67
33.160       113
33.180        97
33.200        50
33.220        73
33.240        67
33.260        67
33.280        60
33.300        70
33.320        50
33.340       100
33.360        80
33.380        93
33.400        90
33.420       103
33.440        90
33.460        63
33.480        93
33.500        67
33.520        83
33.540       103
33.560        53
33.580        83
33.600        70
33.620        77
33.640       103
33.660        83
33.680        93
33.700        83
33.720        80
33.740       117
33.760        90
33.780        60
33.800       117
33.820        93
33.840        73
33.860        63
33.880        87
33.900        97
33.920        83
33.940        90
33.960        80
33.980        90
34.000        77
34.020        47
34.040       113
34.060        80
34.080       127
34.100       117
34.120        83
34.140        97
34.160       113
34.180        77
34.200       107
34.220        93
34.240       110
34.260       120
34.280        47
34.300        90
34.320        93
34.340       117
34.360        73
34.380        50
34.400        87
34.420       100
34.440        90
34.460       100
34.480        57
34.500        93
34.520       120
34.540        57
34.560        77
34.580       113
34.600        97
34.620        50
34.640        73
34.660        80
34.680        73
34.700        97
34.720        93
34.740        73
34.760        83
34.780       113
34.800        97
34.820       127
34.840        97
34.860       127
34.880        80
34.900        93
34.920        70
34.940       107
34.960        93
34.980        87
35.000        93
35.020        97
35.040        93
35.060        90
35.080        90
35.100        80
35.120        73
35.140       100
35.160        97
35.180       107
35.200       107
35.220        87
35.240        57
35.260        77
35.280        90
35.300        70
35.320       107
35.340        80
35.360       110
35.380        97
35.400        67
35.420        63
35.440        97
35.460        97
35.480        93
35.500       107
35.520       100
35.540        43
35.560        97
35.580       103
35.600        67
35.620        80
35.640        93
35.660       100
35.680       107
35.700        87
35.720        63
35.740        97
35.760       117
35.780       137
35.800       107
35.820       127
35.840       173
35.860        93
35.880       147
35.900       133
35.920       130
35.940       137
35.960       160
35.980       147
36.000       123
36.020       160
36.040        97
36.060       143
36.080       123
36.100        77
36.120        87
36.140       123
36.160        77
36.180        57
36.200        93
36.220       110
36.240        47
36.260       103
36.280        60
36.300        80
36.320        63
36.340        60
36.360        90
36.380        87
36.400        73
36.420        43
36.440        67
36.460        80
36.480        70
36.500       117
36.520        70
36.540        63
36.560        83
36.580        87
36.600        87
36.620        67
36.640        97
36.660        80
36.680        83
36.700        97
36.720        57
36.740        63
36.760        73
36.780        77
36.800        90
36.820        67
36.840        87
36.860        77
36.880        63
36.900        83
36.920        97
36.940        87
36.960       107
36.980        87
37.000        90
37.020        83
37.040        90
37.060        73
37.080        83
37.100        63
37.120        73
37.140       100
37.160        93
37.180        73
37.200        77
37.220        83
37.240        93
37.260        90
37.280        73
37.300        90
37.320        73
37.340       100
37.360        80
37.380        67
37.400       143
37.420        60
37.440        87
37.460        87
37.480        87
37.500       133
37.520       120
37.540       133
37.560       140
37.580       113
37.600       167
37.620       150
37.640       147
37.660       223
37.680       253
37.700       327
37.720       400
37.740       510
37.760       600
37.780       690
37.800      1123
37.820      1083
37.840      1116
37.860      1203
37.880      1090
37.900      1040
37.920       950
37.940       920
37.960       693
37.980       536
38.000       433
38.020       303
38.040       230
38.060       170
38.080       160
38.100       157
38.120       110
38.140       157
38.160       110
38.180       127
38.200       117
38.220       110
38.240       147
38.260        70
38.280       107
38.300        97
38.320       120
38.340        97
38.360       107
38.380       127
38.400       140
38.420       110
38.440       110
38.460       127
38.480       130
38.500        77
38.520       123
38.540        83
38.560        47
38.580       100
38.600        93
38.620       127
38.640       133
38.660        77
38.680        83
38.700        83
38.720        40
38.740        83
38.760        57
38.780       100
38.800        87
38.820       110
38.840        97
38.860        80
38.880       123
38.900        90
38.920        77
38.940       107
38.960        97
38.980        97
39.000        97
39.020        70
39.040       117
39.060        93
39.080       137
39.100       127
39.120       120
39.140       133
39.160       103
39.180        67
39.200       133
39.220        97
39.240       150
39.260       147
39.280       157
39.300       173
39.320       200
39.340       167
39.360       177
39.380       197
39.400       183
39.420       177
39.440       160
39.460       203
39.480       203
39.500       147
39.520       137
39.540       177
39.560       113
39.580       143
39.600        93
39.620        73
39.640        93
39.660        73
39.680        77
39.700        90
39.720        93
39.740        70
39.760        70
39.780       113
39.800        70
39.820       100
39.840        90
39.860        97
39.880        70
39.900        73
39.920        60
39.940        93
39.960       120
39.980        80
40.000       110
40.020        77
40.040        60
40.060        87
40.080       113
40.100        97
40.120        73
40.140        77
40.160        90
40.180        93
40.200        53
40.220        63
40.240        73
40.260        80
40.280        93
40.300        97
40.320        77
40.340        67
40.360        83
40.380       117
40.400        70
40.420        77
40.440        90
40.460        67
40.480       120
40.500        80
40.520       100
40.540        80
40.560        77
40.580        53
40.600        53
40.620        70
40.640        73
40.660        97
40.680        50
40.700        93
40.720        67
40.740        87
40.760        87
40.780       103
40.800        80
40.820        73
40.840        93
40.860        50
40.880        70
40.900        70
40.920        80
40.940        33
40.960        70
40.980        63
41.000        67
41.020        80
41.040        87
41.060        83
41.080        80
41.100       113
41.120        80
41.140        83
41.160        50
41.180        97
41.200        70
41.220        97
41.240        50
41.260        80
41.280        77
41.300        83
41.320        70
41.340        83
41.360       100
41.380        83
41.400        87
41.420        80
41.440        93
41.460        70
41.480        97
41.500        60
41.520        83
41.540        77
41.560        70
41.580       107
41.600        73
41.620        83
41.640        97
41.660        70
41.680        80
41.700        57
41.720        80
41.740        67
41.760        87
41.780        90
41.800        67
41.820        60
41.840        57
41.860        90
41.880        60
41.900        80
41.920        73
41.940        53
41.960        97
41.980        60
42.000        73
42.020        83
42.040        87
42.060        70
42.080        87
42.100        43
42.120        77
42.140        80
42.160        60
42.180        60
42.200        73
42.220       110
42.240        53
42.260        83
42.280        77
42.300        80
42.320        80
42.340        67
42.360        77
42.380       107
42.400        87
42.420        93
42.440       117
42.460        53
42.480        80
42.500        67
42.520        70
42.540        83
42.560        70
42.580        90
42.600       103
42.620        87
42.640        73
42.660        93
42.680        90
42.700        73
42.720        57
42.740        67
42.760        93
42.780        93
42.800       100
42.820        97
42.840       110
42.860       103
42.880        70
42.900        97
42.920       100
42.940       113
42.960       110
42.980       113
43.000       117
43.020       127
43.040       143
43.060       140
43.080       107
43.100       137
43.120       150
43.140       153
43.160       220
43.180       203
43.200       147
43.220       107
43.240       130
43.260       150
43.280       130
43.300       113
43.320        73
43.340        73
43.360       127
43.380        83
43.400        50
43.420        87
43.440        67
43.460        50
43.480        70
43.500        80
43.520        83
43.540        67
43.560        67
43.580        97
43.600        63
43.620        87
43.640       107
43.660        70
43.680        80
43.700        73
43.720        93
43.740        80
43.760       110
43.780        73
43.800        87
43.820        50
43.840        67
43.860        83
43.880        70
43.900        93
43.920        77
43.940        63
43.960        87
43.980        73
44.000        77
44.020        97
44.040        67
44.060        73
44.080        93
44.100        60
44.120        67
44.140        43
44.160        60
44.180        70
44.200        63
44.220        70
44.240        80
44.260        77
44.280        53
44.300        97
44.320        53
44.340        67
44.360        57
44.380        80
44.400       113
44.420        53
44.440        63
44.460        90
44.480        60
44.500        80
44.520       100
44.540        80
44.560        90
44.580        80
44.600        90
44.620        77
44.640        87
44.660        73
44.680        90
44.700        57
44.720        60
44.740        77
44.760        50
44.780        80
44.800        60
44.820        83
44.840        87
44.860        87
44.880        53
44.900        67
44.920        90
44.940        50
44.960        73
44.980        63
45.000        83
45.020        67
45.040        77
45.060        73
45.080       100
45.100        60
45.120       107
45.140        70
45.160        70
45.180        87
45.200        80
45.220        83
45.240        97
45.260        67
45.280        50
45.300        47
45.320       133
45.340        87
45.360        73
45.380        70
45.400        63
45.420       113
45.440       100
45.460       110
45.480        73
45.500        77
45.520       103
45.540        67
45.560        97
45.580        63
45.600        60
45.620        83
45.640        93
45.660        80
45.680        73
45.700        53
45.720        97
45.740        80
45.760        77
45.780        43
45.800        97
45.820        50
45.840        87
45.860        70
45.880        77
45.900        47
45.920        83
45.940        60
45.960        83
45.980        97
46.000        70
46.020        63
46.040        70
46.060        87
46.080        83
46.100        47
46.120        63
46.140       110
46.160        40
46.180        77
46.200        80
46.220        60
46.240        73
46.260        77
46.280        67
46.300        63
46.320        87
46.340        70
46.360       107
46.380       103
46.400        83
46.420       100
46.440        90
46.460        73
46.480       103
46.500        77
46.520        77
46.540       107
46.560        90
46.580        83
46.600        53
46.620       100
46.640        77
46.660        93
46.680        77
46.700        87
46.720       113
46.740        63
46.760       123
46.780        73
46.800        73
46.820        93
46.840       113
46.860        87
46.880       107
46.900        83
46.920        93
46.940       100
46.960        93
46.980       117
47.000       103
47.020        87
47.040       117
47.060       160
47.080       153
47.100       120
47.120       113
47.140       107
47.160       110
47.180       120
47.200       117
47.220       167
47.240        93
47.260       127
47.280       110
47.300       157
47.320       123
47.340       160
47.360       163
47.380       153
47.400       183
47.420       203
47.440       180
47.460       157
47.480       247
47.500       223
47.520       300
47.540       183
47.560       213
47.580       223
47.600       227
47.620       180
47.640       193
47.660       133
47.680       153
47.700        90
47.720        80
47.740       100
47.760       107
47.780        77
47.800        90
47.820        60
47.840       110
47.860       103
47.880        53
47.900       130
47.920        97
47.940       107
47.960       113
47.980        77
48.000        73
48.020        70
48.040       103
48.060        90
48.080        83
48.100        57
48.120        67
48.140        93
48.160       117
48.180        93
48.200       123
48.220        70
48.240       100
48.260       133
48.280       120
48.300       117
48.320       130
48.340       153
48.360       130
48.380       140
48.400       140
48.420       177
48.440       227
48.460       247
48.480       200
48.500       193
48.520       183
48.540       220
48.560       200
48.580       187
48.600       160
48.620       113
48.640       173
48.660       127
48.680       113
48.700       147
48.720        90
48.740       100
48.760        77
48.780        87
48.800        80
48.820        97
48.840        63
48.860        83
48.880        90
48.900        97
48.920        87
48.940        97
48.960        73
48.980        90
49.000        77
49.020        83
49.040        63
49.060        80
49.080        73
49.100        63
49.120        93
49.140        93
49.160        73
49.180        77
49.200        83
49.220        80
49.240        60
49.260       103
49.280        80
49.300        70
49.320        70
49.340        67
49.360       110
49.380        93
49.400        53
49.420        77
49.440       103
49.460        60
49.480        60
49.500        77
49.520        93
49.540        70
49.560        87
49.580        77
49.600        70
49.620        50
49.640        73
49.660        70
49.680        73
49.700        53
49.720        67
49.740        77
49.760        80
49.780        87
49.800        73
49.820        70
49.840        67
49.860        87
49.880        67
49.900        80
49.920        50
49.940        77
49.960        73
49.980        73
50.000        53
50.020        73
50.040        83
50.060        97
50.080        83
50.100        63
50.120        83
50.140        73
50.160        90
50.180        97
50.200        87
50.220        67
50.240        53
50.260        53
50.280       100
50.300        73
50.320       100
50.340        50
50.360        57
50.380       113
50.400        60
50.420        67
50.440        97
50.460        93
50.480       100
50.500       100
50.520        73
50.540        60
50.560        63
50.580        70
50.600        97
50.620       107
50.640        80
50.660        50
50.680        63
50.700        60
50.720        73
50.740        97
50.760        37
50.780        77
50.800        40
50.820        67
50.840        70
50.860        60
50.880        53
50.900        77
50.920        77
50.940        63
50.960        73
50.980        77
51.000       107
51.020        97
51.040       103
51.060        97
51.080        87
51.100        67
51.120        93
51.140        80
51.160        77
51.180        77
51.200        97
51.220       103
51.240        70
51.260        77
51.280       100
51.300        80
51.320        67
51.340        80
51.360        80
51.380        70
51.400        77
51.420        87
51.440        83
51.460        83
51.480        83
51.500        63
51.520        70
51.540        87
51.560        73
51.580        90
51.600        87
51.620        73
51.640        67
51.660        60
51.680        87
51.700        63
51.720        83
51.740        97
51.760        83
51.780        67
51.800        83
51.820        60
51.840        97
51.860       103
51.880        63
51.900        63
51.920        87
51.940       123
51.960       100
51.980        60
52.000        97
52.020        80
52.040        80
52.060        90
52.080       107
52.100        67
52.120        57
52.140        80
52.160        80
52.180       110
52.200        73
52.220        77
52.240        90
52.260        63
52.280       110
52.300       100
52.320        87
52.340       103
52.360        67
52.380        87
52.400        77
52.420        77
52.440       100
52.460       100
52.480        90
52.500        87
52.520       113
52.540        60
52.560       113
52.580       130
52.600       107
52.620        90
52.640       123
52.660       107
52.680       103
52.700       110
52.720       110
52.740       117
52.760       100
52.780       123
52.800       117
52.820       100
52.840        70
52.860       120
52.880        90
52.900        77
52.920        97
52.940        77
52.960       107
52.980        83
53.000        77
53.020       100
53.040        87
53.060        83
53.080        87
53.100       107
53.120        90
53.140       103
53.160        83
53.180       103
53.200       100
53.220        83
53.240        83
53.260        83
53.280       100
53.300        97
53.320       107
53.340       103
53.360        80
53.380        67
53.400       110
53.420       137
53.440       120
53.460        67
53.480       123
53.500       100
53.520        80
53.540       107
53.560        80
53.580       100
53.600        80
53.620        90
53.640       107
53.660        77
53.680       100
53.700        93
53.720        70
53.740        83
53.760        70
53.780        83
53.800       123
53.820        93
53.840       100
53.860        97
53.880        97
53.900       107
53.920       103
53.940        90
53.960        60
53.980       100
54.000       127
54.020        83
54.040       113
54.060        63
54.080       117
54.100        87
54.120       107
54.140        97
54.160       120
54.180       150
54.200       127
54.220       140
54.240       163
54.260       177
54.280       193
54.300       197
54.320       230
54.340       270
54.360       323
54.380       400
54.400       413
54.420       526
54.440       770
54.460       730
54.480       750
54.500      1040
54.520      1016
54.540      1143
54.560      1176
54.580      1050
54.600      1080
54.620      1050
54.640      1090
54.660      1013
54.680       943
54.700       756
54.720       866
54.740       680
54.760       650
54.780       573
54.800       513
54.820       453
54.840       320
54.860       313
54.880       330
54.900       233
54.920       173
54.940       177
54.960       123
54.980       167
55.000       143
55.020       157
55.040       167
55.060       147
55.080       127
55.100       157
55.120       140
55.140       157
55.160       153
55.180       140
55.200       113
55.220       133
55.240       117
55.260       123
55.280       150
55.300       140
55.320       107
55.340        90
55.360       103
55.380       123
55.400       157
55.420       103
55.440       113
55.460       113
55.480        83
55.500        93
55.520        73
55.540        83
55.560       110
55.580       110
55.600       107
55.620        77
55.640       107
55.660        80
55.680        90
55.700       127
55.720        73
55.740        90
55.760        80
55.780       117
55.800        73
55.820        93
55.840        97
55.860        57
55.880        77
55.900       107
55.920        77
55.940        60
55.960        80
55.980        57
56.000        93
56.020        97
56.040       107
56.060        90
56.080        93
56.100        87
56.120        67
56.140       100
56.160        90
56.180       103
56.200        97
56.220        93
56.240       100
56.260       107
56.280       107
56.300        77
56.320        83
56.340        97
56.360       117
56.380        80
56.400        77
56.420       113
56.440        97
56.460       123
56.480       107
56.500       123
56.520       133
56.540       127
56.560       133
56.580       117
56.600        93
56.620        90
56.640       103
56.660       113
56.680       100
56.700       103
56.720        73
56.740        93
56.760        97
56.780        93
56.800        83
56.820       100
56.840       117
56.860       110
56.880        70
56.900        87
56.920       107
56.940       127
56.960        83
56.980        97
57.000        97
57.020        73
57.040       110
57.060        83
57.080        77
57.100       100
57.120       100
57.140        93
57.160       140
57.180       123
57.200       103
57.220        90
57.240       120
57.260       140
57.280       153
57.300       137
57.320       167
57.340       143
57.360       143
57.380       197
57.400       130
57.420       137
57.440       187
57.460       167
57.480       120
57.500       137
57.520       127
57.540        93
57.560       110
57.580        87
57.600       133
57.620        57
57.640        47
57.660        83
57.680        87
57.700        80
57.720        90
57.740        83
57.760       103
57.780       100
57.800        80
57.820       100
57.840        93
57.860        93
57.880       103
57.900        90
57.920        90
57.940        93
57.960       123
57.980        97
58.000        97
58.020       110
58.040       110
58.060        87
58.080        60
58.100        77
58.120       110
58.140        67
58.160        90
58.180       100
58.200       103
58.220        83
58.240        80
58.260        97
58.280        87
58.300        97
58.320        50
58.340        83
58.360        83
58.380        83
58.400        70
58.420        63
58.440        87
58.460        90
58.480        87
58.500        73
58.520        60
58.540        93
58.560        67
58.580        77
58.600        70
58.620        67
58.640        63
58.660        57
58.680        77
58.700        83
58.720        77
58.740        57
58.760        77
58.780        73
58.800       100
58.820        87
58.840        97
58.860        73
58.880        70
58.900        77
58.920        90
58.940        83
58.960       113
58.980        80
59.000        67
59.020       100
59.040       110
59.060        87
59.080        63
59.100        70
59.120       113
59.140       103
59.160        70
59.180        73
59.200        67
59.220        83
59.240        70
59.260       113
59.280        90
59.300        77
59.320        77
59.340        93
59.360        73
59.380        70
59.400        57
59.420       103
59.440        77
59.460        77
59.480        83
59.500        50
59.520        57
59.540        73
59.560        83
59.580        77
59.600       100
59.620        63
59.640        73
59.660        67
59.680        60
59.700        87
59.720        93
59.740       110
59.760       110
59.780        77
59.800        80
59.820       113
59.840        97
59.860        93
59.880        87
59.900       100
59.920        83
59.940        63
59.960       100
59.980        87
60.000        97
