20.000         0
20.020         0
20.040         3
20.060         0
20.080         0
20.100         0
20.120         0
20.140         0
20.160         0
20.180         0
20.200         0
20.220         0
20.240         0
20.260        20
20.280        57
20.300        37
20.320        43
20.340        40
20.360        50
20.380        23
20.400        63
20.420        40
20.440        30
20.460        37
20.480        47
20.500        40
20.520        37
20.540        43
20.560        40
20.580        40
20.600        37
20.620        43
20.640        27
20.660        53
20.680        37
20.700        23
20.720        50
20.740        17
20.760        70
20.780        43
20.800        47
20.820        53
20.840        47
20.860        50
20.880        57
20.900        47
20.920        33
20.940        43
20.960        33
20.980        50
21.000        40
21.020        27
21.040        30
21.060        30
21.080        43
21.100        53
21.120        23
21.140        43
21.160        10
21.180        47
21.200        43
21.220        57
21.240        47
21.260        50
21.280        37
21.300        53
21.320        37
21.340        27
21.360        47
21.380        30
21.400        50
21.420        50
21.440        57
21.460        37
21.480        33
21.500        43
21.520        47
21.540        37
21.560        53
21.580        50
21.600        33
21.620        43
21.640        43
21.660        30
21.680        43
21.700        30
21.720        43
21.740        50
21.760        33
21.780        47
21.800        40
21.820        30
21.840        43
21.860        37
21.880        23
21.900        17
21.920        37
21.940        27
21.960        43
21.980        47
22.000        33
22.020        57
22.040        33
22.060        37
22.080        37
22.100        30
22.120        33
22.140        37
22.160        40
22.180        50
22.200        47
22.220        27
22.240        47
22.260        30
22.280        33
22.300        27
22.320        67
22.340        33
22.360        53
22.380        43
22.400        23
22.420        13
22.440        60
22.460        67
22.480        57
22.500        20
22.520        20
22.540        47
22.560        33
22.580        33
22.600        37
22.620        40
22.640        30
22.660        47
22.680        50
22.700        40
22.720        27
22.740        33
22.760        50
22.780        37
22.800        33
22.820        33
22.840        50
22.860        43
22.880        33
22.900        30
22.920        50
22.940        37
22.960        30
22.980        33
23.000        23
23.020        50
23.040        57
23.060        20
23.080        30
23.100        43
23.120        37
23.140        17
23.160        37
23.180        30
23.200        53
23.220        50
23.240        23
23.260        47
23.280        23
23.300        37
23.320        37
23.340        30
23.360        37
23.380        50
23.400        27
23.420        13
23.440        30
23.460        30
23.480        27
23.500        30
23.520        33
23.540        27
23.560        43
23.580        37
23.600        23
23.620        50
23.640        33
23.660        43
23.680        40
23.700        43
23.720        30
23.740        33
23.760        30
23.780        33
23.800        37
23.820        23
23.840        47
23.860        37
23.880        40
23.900        53
23.920        10
23.940        40
23.960        37
23.980        27
24.000        47
24.020        27
24.040        27
24.060        50
24.080        23
24.100        23
24.120        40
24.140        17
24.160        27
24.180        33
24.200        30
24.220        37
24.240        23
24.260        53
24.280        37
24.300        40
24.320        37
24.340        17
24.360        27
24.380        40
24.400        37
24.420        43
24.440        50
24.460        33
24.480        33
24.500        40
24.520        23
24.540        40
24.560        37
24.580        20
24.600        47
24.620        37
24.640        30
24.660        27
24.680        57
24.700        40
24.720        33
24.740        50
24.760        43
24.780        30
24.800        30
24.820        43
24.840        50
24.860        73
24.880        40
24.900        30
24.920        40
24.940        37
24.960        37
24.980        27
25.000        33
25.020        47
25.040        20
25.060        27
25.080        20
25.100        33
25.120        43
25.140        47
25.160        13
25.180        40
25.200        47
25.220        43
25.240        27
25.260        30
25.280        37
25.300        33
25.320        30
25.340        30
25.360        20
25.380        27
25.400        30
25.420        40
25.440        40
25.460        27
25.480        13
25.500        37
25.520        33
25.540        43
25.560        23
25.580        37
25.600        37
25.620        70
25.640        23
25.660        33
25.680        40
25.700        33
25.720        37
25.740        30
25.760        40
25.780        27
25.800        20
25.820        33
25.840        20
25.860        30
25.880        20
25.900        30
25.920        40
25.940        30
25.960        37
25.980        47
26.000        33
26.020        27
26.040        27
26.060        13
26.080        30
26.100        37
26.120        20
26.140        20
26.160        27
26.180         7
26.200        23
26.220        23
26.240        30
26.260        40
26.280        50
26.300        27
26.320        37
26.340        43
26.360        27
26.380        37
26.400        23
26.420        33
26.440        27
26.460        40
26.480        17
26.500        37
26.520        27
26.540        37
26.560        23
26.580         7
26.600        37
26.620        33
26.640        17
26.660        23
26.680        17
26.700        20
26.720        23
26.740        50
26.760        33
26.780        27
26.800        27
26.820        20
26.840        37
26.860        17
26.880        30
26.900        30
26.920        30
26.940        37
26.960        30
26.980        30
27.000        23
27.020        23
27.040        10
27.060        33
27.080        30
27.100        13
27.120        20
27.140        30
27.160        27
27.180        33
27.200        33
27.220         7
27.240        20
27.260        23
27.280        10
27.300        13
27.320        20
27.340        43
27.360        13
27.380        27
27.400        20
27.420        40
27.440        33
27.460         7
27.480        37
27.500        23
27.520        43
27.540        57
27.560        43
27.580        10
27.600        33
27.620        27
27.640        30
27.660        40
27.680        37
27.700        30
27.720        47
27.740        37
27.760        30
27.780        33
27.800        40
27.820        33
27.840        10
27.860        17
27.880        40
27.900        27
27.920        27
27.940        43
27.960        37
27.980         3
28.000        13
28.020        30
28.040        13
28.060        30
28.080        27
28.100        23
28.120        30
28.140        30
28.160        17
28.180        33
28.200        20
28.220        23
28.240        30
28.260        13
28.280        17
28.300        17
28.320        17
28.340        17
28.360        23
28.380        23
28.400        33
28.420        27
28.440        47
28.460        23
28.480        33
28.500        20
28.520        33
28.540        13
28.560        17
28.580        23
28.600        33
28.620        33
28.640        20
28.660        27
28.680        23
28.700        23
28.720        33
28.740        17
28.760        13
28.780        23
28.800        33
28.820        50
28.840        43
28.860        33
28.880        23
28.900        17
28.920        50
28.940        23
28.960        47
28.980        20
29.000        33
29.020        27
29.040        33
29.060        27
29.080        23
29.100        33
29.120        47
29.140        30
29.160        27
29.180        37
29.200        77
29.220       100
29.240        53
29.260        47
29.280       100
29.300        53
29.320        80
29.340        77
29.360        80
29.380        80
29.400        87
29.420        67
29.440        70
29.460        60
29.480        57
29.500        23
29.520        23
29.540        33
29.560        17
29.580        27
29.600        30
29.620        13
29.640        33
29.660         3
29.680        30
29.700        17
29.720        20
29.740        20
29.760        23
29.780        43
29.800        33
29.820        37
29.840        23
29.860        27
29.880        37
29.900        10
29.920        40
29.940        33
29.960        33
29.980        20
30.000        20
30.020        33
30.040        27
30.060        17
30.080        10
30.100        17
30.120        20
30.140        33
30.160        43
30.180        27
30.200        30
30.220        27
30.240        53
30.260        33
30.280        40
30.300        37
30.320        33
30.340        33
30.360        27
30.380        30
30.400        70
30.420        50
30.440        23
30.460        27
30.480        17
30.500        33
30.520        40
30.540        13
30.560        13
30.580        20
30.600        20
30.620        27
30.640        20
30.660        10
30.680        27
30.700        20
30.720        13
30.740        20
30.760        27
30.780        37
30.800        13
30.820        30
30.840        37
30.860        17
30.880        30
30.900        43
30.920        23
30.940        37
30.960        23
30.980         7
31.000        20
31.020        13
31.040        37
31.060        37
31.080        13
31.100        20
31.120        27
31.140        20
31.160        20
31.180        27
31.200        13
31.220        13
31.240        17
31.260        27
31.280        37
31.300        33
31.320        30
31.340        30
31.360        17
31.380        20
31.400        23
31.420        37
31.440        23
31.460        30
31.480        33
31.500        13
31.520        40
31.540        13
31.560        30
31.580        13
31.600        27
31.620        13
31.640        20
31.660        30
31.680        33
31.700        27
31.720        20
31.740        20
31.760        20
31.780        27
31.800        13
31.820        20
31.840        23
31.860        20
31.880        27
31.900        17
31.920        37
31.940        33
31.960        33
31.980        13
32.000        30
32.020         7
32.040        13
32.060        27
32.080        23
32.100        17
32.120        17
32.140        13
32.160        23
32.180        23
32.200        17
32.220        40
32.240        37
32.260        23
32.280        17
32.300        20
32.320        27
32.340         7
32.360        30
32.380        30
32.400        27
32.420        20
32.440        23
32.460        20
32.480        17
32.500        30
32.520        17
32.540        30
32.560        27
32.580        17
32.600        37
32.620        23
32.640        30
32.660        20
32.680        33
32.700        20
32.720        13
32.740        30
32.760        33
32.780        23
32.800        20
32.820        23
32.840        27
32.860        20
32.880        23
32.900        17
32.920        37
32.940        33
32.960        17
32.980        20
33.000        17
33.020        30
33.040        13
33.060        20
33.080        27
33.100        37
33.120        20
33.140        23
33.160         7
33.180        30
33.200        30
33.220        30
33.240        40
33.260        17
33.280        20
33.300        23
33.320        23
33.340        30
33.360        10
33.380        23
33.400        20
33.420        27
33.440        17
33.460        43
33.480        20
33.500        20
33.520        27
33.540        23
33.560        13
33.580        27
33.600        10
33.620         7
33.640        20
33.660        20
33.680        33
33.700        17
33.720        30
33.740        17
33.760        10
33.780        23
33.800        23
33.820        13
33.840        10
33.860        13
33.880        50
33.900        17
33.920        20
33.940        20
33.960        17
33.980        20
34.000        30
34.020        23
34.040        13
34.060         3
34.080        37
34.100        27
34.120        20
34.140        10
34.160        20
34.180        30
34.200        23
34.220        33
34.240        30
34.260        17
34.280        33
34.300        17
34.320        23
34.340        23
34.360        13
34.380        17
34.400        23
34.420        33
34.440        20
34.460        20
34.480        23
34.500        17
34.520        30
34.540        23
34.560         0
34.580        17
34.600         3
34.620        13
34.640        10
34.660        30
34.680        10
34.700        30
34.720        20
34.740        37
34.760        23
34.780        17
34.800        23
34.820        33
34.840        20
34.860        23
34.880        23
34.900        20
34.920        27
34.940        13
34.960        13
34.980        17
35.000        27
35.020        27
35.040        20
35.060        30
35.080        23
35.100        20
35.120        20
35.140        23
35.160        13
35.180        20
35.200        20
35.220         3
35.240        27
35.260        23
35.280        27
35.300        20
35.320        23
35.340        27
35.360        30
35.380        20
35.400        13
35.420        17
35.440        20
35.460        13
35.480        27
35.500        23
35.520        13
35.540        23
35.560        17
35.580        20
35.600        30
35.620        23
35.640        17
35.660        20
35.680        20
35.700        37
35.720        30
35.740        20
35.760        30
35.780        30
35.800        13
35.820        27
35.840        33
35.860        23
35.880        27
35.900        37
35.920        43
35.940        37
35.960        33
35.980        33
36.000        37
36.020        33
36.040        23
36.060        23
36.080        27
36.100        20
36.120        13
36.140        17
36.160        40
36.180        17
36.200        13
36.220        27
36.240        27
36.260        23
36.280        30
36.300        30
36.320        20
36.340        13
36.360         3
36.380        27
36.400        20
36.420         7
36.440        13
36.460        30
36.480        33
36.500        23
36.520        13
36.540        27
36.560        10
36.580        33
36.600        40
36.620        13
36.640        13
36.660         7
36.680        17
36.700        30
36.720        17
36.740        13
36.760         7
36.780        13
36.800        40
36.820        13
36.840        23
36.860         7
36.880        40
36.900        30
36.920        30
36.940        37
36.960        17
36.980        23
37.000        27
37.020        20
37.040        30
37.060        10
37.080        20
37.100        33
37.120        10
37.140        20
37.160         7
37.180         0
37.200        23
37.220        30
37.240        27
37.260        23
37.280        20
37.300        20
37.320        30
37.340        33
37.360        30
37.380        27
37.400        13
37.420        17
37.440        20
37.460        23
37.480        40
37.500        13
37.520        27
37.540        27
37.560        33
37.580        20
37.600        40
37.620        50
37.640        37
37.660        23
37.680        23
37.700        27
37.720        23
37.740        40
37.760        27
37.780        47
37.800        30
37.820        57
37.840        40
37.860        77
37.880        63
37.900       117
37.920       107
37.940       163
37.960       123
37.980       223
38.000       273
38.020       327
38.040       363
38.060       426
38.080       470
38.100       503
38.120       496
38.140       450
38.160       337
38.180       340
38.200       257
38.220       240
38.240       210
38.260       133
38.280        97
38.300        80
38.320        53
38.340        47
38.360        57
38.380        47
38.400        60
38.420        30
38.440        23
38.460        33
38.480        27
38.500        33
38.520        20
38.540        23
38.560        50
38.580        33
38.600        23
38.620        23
38.640        33
38.660        20
38.680        27
38.700        20
38.720        23
38.740        10
38.760        30
38.780        23
38.800        43
38.820        50
38.840        33
38.860        13
38.880        23
38.900        27
38.920        23
38.940        20
38.960        27
38.980        50
39.000        17
39.020        20
39.040        27
39.060        27
39.080        27
39.100        23
39.120        33
39.140        23
39.160        33
39.180        27
39.200        43
39.220        27
39.240        43
39.260        40
39.280        30
39.300        43
39.320        37
39.340        43
39.360        37
39.380        30
39.400        43
39.420        23
39.440        47
39.460        40
39.480        20
39.500        23
39.520        23
39.540         7
39.560        23
39.580        13
39.600        37
39.620        23
39.640        13
39.660        23
39.680        23
39.700        27
39.720        23
39.740        33
39.760        40
39.780        20
39.800        23
39.820        30
39.840         7
39.860        23
39.880        27
39.900        20
39.920        30
39.940        17
39.960        23
39.980        33
40.000         7
40.020        13
40.040        17
40.060        23
40.080        30
40.100        20
40.120        37
40.140        23
40.160        20
40.180        30
40.200        10
40.220        13
40.240        27
40.260        13
40.280        23
40.300        37
40.320        30
40.340        33
40.360        20
40.380        20
40.400        27
40.420        27
40.440        17
40.460        20
40.480        23
40.500        17
40.520        23
40.540        23
40.560        37
40.580        20
40.600        37
40.620        27
40.640        33
40.660        33
40.680         7
40.700        13
40.720        17
40.740        53
40.760        27
40.780        33
40.800        43
40.820        37
40.840        37
40.860        37
40.880        30
40.900        23
40.920        13
40.940        33
40.960        47
40.980        17
41.000        53
41.020        40
41.040        33
41.060        37
41.080        43
41.100        53
41.120        30
41.140        27
41.160        57
41.180        33
41.200        20
41.220        33
41.240        33
41.260        50
41.280        30
41.300        17
41.320        30
41.340        27
41.360        30
41.380        33
41.400        37
41.420        40
41.440        40
41.460        20
41.480        20
41.500        33
41.520        20
41.540        40
41.560        37
41.580        23
41.600        27
41.620        30
41.640        20
41.660        17
41.680        20
41.700        10
41.720        13
41.740        20
41.760        23
41.780        30
41.800        40
41.820        17
41.840        10
41.860        23
41.880        13
41.900        30
41.920        20
41.940        20
41.960        13
41.980        13
42.000        17
42.020        23
42.040        20
42.060        30
42.080        13
42.100        30
42.120        33
42.140        20
42.160        20
42.180        13
42.200        13
42.220        13
42.240         3
42.260        17
42.280        20
42.300        23
42.320        10
42.340        23
42.360        10
42.380        20
42.400         3
42.420        10
42.440        17
42.460        27
42.480        23
42.500        20
42.520        17
42.540        23
42.560        20
42.580        17
42.600        23
42.620        17
42.640        17
42.660        13
42.680        23
42.700        37
42.720        23
42.740        37
42.760        13
42.780         7
42.800        10
42.820        27
42.840        20
42.860        20
42.880        47
42.900        23
42.920        27
42.940        40
42.960        43
42.980        23
43.000        23
43.020        33
43.040        17
43.060        23
43.080        27
43.100        43
43.120        30
43.140        17
43.160        37
43.180        33
43.200        27
43.220        30
43.240        33
43.260        20
43.280        20
43.300        23
43.320        10
43.340        17
43.360        37
43.380        40
43.400        23
43.420        30
43.440        30
43.460         7
43.480        50
43.500        30
43.520        23
43.540        30
43.560        17
43.580        17
43.600        10
43.620        17
43.640        13
43.660        23
43.680        40
43.700        27
43.720        23
43.740        23
43.760        10
43.780        27
43.800        30
43.820        13
43.840         7
43.860        20
43.880        40
43.900         7
43.920        17
43.940        23
43.960        30
43.980        37
44.000         7
44.020        30
44.040        13
44.060        23
44.080        27
44.100        20
44.120        37
44.140        20
44.160        20
44.180        27
44.200        30
44.220        23
44.240         7
44.260        23
44.280        20
44.300        13
44.320        20
44.340        30
44.360        33
44.380        17
44.400        23
44.420        37
44.440        20
44.460        27
44.480        23
44.500        17
44.520        13
44.540        23
44.560        10
44.580        27
44.600        17
44.620        13
44.640        17
44.660        20
44.680        20
44.700        10
44.720        50
44.740        17
44.760        10
44.780        20
44.800        20
44.820        10
44.840        17
44.860        13
44.880        33
44.900        10
44.920        13
44.940        30
44.960        33
44.980        20
45.000        27
45.020        13
45.040        20
45.060        10
45.080        23
45.100        17
45.120        20
45.140        10
45.160        20
45.180        10
45.200        27
45.220        30
45.240        10
45.260        10
45.280        27
45.300        17
45.320        23
45.340        20
45.360        23
45.380        23
45.400        43
45.420         7
45.440        17
45.460        17
45.480        13
45.500         7
45.520        20
45.540        23
45.560        40
45.580        23
45.600        20
45.620        43
45.640        13
45.660        33
45.680        17
45.700        30
45.720        33
45.740        23
45.760        20
45.780        33
45.800        27
45.820        27
45.840        23
45.860        23
45.880        17
45.900        33
45.920        37
45.940        23
45.960        20
45.980        37
46.000        30
46.020         7
46.040        20
46.060        17
46.080        40
46.100        10
46.120        33
46.140        13
46.160        30
46.180        33
46.200        10
46.220        10
46.240         7
46.260        17
46.280        20
46.300        33
46.320        10
46.340         7
46.360        43
46.380        20
46.400         0
46.420        13
46.440        23
46.460        13
46.480        27
46.500        47
46.520        20
46.540        30
46.560        17
46.580        23
46.600        20
46.620        27
46.640        27
46.660        17
46.680         3
46.700        13
46.720        33
46.740        17
46.760        23
46.780        20
46.800        20
46.820         3
46.840        13
46.860        17
46.880        27
46.900        20
46.920        20
46.940        30
46.960        13
46.980        33
47.000        17
47.020        23
47.040        37
47.060        37
47.080        37
47.100        43
47.120        13
47.140        27
47.160        27
47.180        43
47.200        23
47.220        23
47.240        13
47.260        20
47.280        40
47.300        30
47.320        33
47.340        27
47.360        30
47.380        47
47.400        13
47.420        23
47.440        63
47.460        47
47.480        47
47.500        27
47.520        40
47.540        57
47.560        37
47.580        33
47.600        20
47.620        37
47.640        13
47.660        40
47.680        20
47.700        23
47.720        17
47.740        10
47.760        20
47.780        17
47.800        20
47.820        17
47.840        47
47.860        27
47.880         7
47.900        30
47.920        10
47.940        20
47.960        33
47.980        27
48.000        23
48.020        20
48.040        30
48.060        30
48.080        30
48.100        20
48.120        27
48.140        23
48.160        27
48.180        10
48.200        30
48.220        23
48.240        33
48.260         3
48.280        37
48.300        17
48.320        20
48.340        20
48.360        53
48.380        27
48.400        50
48.420        40
48.440        40
48.460        23
48.480        27
48.500        20
48.520        37
48.540        43
48.560        27
48.580        30
48.600        30
48.620        27
48.640        23
48.660        23
48.680        20
48.700        23
48.720        23
48.740        30
48.760        27
48.780        23
48.800        17
48.820        30
48.840        27
48.860        23
48.880        23
48.900        10
48.920        13
48.940        43
48.960        17
48.980        17
49.000         7
49.020        20
49.040        17
49.060        17
49.080        23
49.100         7
49.120        20
49.140        17
49.160        23
49.180        10
49.200        13
49.220        17
49.240        37
49.260        33
49.280         7
49.300        27
49.320        30
49.340        27
49.360        27
49.380        13
49.400        27
49.420        13
49.440        40
49.460        13
49.480        27
49.500        23
49.520        30
49.540        23
49.560        40
49.580        10
49.600        27
49.620        27
49.640        20
49.660        33
49.680        27
49.700        30
49.720        30
49.740        30
49.760        17
49.780        23
49.800        20
49.820        27
49.840        17
49.860        33
49.880        33
49.900        17
49.920        23
49.940        20
49.960        17
49.980        43
50.000        20
50.020        17
50.040        20
50.060         7
50.080        30
50.100        20
50.120        23
50.140        20
50.160        23
50.180         7
50.200        30
50.220        27
50.240        13
50.260        17
50.280        23
50.300        20
50.320        20
50.340        23
50.360         7
50.380        20
50.400        13
50.420        20
50.440        23
50.460        43
50.480        40
50.500        47
50.520        17
50.540        23
50.560        50
50.580        30
50.600        20
50.620        23
50.640        27
50.660        10
50.680        13
50.700        17
50.720        20
50.740        27
50.760        33
50.780        10
50.800        17
50.820        23
50.840        20
50.860        33
50.880        30
50.900        37
50.920        30
50.940        17
50.960        20
50.980        13
51.000        20
51.020        13
51.040        23
51.060        17
51.080        17
51.100        27
51.120         0
51.140        27
51.160        17
51.180        17
51.200        30
51.220        27
51.240        20
51.260        10
51.280        17
51.300        27
51.320        50
51.340        30
51.360        17
51.380        10
51.400        13
51.420        20
51.440        60
51.460        23
51.480        20
51.500        17
51.520        17
51.540        40
51.560        53
51.580        13
51.600        23
51.620        17
51.640        17
51.660        13
51.680        20
51.700        23
51.720        30
51.740        13
51.760        37
51.780        33
51.800        30
51.820        27
51.840        43
51.860        30
51.880        27
51.900        23
51.920        17
51.940        27
51.960        23
51.980        23
52.000        23
52.020        43
52.040        13
52.060        33
52.080        17
52.100        27
52.120        20
52.140        17
52.160        23
52.180        17
52.200        30
52.220        30
52.240        43
52.260        27
52.280        37
52.300        23
52.320        33
52.340        43
52.360        20
52.380        17
52.400        43
52.420        17
52.440        47
52.460        47
52.480        57
52.500        43
52.520        60
52.540        73
52.560        73
52.580       113
52.600        50
52.620        70
52.640        53
52.660        50
52.680        60
52.700        63
52.720        87
52.740        63
52.760        47
52.780        33
52.800        37
52.820        50
52.840        27
52.860        50
52.880        17
52.900        43
52.920        30
52.940        47
52.960        77
52.980        20
53.000        30
53.020        27
53.040        23
53.060        30
53.080        23
53.100        30
53.120        33
53.140        20
53.160        23
53.180        30
53.200        27
53.220        30
53.240        17
53.260        23
53.280        27
53.300        30
53.320        30
53.340        27
53.360        27
53.380        30
53.400        17
53.420        17
53.440        13
53.460        33
53.480        20
53.500        17
53.520        27
53.540        20
53.560        20
53.580        10
53.600        17
53.620        30
53.640        47
53.660        30
53.680        27
53.700        13
53.720        27
53.740        30
53.760        43
53.780        23
53.800        17
53.820        23
53.840        27
53.860        27
53.880        17
53.900        13
53.920        20
53.940        17
53.960        20
53.980        30
54.000        30
54.020        17
54.040        30
54.060        23
54.080        20
54.100        13
54.120         7
54.140        13
54.160        10
54.180        43
54.200        20
54.220        13
54.240        17
54.260        13
54.280        10
54.300        17
54.320        47
54.340        23
54.360        30
54.380        33
54.400        27
54.420        40
54.440        27
54.460        20
54.480        23
54.500        33
54.520        30
54.540        17
54.560        30
54.580        30
54.600        27
54.620        40
54.640        63
54.660        70
54.680        77
54.700        83
54.720       103
54.740       120
54.760       110
54.780       190
54.800       167
54.820       203
54.840       210
54.860       230
54.880       213
54.900       340
54.920       230
54.940       317
54.960       337
54.980       373
55.000       367
55.020       300
55.040       267
55.060       253
55.080       230
55.100       167
55.120       223
55.140       180
55.160       130
55.180       113
55.200        73
55.220        70
55.240        73
55.260        67
55.280        73
55.300        53
55.320        57
55.340        20
55.360        43
55.380        27
55.400        23
55.420        17
55.440        20
55.460        13
55.480        27
55.500        17
55.520         7
55.540        17
55.560        23
55.580        23
55.600        17
55.620        10
55.640         7
55.660        27
55.680        50
55.700         7
55.720        20
55.740        17
55.760        47
55.780        33
55.800        20
55.820        20
55.840        30
55.860        20
55.880        23
55.900        17
55.920        20
55.940        27
55.960        30
55.980         7
56.000        17
56.020         7
56.040        30
56.060        20
56.080        30
56.100        23
56.120        30
56.140        20
56.160        27
56.180        23
56.200        13
56.220        10
56.240        30
56.260        13
56.280        20
56.300        13
56.320        13
56.340        30
56.360        17
56.380        23
56.400        23
56.420        27
56.440        17
56.460        20
56.480        20
56.500        23
56.520        27
56.540        30
56.560        27
56.580         7
56.600        13
56.620        17
56.640        37
56.660        37
56.680        27
56.700        23
56.720        23
56.740        27
56.760        17
56.780        23
56.800        17
56.820        20
56.840        20
56.860        10
56.880        17
56.900        13
56.920        13
56.940        20
56.960        20
56.980        20
57.000         7
57.020        27
57.040        17
57.060        17
57.080        17
57.100        10
57.120        20
57.140        27
57.160        13
57.180        23
57.200        23
57.220        13
57.240        20
57.260        33
57.280        10
57.300        30
57.320        13
57.340        23
57.360        40
57.380        27
57.400        27
57.420        33
57.440        13
57.460        40
57.480        23
57.500        30
57.520        37
57.540        10
57.560        17
57.580        30
57.600        20
57.620        17
57.640        13
57.660         7
57.680        13
57.700        10
57.720        20
57.740        17
57.760        33
57.780        27
57.800        23
57.820        10
57.840        27
57.860        33
57.880        27
57.900        37
57.920        23
57.940        20
57.960         7
57.980        20
58.000         7
58.020        23
58.040        20
58.060        17
58.080        17
58.100        30
58.120        17
58.140        30
58.160        20
58.180        33
58.200        17
58.220         7
58.240        20
58.260        20
58.280        17
58.300        23
58.320         7
58.340        13
58.360        23
58.380         7
58.400        17
58.420         3
58.440        23
58.460        23
58.480        27
58.500        23
58.520         7
58.540        13
58.560        20
58.580        20
58.600        10
58.620        20
58.640        13
58.660        17
58.680        20
58.700        10
58.720        23
58.740        27
58.760        13
58.780        10
58.800        13
58.820        17
58.840        13
58.860        10
58.880        10
58.900        10
58.920        13
58.940         7
58.960        23
58.980        13
59.000        20
59.020        13
59.040        27
59.060        10
59.080         7
59.100        13
59.120         7
59.140        10
59.160        17
59.180        30
59.200        17
59.220        10
59.240        13
59.260        17
59.280         7
59.300        20
59.320         7
59.340        23
59.360        13
59.380        10
59.400        20
59.420        17
59.440        10
59.460        23
59.480        13
59.500        13
59.520        13
59.540        13
59.560        23
59.580        23
59.600        23
59.620        23
59.640         3
59.660        23
59.680        23
59.700        23
59.720         3
59.740         7
59.760        17
59.780        23
59.800        23
59.820        13
59.840        37
59.860        10
59.880        20
59.900        27
59.920        23
59.940        17
59.960        20
59.980        13
60.000        13
