20.000         0
20.020         0
20.040         0
20.060         0
20.080         0
20.100         0
20.120         7
20.140         0
20.160         0
20.180         0
20.200         0
20.220         0
20.240         3
20.260         0
20.280         0
20.300       233
20.320       250
20.340       233
20.360       273
20.380       227
20.400       247
20.420       183
20.440       283
20.460       180
20.480       263
20.500       213
20.520       220
20.540       260
20.560       247
20.580       257
20.600       200
20.620       213
20.640       233
20.660       200
20.680       197
20.700       177
20.720       217
20.740       237
20.760       250
20.780       183
20.800       227
20.820       210
20.840       220
20.860       177
20.880       190
20.900       207
20.920       213
20.940       247
20.960       267
20.980       243
21.000       167
21.020       217
21.040       203
21.060       177
21.080       293
21.100       257
21.120       203
21.140       190
21.160       200
21.180       230
21.200       217
21.220       213
21.240       207
21.260       267
21.280       257
21.300       203
21.320       223
21.340       280
21.360       320
21.380       257
21.400       260
21.420       247
21.440       260
21.460       310
21.480       243
21.500       230
21.520       197
21.540       240
21.560       240
21.580       197
21.600       207
21.620       203
21.640       253
21.660       200
21.680       253
21.700       237
21.720       183
21.740       200
21.760       210
21.780       203
21.800       183
21.820       233
21.840       177
21.860       243
21.880       207
21.900       187
21.920       240
21.940       233
21.960       223
21.980       157
22.000       223
22.020       193
22.040       220
22.060       220
22.080       217
22.100       213
22.120       250
22.140       173
22.160       177
22.180       227
22.200       187
22.220       230
22.240       200
22.260       217
22.280       180
22.300       240
22.320       230
22.340       267
22.360       213
22.380       257
22.400       263
22.420       190
22.440       197
22.460       233
22.480       267
22.500       237
22.520       237
22.540       193
22.560       273
22.580       217
22.600       160
22.620       197
22.640       210
22.660       197
22.680       203
22.700       210
22.720       190
22.740       213
22.760       233
22.780       233
22.800       217
22.820       247
22.840       180
22.860       170
22.880       170
22.900       213
22.920       183
22.940       220
22.960       147
22.980       173
23.000       220
23.020       217
23.040       207
23.060       210
23.080       187
23.100       207
23.120       197
23.140       133
23.160       167
23.180       177
23.200       197
23.220       197
23.240       160
23.260       200
23.280       167
23.300       183
23.320       200
23.340       213
23.360       163
23.380       173
23.400       167
23.420       187
23.440       207
23.460       193
23.480       167
23.500       180
23.520       170
23.540       177
23.560       147
23.580       157
23.600       200
23.620       167
23.640       143
23.660       200
23.680       173
23.700       183
23.720       170
23.740       200
23.760       220
23.780       140
23.800       230
23.820       170
23.840       240
23.860       210
23.880       167
23.900       240
23.920       140
23.940       130
23.960       193
23.980       200
24.000       133
24.020       197
24.040       167
24.060       153
24.080       193
24.100       190
24.120       193
24.140       160
24.160       190
24.180       140
24.200       177
24.220       203
24.240       167
24.260       163
24.280       137
24.300       213
24.320       153
24.340       173
24.360       190
24.380       240
24.400       140
24.420       193
24.440       123
24.460       163
24.480       163
24.500       153
24.520       170
24.540       173
24.560       170
24.580       173
24.600       183
24.620       150
24.640       193
24.660       173
24.680       173
24.700       160
24.720       200
24.740       190
24.760       210
24.780       193
24.800       233
24.820       207
24.840       250
24.860       207
24.880       260
24.900       253
24.920       220
24.940       267
24.960       157
24.980       237
25.000       163
25.020       163
25.040       180
25.060       183
25.080       190
25.100       160
25.120       163
25.140       140
25.160       123
25.180       123
25.200       147
25.220       140
25.240       153
25.260       110
25.280       153
25.300       143
25.320       173
25.340       127
25.360       157
25.380       147
25.400       207
25.420       163
25.440       167
25.460       163
25.480       150
25.500       120
25.520       180
25.540       177
25.560       133
25.580       190
25.600       193
25.620       180
25.640       197
25.660       177
25.680       150
25.700       180
25.720       187
25.740       150
25.760       133
25.780       177
25.800       160
25.820       183
25.840       127
25.860       157
25.880       120
25.900       147
25.920       150
25.940       110
25.960       140
25.980       167
26.000       107
26.020       137
26.040       140
26.060       123
26.080       137
26.100       137
26.120       137
26.140       117
26.160       220
26.180       130
26.200       130
26.220       110
26.240       110
26.260       160
26.280        83
26.300       153
26.320       133
26.340       147
26.360       130
26.380       157
26.400       147
26.420       163
26.440       127
26.460       147
26.480       157
26.500       160
26.520       187
26.540       150
26.560       127
26.580       140
26.600       183
26.620       150
26.640       143
26.660       107
26.680       147
26.700       130
26.720       130
26.740       127
26.760       167
26.780       123
26.800       100
26.820       130
26.840       170
26.860       113
26.880       117
26.900       133
26.920       147
26.940       157
26.960       110
26.980       113
27.000       130
27.020       130
27.040       147
27.060       103
27.080       110
27.100       117
27.120       117
27.140       103
27.160       130
27.180       133
27.200       140
27.220       107
27.240        83
27.260       110
27.280       153
27.300       120
27.320       113
27.340       100
27.360       157
27.380       113
27.400       153
27.420       107
27.440       147
27.460        93
27.480       160
27.500       137
27.520       113
27.540       127
27.560       137
27.580       133
27.600       110
27.620       140
27.640       123
27.660       110
27.680       127
27.700       113
27.720        80
27.740       110
27.760        73
27.780       100
27.800       103
27.820       110
27.840       100
27.860       113
27.880        97
27.900        97
27.920       133
27.940       137
27.960       113
27.980       127
28.000       127
28.020       110
28.040       127
28.060        93
28.080       117
28.100       103
28.120       103
28.140        70
28.160       177
28.180       113
28.200        60
28.220        90
28.240       113
28.260       143
28.280       103
28.300       110
28.320       113
28.340        87
28.360       100
28.380       107
28.400        93
28.420       110
28.440       117
28.460       117
28.480        97
28.500       133
28.520       107
28.540       127
28.560       130
28.580       127
28.600        87
28.620       110
28.640       127
28.660       140
28.680       110
28.700        97
28.720       103
28.740       133
28.760       100
28.780        93
28.800       107
28.820       160
28.840       147
28.860       113
28.880       150
28.900       107
28.920       137
28.940       123
28.960       143
28.980       143
29.000       113
29.020       127
29.040       143
29.060       160
29.080       160
29.100       137
29.120       153
29.140       173
29.160       160
29.180       223
29.200       217
29.220       240
29.240       277
29.260       233
29.280       243
29.300       303
29.320       303
29.340       343
29.360       353
29.380       393
29.400       323
29.420       403
29.440       313
29.460       283
29.480       207
29.500       233
29.520       123
29.540       133
29.560       133
29.580       110
29.600        97
29.620       117
29.640        90
29.660       110
29.680       117
29.700       107
29.720       103
29.740        87
29.760        97
29.780        90
29.800       133
29.820       103
29.840       107
29.860       103
29.880        77
29.900       117
29.920       113
29.940        90
29.960       107
29.980       130
30.000       103
30.020        87
30.040       117
30.060       110
30.080       127
30.100       107
30.120        90
30.140        90
30.160        77
30.180        97
30.200        77
30.220       117
30.240        97
30.260        97
30.280       103
30.300       110
30.320        93
30.340        90
30.360       113
30.380        67
30.400       103
30.420       100
30.440        93
30.460       110
30.480        80
30.500       103
30.520        80
30.540       147
30.560       103
30.580       107
30.600       110
30.620        83
30.640        87
30.660       133
30.680        87
30.700       110
30.720        67
30.740       103
30.760       110
30.780        83
30.800        97
30.820        77
30.840        87
30.860        80
30.880        83
30.900        70
30.920        93
30.940       110
30.960        97
30.980       100
31.000        77
31.020        83
31.040        97
31.060        83
31.080       130
31.100        67
31.120        73
31.140        67
31.160        93
31.180        93
31.200        83
31.220       117
31.240        70
31.260        80
31.280       107
31.300       110
31.320        63
31.340       110
31.360        83
31.380       143
31.400        83
31.420       103
31.440       130
31.460        77
31.480       107
31.500        70
31.520       127
31.540        83
31.560       103
31.580        70
31.600        93
31.620        80
31.640       107
31.660       100
31.680        83
31.700        97
31.720        80
31.740        80
31.760        97
31.780        80
31.800       130
31.820       123
31.840       123
31.860        87
31.880        67
31.900       127
31.920       127
31.940       127
31.960       130
31.980       120
32.000       110
32.020       140
32.040       107
32.060       133
32.080        80
32.100        93
32.120       137
32.140        87
32.160        87
32.180       107
32.200       127
32.220        90
32.240       120
32.260        90
32.280        93
32.300        83
32.320        63
32.340       117
32.360       110
32.380       120
32.400        87
32.420        87
32.440        97
32.460        90
32.480       113
32.500       103
32.520        90
32.540       110
32.560       107
32.580        53
32.600        77
32.620        83
32.640        70
32.660       113
32.680        70
32.700       110
32.720       117
32.740        90
32.760        73
32.780       103
32.800       110
32.820        93
32.840        83
32.860        83
32.880        77
32.900       103
32.920        73
32.940        60
32.960        73
32.980        73
33.000        83
33.020        80
33.040        77
33.060        83
33.080        87
33.100       120
33.120        47
33.140        70
33.160        80
33.180        73
33.200        93
33.220        97
33.240        70
33.260        70
33.280        77
33.300        77
33.320        97
33.340        63
33.360        67
33.380        60
33.400        73
33.420        80
33.440       113
33.460        97
33.480       107
33.500        53
33.520        77
33.540        67
33.560        80
33.580        63
33.600        50
33.620       100
33.640        80
33.660       107
33.680        80
33.700        73
33.720        50
33.740        67
33.760       130
33.780        97
33.800        77
33.820        73
33.840        83
33.860        90
33.880       107
33.900        80
33.920        70
33.940        47
33.960        90
33.980        80
34.000        77
34.020        67
34.040        73
34.060        67
34.080        90
34.100        70
34.120        63
34.140        67
34.160        60
34.180        83
34.200        57
34.220        80
34.240        63
34.260        67
34.280        60
34.300        67
34.320        70
34.340        73
34.360        47
34.380        77
34.400        73
34.420        70
34.440        77
34.460        47
34.480        77
34.500        60
34.520        93
34.540        80
34.560       110
34.580        77
34.600        63
34.620        50
34.640        80
34.660        63
34.680        97
34.700        60
34.720        93
34.740        93
34.760       110
34.780        90
34.800        60
34.820        80
34.840        53
34.860        97
34.880        80
34.900        73
34.920        77
34.940       113
34.960       137
34.980        60
35.000       103
35.020        70
35.040        63
35.060       100
35.080        80
35.100        77
35.120        77
35.140        93
35.160        77
35.180       107
35.200        63
35.220        77
35.240        70
35.260        67
35.280        70
35.300        90
35.320        87
35.340        87
35.360        87
35.380        57
35.400       100
35.420        70
35.440        77
35.460        83
35.480        97
35.500        63
35.520       103
35.540        87
35.560       113
35.580        83
35.600        77
35.620        93
35.640       127
35.660       113
35.680        80
35.700        73
35.720       113
35.740        97
35.760        77
35.780        83
35.800       120
35.820        87
35.840        90
35.860       110
35.880        97
35.900       177
35.920       130
35.940       123
35.960       150
35.980       137
36.000       127
36.020       123
36.040       113
36.060       143
36.080       133
36.100       110
36.120        73
36.140        80
36.160        80
36.180        47
36.200        40
36.220        80
36.240        97
36.260       103
36.280        77
36.300        80
36.320        70
36.340        73
36.360        80
36.380        63
36.400        63
36.420        83
36.440        53
36.460        73
36.480        73
36.500        70
36.520        67
36.540        70
36.560        80
36.580        53
36.600        60
36.620        57
36.640        93
36.660        60
36.680        90
36.700        47
36.720       100
36.740        83
36.760        63
36.780        57
36.800        77
36.820        80
36.840        90
36.860        73
36.880        47
36.900        83
36.920        73
36.940        63
36.960        80
36.980        70
37.000        87
37.020        70
37.040        57
37.060        73
37.080       107
37.100        57
37.120        87
37.140        60
37.160        70
37.180        77
37.200        60
37.220        47
37.240        67
37.260        77
37.280        73
37.300        70
37.320        73
37.340        63
37.360        90
37.380        87
37.400        93
37.420        80
37.440        43
37.460        67
37.480        40
37.500        80
37.520        70
37.540        70
37.560        73
37.580        93
37.600        67
37.620        90
37.640        83
37.660        87
37.680        90
37.700       113
37.720        80
37.740        87
37.760        87
37.780        60
37.800        80
37.820        73
37.840       107
37.860        97
37.880        47
37.900        87
37.920        43
37.940        87
37.960        53
37.980        73
38.000       103
38.020        50
38.040        57
38.060       100
38.080        77
38.100        93
38.120       107
38.140        97
38.160       143
38.180       123
38.200       113
38.220       120
38.240        93
38.260        90
38.280       123
38.300       127
38.320       110
38.340       117
38.360       113
38.380        90
38.400        80
38.420        93
38.440        90
38.460        83
38.480        80
38.500        80
38.520        83
38.540       100
38.560        83
38.580        97
38.600       130
38.620        57
38.640        87
38.660       103
38.680        73
38.700       103
38.720        90
38.740        93
38.760        93
38.780        63
38.800        93
38.820        97
38.840        93
38.860        67
38.880        87
38.900       110
38.920        77
38.940        83
38.960        90
38.980       110
39.000        83
39.020       100
39.040        83
39.060        77
39.080       120
39.100       100
39.120       113
39.140       117
39.160       137
39.180       117
39.200       113
39.220       110
39.240       133
39.260       140
39.280       137
39.300       167
39.320       157
39.340       167
39.360       177
39.380       220
39.400       200
39.420       217
39.440       297
39.460       230
39.480       233
39.500       263
39.520       220
39.540       273
39.560       293
39.580       247
39.600       167
39.620       177
39.640       227
39.660       147
39.680       127
39.700       127
39.720       147
39.740       110
39.760       117
39.780        93
39.800       103
39.820        57
39.840       110
39.860        47
39.880       110
39.900        90
39.920        83
39.940       100
39.960        83
39.980        87
40.000        80
40.020        73
40.040        57
40.060        53
40.080        70
40.100        77
40.120        70
40.140        97
40.160        73
40.180        57
40.200        57
40.220        93
40.240        80
40.260       120
40.280        70
40.300       100
40.320        57
40.340        57
40.360        90
40.380        80
40.400        70
40.420        67
40.440        80
40.460        50
40.480        63
40.500       103
40.520        90
40.540        63
40.560        93
40.580        77
40.600        70
40.620        80
40.640        90
40.660        87
40.680        87
40.700        40
40.720        83
40.740        67
40.760        63
40.780        63
40.800        70
40.820       107
40.840        73
40.860        80
40.880        53
40.900        83
40.920        60
40.940        63
40.960        57
40.980        73
41.000       100
41.020        67
41.040        53
41.060        57
41.080        80
41.100        93
41.120        63
41.140        83
41.160        60
41.180        87
41.200        83
41.220        77
41.240        77
41.260        80
41.280       107
41.300        87
41.320        97
41.340        57
41.360        70
41.380        80
41.400        70
41.420        87
41.440        83
41.460        93
41.480        70
41.500        53
41.520        60
41.540        63
41.560        87
41.580        57
41.600        53
41.620        67
41.640        37
41.660        53
41.680        77
41.700        67
41.720        63
41.740        67
41.760        70
41.780        67
41.800        97
41.820        77
41.840        53
41.860        80
41.880        70
41.900        90
41.920        90
41.940        83
41.960        67
41.980        67
42.000        53
42.020        67
42.040       100
42.060        60
42.080        80
42.100       100
42.120        57
42.140        70
42.160        80
42.180        83
42.200        57
42.220        77
42.240        63
42.260        43
42.280        73
42.300        67
42.320        77
42.340        90
42.360        87
42.380        43
42.400        57
42.420        57
42.440        50
42.460        90
42.480        50
42.500        70
42.520        57
42.540        87
42.560        83
42.580        63
42.600       100
42.620        73
42.640        90
42.660        53
42.680        70
42.700        73
42.720       110
42.740        60
42.760        70
42.780        80
42.800        90
42.820        87
42.840        93
42.860        90
42.880        97
42.900       107
42.920       120
42.940       107
42.960        87
42.980        83
43.000       123
43.020       130
43.040       113
43.060       127
43.080       137
43.100       133
43.120       173
43.140       157
43.160       133
43.180       123
43.200       103
43.220       120
43.240        80
43.260        83
43.280        73
43.300        87
43.320       120
43.340        73
43.360        53
43.380        73
43.400        47
43.420        77
43.440        67
43.460        77
43.480        70
43.500        93
43.520        40
43.540        90
43.560        57
43.580        57
43.600        73
43.620        67
43.640        53
43.660        70
43.680        67
43.700        60
43.720        77
43.740        90
43.760        63
43.780        83
43.800        50
43.820        67
43.840        67
43.860        43
43.880        77
43.900        67
43.920        90
43.940        73
43.960        67
43.980       100
44.000       113
44.020        93
44.040        57
44.060        73
44.080        80
44.100        70
44.120        90
44.140        73
44.160        63
44.180        50
44.200        53
44.220        87
44.240        63
44.260        67
44.280        83
44.300        60
44.320        40
44.340        80
44.360        67
44.380        63
44.400        87
44.420        63
44.440        83
44.460        80
44.480        43
44.500        53
44.520       113
44.540        67
44.560        90
44.580        43
44.600        83
44.620        73
44.640        53
44.660        87
44.680       103
44.700        53
44.720        50
44.740        93
44.760        67
44.780        97
44.800        83
44.820       103
44.840        77
44.860       103
44.880       113
44.900        63
44.920        67
44.940        60
44.960        87
44.980        80
45.000        97
45.020       107
45.040        73
45.060       100
45.080        80
45.100        67
45.120        83
45.140       123
45.160        87
45.180       120
45.200        80
45.220       107
45.240       117
45.260       130
45.280       133
45.300       120
45.320       137
45.340       120
45.360       173
45.380       133
45.400       133
45.420       153
45.440       133
45.460       157
45.480       147
45.500       140
45.520       117
45.540       160
45.560       180
45.580       210
45.600       180
45.620       177
45.640       207
45.660       223
45.680       177
45.700       220
45.720       210
45.740       213
45.760       193
45.780       157
45.800       217
45.820       177
45.840       197
45.860       167
45.880       180
45.900       180
45.920       207
45.940       153
45.960       183
45.980       150
46.000       193
46.020       157
46.040       160
46.060       113
46.080       170
46.100       130
46.120       120
46.140       117
46.160       147
46.180       127
46.200        90
46.220        97
46.240       107
46.260       113
46.280        90
46.300        97
46.320       107
46.340        90
46.360        93
46.380        70
46.400        77
46.420       100
46.440        80
46.460       117
46.480       113
46.500        87
46.520        73
46.540       103
46.560        97
46.580       117
46.600       110
46.620        83
46.640        83
46.660       110
46.680        97
46.700        87
46.720        90
46.740       100
46.760        93
46.780        90
46.800       103
46.820       117
46.840       107
46.860       127
46.880        83
46.900        90
46.920        83
46.940       137
46.960       143
46.980       107
47.000       107
47.020       120
47.040       103
47.060       113
47.080       130
47.100       147
47.120       137
47.140       150
47.160       120
47.180       133
47.200       127
47.220       117
47.240       137
47.260       113
47.280       133
47.300       120
47.320       157
47.340       157
47.360       153
47.380       187
47.400       177
47.420       133
47.440       163
47.460       230
47.480       237
47.500       220
47.520       200
47.540       177
47.560       140
47.580       180
47.600       147
47.620       117
47.640       110
47.660       107
47.680        93
47.700       107
47.720       107
47.740        87
47.760        77
47.780        70
47.800        73
47.820       110
47.840        53
47.860        70
47.880        80
47.900        63
47.920       110
47.940        70
47.960       123
47.980        87
48.000        70
48.020        83
48.040        97
48.060       107
48.080       100
48.100        87
48.120        77
48.140       123
48.160        73
48.180       100
48.200        93
48.220       143
48.240       113
48.260       103
48.280        93
48.300       123
48.320       180
48.340       110
48.360       123
48.380       163
48.400       143
48.420       207
48.440       187
48.460       177
48.480       190
48.500       177
48.520       180
48.540       153
48.560       130
48.580       130
48.600       177
48.620       123
48.640       133
48.660       117
48.680       120
48.700        87
48.720        90
48.740        97
48.760        57
48.780        63
48.800        80
48.820       103
48.840        87
48.860        90
48.880        87
48.900        77
48.920        97
48.940        70
48.960       103
48.980        60
49.000        87
49.020        67
49.040        63
49.060        60
49.080       107
49.100        83
49.120        97
49.140        63
49.160        73
49.180        87
49.200        53
49.220        97
49.240        90
49.260       100
49.280        63
49.300        87
49.320        57
49.340        63
49.360        97
49.380        83
49.400        70
49.420        70
49.440        70
49.460        70
49.480        73
49.500       107
49.520        30
49.540        90
49.560        90
49.580        83
49.600        80
49.620        93
49.640        73
49.660        57
49.680        63
49.700        73
49.720        87
49.740        73
49.760        57
49.780       100
49.800        67
49.820        63
49.840        97
49.860        70
49.880        47
49.900       100
49.920        80
49.940        90
49.960       100
49.980        73
50.000        87
50.020        50
50.040        90
50.060        63
50.080        80
50.100        70
50.120        70
50.140        77
50.160        97
50.180        90
50.200        63
50.220        67
50.240        87
50.260       103
50.280        70
50.300        97
50.320        80
50.340        83
50.360        67
50.380        63
50.400        70
50.420       120
50.440        80
50.460        80
50.480        73
50.500        53
50.520        77
50.540        63
50.560        23
50.580        63
50.600        80
50.620        83
50.640       110
50.660        83
50.680        63
50.700       100
50.720        93
50.740        70
50.760        60
50.780        97
50.800        47
50.820        83
50.840        90
50.860        97
50.880        77
50.900       100
50.920        60
50.940        83
50.960       117
50.980        83
51.000       100
51.020        57
51.040        67
51.060        67
51.080        93
51.100        67
51.120        87
51.140       127
51.160       107
51.180        90
51.200        80
51.220        60
51.240        53
51.260        63
51.280        87
51.300       117
51.320       100
51.340        63
51.360        67
51.380        73
51.400        87
51.420       103
51.440        77
51.460       103
51.480       107
51.500        83
51.520        77
51.540       103
51.560        83
51.580        83
51.600        83
51.620        87
51.640        80
51.660        83
51.680        70
51.700       103
51.720       113
51.740        93
51.760       103
51.780        97
51.800        67
51.820        93
51.840        90
51.860        97
51.880        70
51.900       123
51.920        90
51.940        87
51.960       107
51.980       117
52.000       110
52.020       123
52.040       133
52.060        93
52.080       123
52.100       103
52.120       113
52.140       107
52.160       120
52.180       107
52.200       163
52.220       133
52.240       140
52.260        87
52.280       113
52.300       147
52.320       107
52.340       163
52.360       107
52.380       157
52.400       120
52.420       183
52.440       127
52.460       183
52.480       183
52.500       223
52.520       230
52.540       243
52.560       293
52.580       370
52.600       390
52.620       403
52.640       360
52.660       413
52.680       293
52.700       400
52.720       426
52.740       417
52.760       393
52.780       303
52.800       210
52.820       300
52.840       237
52.860       197
52.880       200
52.900       227
52.920       147
52.940       177
52.960       150
52.980       140
53.000       117
53.020       117
53.040       153
53.060       157
53.080       117
53.100       150
53.120       110
53.140       140
53.160       117
53.180       113
53.200       120
53.220       120
53.240       107
53.260       127
53.280       113
53.300       133
53.320       100
53.340       100
53.360       117
53.380       110
53.400       113
53.420       117
53.440       107
53.460       100
53.480        93
53.500       100
53.520        80
53.540        70
53.560       103
53.580       103
53.600        67
53.620       110
53.640        73
53.660        97
53.680        87
53.700        60
53.720       100
53.740       130
53.760        80
53.780        70
53.800       113
53.820        93
53.840       127
53.860       107
53.880        70
53.900        73
53.920        83
53.940        73
53.960       127
53.980       117
54.000       103
54.020        83
54.040        73
54.060        70
54.080        70
54.100        87
54.120        90
54.140       107
54.160       103
54.180        93
54.200       100
54.220        70
54.240       113
54.260        83
54.280        60
54.300        77
54.320        77
54.340       103
54.360       110
54.380        67
54.400       110
54.420        63
54.440        83
54.460       110
54.480        70
54.500        77
54.520       127
54.540       100
54.560        70
54.580        80
54.600        47
54.620        77
54.640        77
54.660       100
54.680        73
54.700        90
54.720       113
54.740        87
54.760       107
54.780        93
54.800        97
54.820        87
54.840        60
54.860       120
54.880       113
54.900        87
54.920        93
54.940       123
54.960       117
54.980        93
55.000       120
55.020       120
55.040        97
55.060       127
55.080        90
55.100       113
55.120        93
55.140       157
55.160       123
55.180        90
55.200       107
55.220        80
55.240       107
55.260        90
55.280        53
55.300       137
55.320       143
55.340        83
55.360       107
55.380        80
55.400       110
55.420        90
55.440        93
55.460       117
55.480       127
55.500        80
55.520       103
55.540        60
55.560       140
55.580       107
55.600       110
55.620        90
55.640        97
55.660        87
55.680        80
55.700        73
55.720        83
55.740        90
55.760        63
55.780       100
55.800        87
55.820        83
55.840        97
55.860        97
55.880        73
55.900        77
55.920        77
55.940        67
55.960        73
55.980        73
56.000        63
56.020        90
56.040       107
56.060        90
56.080        70
56.100        87
56.120       107
56.140       103
56.160        70
56.180        93
56.200       103
56.220        63
56.240        93
56.260       103
56.280       113
56.300       110
56.320       100
56.340        93
56.360       100
56.380       137
56.400        70
56.420        83
56.440       127
56.460       110
56.480       100
56.500       103
56.520       107
56.540       110
56.560        80
56.580       107
56.600       173
56.620       133
56.640       100
56.660       150
56.680       127
56.700       150
56.720       120
56.740       117
56.760        83
56.780       103
56.800       117
56.820       103
56.840        97
56.860       147
56.880        97
56.900        97
56.920       130
56.940       160
56.960       157
56.980       140
57.000       140
57.020       110
57.040       170
57.060       143
57.080       147
57.100       140
57.120       130
57.140       147
57.160       167
57.180       150
57.200       143
57.220       183
57.240       157
57.260       127
57.280       163
57.300       153
57.320       153
57.340       150
57.360       187
57.380       177
57.400       163
57.420       153
57.440       143
57.460       127
57.480       127
57.500       103
57.520       137
57.540       150
57.560        73
57.580       110
57.600       113
57.620       140
57.640        77
57.660        80
57.680        90
57.700       107
57.720        67
57.740        70
57.760        77
57.780       113
57.800        83
57.820       120
57.840        97
57.860        97
57.880        97
57.900       113
57.920        73
57.940        47
57.960        70
57.980        93
58.000       103
58.020       110
58.040       110
58.060        70
58.080        83
58.100        77
58.120        97
58.140        87
58.160       123
58.180       107
58.200        83
58.220        87
58.240       103
58.260       117
58.280        57
58.300        67
58.320        77
58.340        83
58.360        47
58.380        90
58.400        87
58.420        70
58.440        73
58.460        67
58.480        77
58.500        47
58.520        87
58.540        53
58.560        83
58.580        80
58.600        63
58.620        70
58.640        73
58.660        63
58.680       100
58.700        77
58.720        93
58.740        67
58.760        60
58.780        73
58.800        73
58.820        90
58.840        77
58.860        80
58.880       100
58.900        63
58.920        87
58.940        73
58.960        90
58.980       100
59.000        57
59.020        80
59.040        70
59.060        40
59.080        83
59.100        60
59.120        90
59.140       107
59.160        90
59.180       120
59.200        80
59.220        83
59.240        93
59.260       117
59.280        90
59.300        83
59.320        70
59.340        90
59.360       100
59.380        70
59.400        67
59.420        90
59.440        47
59.460        50
59.480        80
59.500        87
59.520       103
59.540       100
59.560       113
59.580        57
59.600        80
59.620        60
59.640        77
59.660        70
59.680        77
59.700       110
59.720       127
59.740        63
59.760        73
59.780        73
59.800        90
59.820        83
59.840        90
59.860       123
59.880        70
59.900        53
59.920        73
59.940        93
59.960        90
59.980        73
60.000        90
