20.000       476
20.020       523
20.040       576
20.060       480
20.080       570
20.100       570
20.120       496
20.140       560
20.160       520
20.180       553
20.200       483
20.220       536
20.240       566
20.260       593
20.280       470
20.300       553
20.320       546
20.340       566
20.360       546
20.380       523
20.400       543
20.420       573
20.440       510
20.460       583
20.480       526
20.500       486
20.520       530
20.540       510
20.560       463
20.580       473
20.600       540
20.620       520
20.640       580
20.660       546
20.680       466
20.700       490
20.720       506
20.740       560
20.760       530
20.780       540
20.800       493
20.820       460
20.840       553
20.860       446
20.880       586
20.900       503
20.920       556
20.940       543
20.960       513
20.980       433
21.000       523
21.020       450
21.040       506
21.060       460
21.080       520
21.100       556
21.120       476
21.140       503
21.160       490
21.180       486
21.200       506
21.220       526
21.240       490
21.260       523
21.280       546
21.300       503
21.320       533
21.340       530
21.360       490
21.380       513
21.400       546
21.420       553
21.440       496
21.460       463
21.480       536
21.500       490
21.520       430
21.540       480
21.560       470
21.580       417
21.600       433
21.620       463
21.640       436
21.660       403
21.680       476
21.700       493
21.720       446
21.740       453
21.760       413
21.780       440
21.800       463
21.820       483
21.840       456
21.860       387
21.880       450
21.900       426
21.920       470
21.940       463
21.960       343
21.980       470
22.000       397
22.020       493
22.040       410
22.060       367
22.080       426
22.100       456
22.120       423
22.140       417
22.160       433
22.180       390
22.200       453
22.220       466
22.240       470
22.260       440
22.280       543
22.300       436
22.320       403
22.340       430
22.360       453
22.380       470
22.400       486
22.420       413
22.440       443
22.460       446
22.480       463
22.500       456
22.520       466
22.540       466
22.560       363
22.580       423
22.600       373
22.620       453
22.640       413
22.660       413
22.680       340
22.700       367
22.720       363
22.740       403
22.760       317
22.780       486
22.800       357
22.820       433
22.840       393
22.860       393
22.880       400
22.900       397
22.920       350
22.940       423
22.960       360
22.980       433
23.000       350
23.020       450
23.040       363
23.060       383
23.080       420
23.100       380
23.120       377
23.140       433
23.160       330
23.180       307
23.200       330
23.220       317
23.240       353
23.260       413
23.280       383
23.300       303
23.320       367
23.340       307
23.360       350
23.380       337
23.400       333
23.420       383
23.440       363
23.460       426
23.480       313
23.500       387
23.520       273
23.540       330
23.560       380
23.580       283
23.600       357
23.620       287
23.640       330
23.660       353
23.680       390
23.700       330
23.720       370
23.740       330
23.760       350
23.780       330
23.800       303
23.820       263
23.840       330
23.860       337
23.880       317
23.900       327
23.920       350
23.940       303
23.960       317
23.980       303
24.000       327
24.020       300
24.040       297
24.060       297
24.080       303
24.100       333
24.120       363
24.140       313
24.160       343
24.180       317
24.200       287
24.220       317
24.240       347
24.260       303
24.280       297
24.300       360
24.320       297
24.340       270
24.360       303
24.380       287
24.400       330
24.420       307
24.440       313
24.460       280
24.480       360
24.500       290
24.520       287
24.540       300
24.560       263
24.580       310
24.600       287
24.620       290
24.640       350
24.660       347
24.680       270
24.700       373
24.720       370
24.740       343
24.760       347
24.780       393
24.800       480
24.820       357
24.840       417
24.860       410
24.880       490
24.900       417
24.920       367
24.940       387
24.960       320
24.980       363
25.000       350
25.020       323
25.040       303
25.060       283
25.080       203
25.100       227
25.120       300
25.140       307
25.160       320
25.180       243
25.200       307
25.220       200
25.240       247
25.260       310
25.280       267
25.300       327
25.320       287
25.340       247
25.360       313
25.380       277
25.400       263
25.420       283
25.440       297
25.460       220
25.480       290
25.500       253
25.520       197
25.540       303
25.560       307
25.580       217
25.600       277
25.620       207
25.640       233
25.660       283
25.680       247
25.700       210
25.720       237
25.740       200
25.760       217
25.780       200
25.800       220
25.820       247
25.840       190
25.860       227
25.880       250
25.900       267
25.920       253
25.940       233
25.960       203
25.980       207
26.000       233
26.020       247
26.040       180
26.060       230
26.080       197
26.100       183
26.120       207
26.140       203
26.160       237
26.180       257
26.200       210
26.220       223
26.240       233
26.260       247
26.280       233
26.300       180
26.320       160
26.340       230
26.360       193
26.380       273
26.400       233
26.420       210
26.440       253
26.460       170
26.480       190
26.500       227
26.520       217
26.540       197
26.560       230
26.580       207
26.600       220
26.620       207
26.640       237
26.660       153
26.680       220
26.700       227
26.720       190
26.740       167
26.760       253
26.780       213
26.800       203
26.820       183
26.840       210
26.860       167
26.880       177
26.900       173
26.920       177
26.940       190
26.960       177
26.980       173
27.000       203
27.020       193
27.040       187
27.060       197
27.080       173
27.100       173
27.120       243
27.140       140
27.160       163
27.180       187
27.200       187
27.220       183
27.240       207
27.260       160
27.280       177
27.300       153
27.320       147
27.340       193
27.360       163
27.380       160
27.400       180
27.420       180
27.440       203
27.460       150
27.480       157
27.500       170
27.520       163
27.540       217
27.560       170
27.580       183
27.600       173
27.620       167
27.640       147
27.660       177
27.680       163
27.700       157
27.720       140
27.740       137
27.760       123
27.780       163
27.800       157
27.820       170
27.840       177
27.860       177
27.880       170
27.900       170
27.920       170
27.940       163
27.960       157
27.980       147
28.000       140
28.020       143
28.040       190
28.060       143
28.080       173
28.100       187
28.120       207
28.140       183
28.160       190
28.180       133
28.200       173
28.220       120
28.240       123
28.260       157
28.280       157
28.300       183
28.320       227
28.340       187
28.360       183
28.380       183
28.400       173
28.420       163
28.440       153
28.460       160
28.480       130
28.500       157
28.520       157
28.540       147
28.560       170
28.580       217
28.600       120
28.620       167
28.640       167
28.660       183
28.680       180
28.700       223
28.720       163
28.740       207
28.760       170
28.780       193
28.800       160
28.820       177
28.840       190
28.860       207
28.880       160
28.900       170
28.920       187
28.940       170
28.960       177
28.980       187
29.000       207
29.020       153
29.040       240
29.060       193
29.080       213
29.100       253
29.120       250
29.140       213
29.160       260
29.180       277
29.200       250
29.220       310
29.240       287
29.260       390
29.280       363
29.300       480
29.320       433
29.340       460
29.360       540
29.380       486
29.400       466
29.420       380
29.440       367
29.460       303
29.480       280
29.500       257
29.520       217
29.540       153
29.560       190
29.580       147
29.600       150
29.620       163
29.640       107
29.660       160
29.680       143
29.700       120
29.720       117
29.740       177
29.760       150
29.780       170
29.800       157
29.820       130
29.840       150
29.860       153
29.880       140
29.900       130
29.920       120
29.940       143
29.960       133
29.980       140
30.000       100
30.020       173
30.040       137
30.060       113
30.080       153
30.100       157
30.120       103
30.140       130
30.160       160
30.180       127
30.200       140
30.220       200
30.240       117
30.260       117
30.280       170
30.300       167
30.320       113
30.340       137
30.360       163
30.380       157
30.400       127
30.420       140
30.440       157
30.460       137
30.480       117
30.500       167
30.520       103
30.540       143
30.560        83
30.580       137
30.600       147
30.620       147
30.640       147
30.660       183
30.680       140
30.700       153
30.720       127
30.740       140
30.760       117
30.780       137
30.800       147
30.820       117
30.840       140
30.860       153
30.880       170
30.900       140
30.920       117
30.940       177
30.960       150
30.980       143
31.000       147
31.020       150
31.040       117
31.060       127
31.080       160
31.100       107
31.120       130
31.140       140
31.160       147
31.180       150
31.200       143
31.220       157
31.240       157
31.260       150
31.280       140
31.300       150
31.320       180
31.340       140
31.360       153
31.380       157
31.400       170
31.420       173
31.440       160
31.460       157
31.480       120
31.500       147
31.520       190
31.540       167
31.560       153
31.580       187
31.600       177
31.620       120
31.640       183
31.660       170
31.680       177
31.700       187
31.720       187
31.740       157
31.760       230
31.780       210
31.800       247
31.820       223
31.840       277
31.860       250
31.880       330
31.900       300
31.920       263
31.940       310
31.960       290
31.980       303
32.000       353
32.020       510
32.040       763
32.060      1339
32.080      1736
32.100      1909
32.120      1736
32.140      1173
32.160       680
32.180       500
32.200       370
32.220       343
32.240       313
32.260       287
32.280       273
32.300       253
32.320       153
32.340       203
32.360       167
32.380       237
32.400       223
32.420       220
32.440       200
32.460       210
32.480       137
32.500       197
32.520       200
32.540       167
32.560       207
32.580       233
32.600       177
32.620       147
32.640       183
32.660       197
32.680       200
32.700       170
32.720       213
32.740       170
32.760       187
32.780       180
32.800       240
32.820       160
32.840       150
32.860       143
32.880       230
32.900       163
32.920       190
32.940       157
32.960       157
32.980       173
33.000       237
33.020       137
33.040       220
33.060       140
33.080       137
33.100       157
33.120       180
33.140       193
33.160       167
33.180       170
33.200       173
33.220       163
33.240       147
33.260       167
33.280       207
33.300       193
33.320       157
33.340       143
33.360       167
33.380       170
33.400       167
33.420       163
33.440       223
33.460       113
33.480       180
33.500       140
33.520       150
33.540       170
33.560       170
33.580       167
33.600       147
33.620       167
33.640       160
33.660       170
33.680       163
33.700       150
33.720       157
33.740       153
33.760       183
33.780       163
33.800       233
33.820       197
33.840       183
33.860       207
33.880       153
33.900       117
33.920       160
33.940       123
33.960       163
33.980       187
34.000       163
34.020       127
34.040       233
34.060       157
34.080       173
34.100       167
34.120       187
34.140       173
34.160       180
34.180       177
34.200       157
34.220       183
34.240       163
34.260       207
34.280       190
34.300       220
34.320       197
34.340       337
34.360       393
34.380       540
34.400       676
34.420       740
34.440       770
34.460       746
34.480       923
34.500       820
34.520       780
34.540       850
34.560       900
34.580       860
34.600       796
34.620       763
34.640       780
34.660       763
34.680       870
34.700       883
34.720       816
34.740       910
34.760       806
34.780       773
34.800       853
34.820       843
34.840       846
34.860       973
34.880       880
34.900       860
34.920       943
34.940       966
34.960       863
34.980       830
35.000       960
35.020      1066
35.040       946
35.060      1043
35.080       923
35.100       980
35.120      1080
35.140      1060
35.160      1056
35.180      1090
35.200      1033
35.220      1333
35.240      1196
35.260      1356
35.280      1409
35.300      1833
35.320      2039
35.340      2479
35.360      2909
35.380      3732
35.400      4502
35.420      6474
35.440      7887
35.460      9683
35.480     11066
35.500     12882
35.520     15964
35.540     25173
35.560     46661
35.580    102586
35.600    187112
35.620    218872
35.640    201943
35.660    156661
35.680    125920
35.700    140494
35.720    137298
35.740    112398
35.760     67610
35.780     31947
35.800     17693
35.820     11889
35.840      8946
35.860      7410
35.880      5684
35.900      3968
35.920      2762
35.940      2309
35.960      1883
35.980      1829
36.000      1586
36.020      1529
36.040      1479
36.060      1386
36.080      1439
36.100      1200
36.120      1150
36.140      1130
36.160      1150
36.180      1100
36.200      1060
36.220      1036
36.240       936
36.260       976
36.280       850
36.300       923
36.320       993
36.340       840
36.360       893
36.380       933
36.400       763
36.420       790
36.440       830
36.460       843
36.480       666
36.500       920
36.520       660
36.540       786
36.560       706
36.580       723
36.600       716
36.620       783
36.640       783
36.660       750
36.680       763
36.700       766
36.720       713
36.740       653
36.760       700
36.780       660
36.800       710
36.820       653
36.840       690
36.860       656
36.880       703
36.900       616
36.920       750
36.940       580
36.960       620
36.980       680
37.000       656
37.020       680
37.040       563
37.060       630
37.080       636
37.100       660
37.120       583
37.140       600
37.160       666
37.180       623
37.200       673
37.220       593
37.240       616
37.260       560
37.280       636
37.300       586
37.320       616
37.340       633
37.360       586
37.380       550
37.400       586
37.420       576
37.440       646
37.460       620
37.480       566
37.500       580
37.520       633
37.540       600
37.560       563
37.580       503
37.600       643
37.620       593
37.640       583
37.660       526
37.680       543
37.700       553
37.720       610
37.740       553
37.760       506
37.780       556
37.800       586
37.820       646
37.840       503
37.860       640
37.880       523
37.900       516
37.920       526
37.940       543
37.960       533
37.980       476
38.000       543
38.020       506
38.040       516
38.060       496
38.080       576
38.100       600
38.120       530
38.140       540
38.160       516
38.180       550
38.200       570
38.220       550
38.240       533
38.260       563
38.280       483
38.300       513
38.320       463
38.340       520
38.360       516
38.380       520
38.400       550
38.420       493
38.440       546
38.460       503
38.480       433
38.500       493
38.520       553
38.540       513
38.560       450
38.580       440
38.600       486
38.620       473
38.640       473
38.660       440
38.680       503
38.700       500
38.720       436
38.740       420
38.760       503
38.780       486
38.800       576
38.820       463
38.840       453
38.860       543
38.880       506
38.900       426
38.920       393
38.940       440
38.960       503
38.980       490
39.000       470
39.020       480
39.040       443
39.060       453
39.080       490
39.100       450
39.120       536
39.140       496
39.160       476
39.180       387
39.200       493
39.220       486
39.240       550
39.260       593
39.280       460
39.300       490
39.320       460
39.340       510
39.360       450
39.380       536
39.400       563
39.420       503
39.440       456
39.460       620
39.480       513
39.500       573
39.520       516
39.540       546
39.560       553
39.580       450
39.600       516
39.620       470
39.640       510
39.660       466
39.680       426
39.700       436
39.720       493
39.740       453
39.760       373
39.780       453
39.800       420
39.820       380
39.840       426
39.860       417
39.880       430
39.900       327
39.920       417
39.940       383
39.960       367
39.980       417
40.000       410
40.020       407
40.040       397
40.060       387
40.080       357
40.100       400
40.120       357
40.140       350
40.160       350
40.180       403
40.200       393
40.220       337
40.240       380
40.260       360
40.280       330
40.300       343
40.320       360
40.340       383
40.360       333
40.380       390
40.400       383
40.420       330
40.440       393
40.460       377
40.480       350
40.500       287
40.520       363
40.540       353
40.560       353
40.580       370
40.600       360
40.620       337
40.640       390
40.660       340
40.680       290
40.700       323
40.720       330
40.740       343
40.760       400
40.780       313
40.800       400
40.820       307
40.840       360
40.860       363
40.880       440
40.900       313
40.920       333
40.940       353
40.960       300
40.980       340
41.000       340
41.020       320
41.040       313
41.060       297
41.080       313
41.100       343
41.120       317
41.140       267
41.160       320
41.180       363
41.200       353
41.220       330
41.240       330
41.260       340
41.280       300
41.300       393
41.320       333
41.340       340
41.360       413
41.380       310
41.400       330
41.420       327
41.440       323
41.460       390
41.480       270
41.500       333
41.520       350
41.540       340
41.560       300
41.580       347
41.600       343
41.620       297
41.640       290
41.660       330
41.680       340
41.700       320
41.720       327
41.740       283
41.760       320
41.780       300
41.800       337
41.820       287
41.840       320
41.860       297
41.880       277
41.900       273
41.920       253
41.940       347
41.960       260
41.980       333
42.000       300
42.020       297
42.040       280
42.060       323
42.080       320
42.100       307
42.120       270
42.140       340
42.160       253
42.180       280
42.200       230
42.220       260
42.240       317
42.260       280
42.280       287
42.300       320
42.320       250
42.340       243
42.360       247
42.380       277
42.400       287
42.420       283
42.440       333
42.460       327
42.480       313
42.500       307
42.520       250
42.540       327
42.560       303
42.580       333
42.600       243
42.620       233
42.640       243
42.660       280
42.680       293
42.700       317
42.720       327
42.740       297
42.760       250
42.780       273
42.800       250
42.820       320
42.840       270
42.860       270
42.880       317
42.900       270
42.920       270
42.940       243
42.960       277
42.980       297
43.000       273
43.020       320
43.040       303
43.060       300
43.080       370
43.100       307
43.120       353
43.140       363
43.160       317
43.180       313
43.200       283
43.220       263
43.240       273
43.260       270
43.280       247
43.300       320
43.320       257
43.340       257
43.360       270
43.380       243
43.400       327
43.420       300
43.440       207
43.460       233
43.480       240
43.500       223
43.520       213
43.540       257
43.560       257
43.580       273
43.600       217
43.620       260
43.640       227
43.660       233
43.680       197
43.700       250
43.720       257
43.740       200
43.760       207
43.780       220
43.800       220
43.820       263
43.840       257
43.860       233
43.880       287
43.900       227
43.920       237
43.940       207
43.960       247
43.980       213
44.000       270
44.020       237
44.040       180
44.060       207
44.080       270
44.100       257
44.120       200
44.140       220
44.160       213
44.180       180
44.200       213
44.220       227
44.240       253
44.260       253
44.280       220
44.300       247
44.320       207
44.340       193
44.360       160
44.380       193
44.400       257
44.420       267
44.440       227
44.460       153
44.480       210
44.500       217
44.520       240
44.540       237
44.560       257
44.580       230
44.600       170
44.620       187
44.640       163
44.660       227
44.680       210
44.700       230
44.720       163
44.740       213
44.760       217
44.780       180
44.800       167
44.820       190
44.840       210
44.860       217
44.880       183
44.900       207
44.920       243
44.940       207
44.960       257
44.980       210
45.000       183
45.020       220
45.040       220
45.060       223
45.080       227
45.100       173
45.120       283
45.140       210
45.160       240
45.180       193
45.200       243
45.220       193
45.240       267
45.260       257
45.280       270
45.300       180
45.320       207
45.340       230
45.360       223
45.380       243
45.400       240
45.420       263
45.440       247
45.460       207
45.480       290
45.500       257
45.520       210
45.540       290
45.560       283
45.580       260
45.600       243
45.620       250
45.640       307
45.660       393
45.680       297
45.700       370
45.720       390
45.740       340
45.760       417
45.780       333
45.800       417
45.820       340
45.840       373
45.860       320
45.880       370
45.900       370
45.920       357
45.940       403
45.960       317
45.980       270
46.000       270
46.020       313
46.040       287
46.060       300
46.080       273
46.100       260
46.120       233
46.140       323
46.160       233
46.180       220
46.200       230
46.220       247
46.240       240
46.260       223
46.280       207
46.300       230
46.320       260
46.340       170
46.360       203
46.380       217
46.400       243
46.420       223
46.440       180
46.460       183
46.480       187
46.500       143
46.520       183
46.540       207
46.560       173
46.580       233
46.600       233
46.620       200
46.640       120
46.660       223
46.680       133
46.700       173
46.720       160
46.740       200
46.760       147
46.780       237
46.800       197
46.820       187
46.840       167
46.860       173
46.880       163
46.900       170
46.920       177
46.940       243
46.960       183
46.980       203
47.000       190
47.020       203
47.040       163
47.060       167
47.080       177
47.100       230
47.120       203
47.140       223
47.160       223
47.180       193
47.200       210
47.220       230
47.240       190
47.260       190
47.280       223
47.300       247
47.320       210
47.340       217
47.360       227
47.380       243
47.400       270
47.420       277
47.440       227
47.460       240
47.480       297
47.500       263
47.520       300
47.540       260
47.560       217
47.580       213
47.600       200
47.620       227
47.640       207
47.660       233
47.680       207
47.700       173
47.720       140
47.740       163
47.760       167
47.780       163
47.800       203
47.820       200
47.840       163
47.860       127
47.880       140
47.900       147
47.920       133
47.940       177
47.960       167
47.980       173
48.000       167
48.020       170
48.040       197
48.060       150
48.080       150
48.100       173
48.120       200
48.140       190
48.160       180
48.180       160
48.200       163
48.220       190
48.240       180
48.260       237
48.280       173
48.300       237
48.320       187
48.340       207
48.360       210
48.380       173
48.400       243
48.420       243
48.440       253
48.460       307
48.480       273
48.500       290
48.520       253
48.540       247
48.560       243
48.580       150
48.600       257
48.620       243
48.640       173
48.660       190
48.680       190
48.700       220
48.720       137
48.740       193
48.760       180
48.780       133
48.800       150
48.820       107
48.840       173
48.860       170
48.880       127
48.900       127
48.920       117
48.940       120
48.960       153
48.980       103
49.000       163
49.020       117
49.040       127
49.060       113
49.080       127
49.100       140
49.120       143
49.140       127
49.160       103
49.180       167
49.200       160
49.220       183
49.240       160
49.260       180
49.280       140
49.300       140
49.320       110
49.340       123
49.360       127
49.380       133
49.400       153
49.420       137
49.440       170
49.460       137
49.480       127
49.500       133
49.520       110
49.540       113
49.560       157
49.580       130
49.600       150
49.620       100
49.640       110
49.660       107
49.680       130
49.700       110
49.720       137
49.740       143
49.760       110
49.780       130
49.800       103
49.820        90
49.840       133
49.860       127
49.880       130
49.900       103
49.920       143
49.940       120
49.960       130
49.980       160
50.000       120
50.020       123
50.040       117
50.060       120
50.080       137
50.100       103
50.120       147
50.140       147
50.160       113
50.180       130
50.200       123
50.220       103
50.240       153
50.260       123
50.280       110
50.300        97
50.320       120
50.340       103
50.360       143
50.380       120
50.400       110
50.420       127
50.440       137
50.460       133
50.480       123
50.500       143
50.520       127
50.540       133
50.560       123
50.580       130
50.600       113
50.620       117
50.640       107
50.660       123
50.680       127
50.700       133
50.720       117
50.740       120
50.760       110
50.780       140
50.800       173
50.820       177
50.840       130
50.860       160
50.880       133
50.900       173
50.920       120
50.940       153
50.960       140
50.980        87
51.000       103
51.020       137
51.040       120
51.060       140
51.080       117
51.100        77
51.120       110
51.140       100
51.160       103
51.180       150
51.200       113
51.220       143
51.240       100
51.260       123
51.280       113
51.300       100
51.320        83
51.340       127
51.360       140
51.380       100
51.400       107
51.420       143
51.440       143
51.460       117
51.480       113
51.500       110
51.520       103
51.540       103
51.560       117
51.580       143
51.600       117
51.620       140
51.640        90
51.660       123
51.680       110
51.700        90
51.720       127
51.740        90
51.760       123
51.780       147
51.800        93
51.820       113
51.840       117
51.860       100
51.880       137
51.900       130
51.920       103
51.940       127
51.960       123
51.980       143
52.000       110
52.020       133
52.040       153
52.060       120
52.080        83
52.100       153
52.120       103
52.140       127
52.160       120
52.180        73
52.200       120
52.220       143
52.240        87
52.260       147
52.280        90
52.300       123
52.320       120
52.340       110
52.360       100
52.380       143
52.400        97
52.420       107
52.440        93
52.460        70
52.480       127
52.500        93
52.520        83
52.540       123
52.560        80
52.580        93
52.600        93
52.620       100
52.640       137
52.660        80
52.680       127
52.700        90
52.720       143
52.740       120
52.760       127
52.780       163
52.800       120
52.820       153
52.840       117
52.860       103
52.880       103
52.900       107
52.920       113
52.940       113
52.960       130
52.980       120
53.000       110
53.020       133
53.040       110
53.060       120
53.080        77
53.100       103
53.120       143
53.140       110
53.160       113
53.180       127
53.200       103
53.220        90
53.240       110
53.260       113
53.280       100
53.300       110
53.320       113
53.340       113
53.360        77
53.380       130
53.400       107
53.420        97
53.440       100
53.460       147
53.480        93
53.500        97
53.520        87
53.540       113
53.560        77
53.580       123
53.600        83
53.620       107
53.640       133
53.660       107
53.680       143
53.700       100
53.720        80
53.740       123
53.760       130
53.780       117
53.800        83
53.820       120
53.840        93
53.860        77
53.880       147
53.900       113
53.920        90
53.940       137
53.960       123
53.980        90
54.000       127
54.020       107
54.040       133
54.060       100
54.080        97
54.100       117
54.120       100
54.140       120
54.160       113
54.180       117
54.200       157
54.220       127
54.240       120
54.260       123
54.280       117
54.300       130
54.320       120
54.340        93
54.360       150
54.380       107
54.400       110
54.420       130
54.440       107
54.460       113
54.480       127
54.500       130
54.520        83
54.540       100
54.560        90
54.580       140
54.600       157
54.620       120
54.640       103
54.660       123
54.680       123
54.700       103
54.720       183
54.740       117
54.760       110
54.780        97
54.800       100
54.820       130
54.840       170
54.860       143
54.880       137
54.900       130
54.920       103
54.940       130
54.960       120
54.980       137
55.000       153
55.020        93
55.040       127
55.060       173
55.080       117
55.100       133
55.120       107
55.140       133
55.160       143
55.180       170
55.200       110
55.220       137
55.240       120
55.260       123
55.280       150
55.300       123
55.320       123
55.340       137
55.360       113
55.380       147
55.400       103
55.420       120
55.440       153
55.460       150
55.480        93
55.500       130
55.520       133
55.540       137
55.560        90
55.580       157
55.600        90
55.620       110
55.640       130
55.660       113
55.680        83
55.700        87
55.720       123
55.740       117
55.760       120
55.780       110
55.800       113
55.820        97
55.840       130
55.860       137
55.880       100
55.900       123
55.920       103
55.940        97
55.960       103
55.980        90
56.000       170
56.020        93
56.040       100
56.060       117
56.080       107
56.100       100
56.120       100
56.140       133
56.160       140
56.180       123
56.200       133
56.220       120
56.240       140
56.260       107
56.280       117
56.300       153
56.320        83
56.340       127
56.360       103
56.380       113
56.400        80
56.420       113
56.440       120
56.460       153
56.480       110
56.500       127
56.520       127
56.540        87
56.560       113
56.580       107
56.600       140
56.620       127
56.640       120
56.660       160
56.680       180
56.700       133
56.720       140
56.740       123
56.760       120
56.780       133
56.800       120
56.820       140
56.840       110
56.860       130
56.880       117
56.900       213
56.920       113
56.940       140
56.960       163
56.980       120
57.000       123
57.020       197
57.040       177
57.060       163
57.080       200
57.100       173
57.120       203
57.140       190
57.160       220
57.180       197
57.200       210
57.220       170
57.240       187
57.260       153
57.280       227
57.300       243
57.320       153
57.340       210
57.360       230
57.380       217
57.400       213
57.420       200
57.440       163
57.460       147
57.480       143
57.500       170
57.520       123
57.540       153
57.560       123
57.580       107
57.600       120
57.620       100
57.640       107
57.660       107
57.680       117
57.700       137
57.720        90
57.740       110
57.760       133
57.780       100
57.800        97
57.820       100
57.840       140
57.860        93
57.880       120
57.900        97
57.920       110
57.940       133
57.960       123
57.980       163
58.000       160
58.020       107
58.040       150
58.060       150
58.080       100
58.100       110
58.120       133
58.140       137
58.160       120
58.180       117
58.200       110
58.220       120
58.240       130
58.260       117
58.280       113
58.300       110
58.320        97
58.340       120
58.360        97
58.380       113
58.400       110
58.420       120
58.440       123
58.460        97
58.480        80
58.500       103
58.520       123
58.540        90
58.560        93
58.580       130
58.600        87
58.620       107
58.640       100
58.660        70
58.680        77
58.700       133
58.720        87
58.740       120
58.760        93
58.780       100
58.800       113
58.820        87
58.840       133
58.860       110
58.880        63
58.900        60
58.920       120
58.940        90
58.960       107
58.980       130
59.000        87
59.020        97
59.040        97
59.060       110
59.080       107
59.100        80
59.120        87
59.140       117
59.160        93
59.180        90
59.200        73
59.220        97
59.240        90
59.260       100
59.280       107
59.300        93
59.320       123
59.340       100
59.360       137
59.380        90
59.400       107
59.420       100
59.440       123
59.460        97
59.480        70
59.500        93
59.520        87
59.540       130
59.560       167
59.580       120
59.600        97
59.620       107
59.640        67
59.660        93
59.680       100
59.700        93
59.720         3
59.740         3
59.760         0
59.780         0
59.800         0
59.820         0
59.840         0
59.860         0
59.880         0
59.900         3
59.920         0
59.940         0
59.960         0
59.980         0
60.000         0
