20.000         0
20.020         0
20.040         0
20.060         0
20.080         0
20.100         0
20.120         0
20.140         3
20.160         3
20.180         0
20.200         7
20.220         0
20.240         0
20.260       180
20.280       237
20.300       243
20.320       233
20.340       240
20.360       220
20.380       217
20.400       250
20.420       243
20.440       230
20.460       190
20.480       283
20.500       173
20.520       263
20.540       187
20.560       203
20.580       250
20.600       203
20.620       253
20.640       223
20.660       220
20.680       280
20.700       227
20.720       250
20.740       233
20.760       220
20.780       250
20.800       243
20.820       227
20.840       230
20.860       253
20.880       257
20.900       240
20.920       247
20.940       280
20.960       297
20.980       220
21.000       233
21.020       210
21.040       260
21.060       177
21.080       237
21.100       223
21.120       247
21.140       227
21.160       237
21.180       260
21.200       203
21.220       230
21.240       263
21.260       207
21.280       250
21.300       217
21.320       240
21.340       310
21.360       303
21.380       207
21.400       247
21.420       300
21.440       250
21.460       243
21.480       240
21.500       257
21.520       243
21.540       220
21.560       200
21.580       237
21.600       247
21.620       197
21.640       180
21.660       207
21.680       237
21.700       193
21.720       187
21.740       217
21.760       180
21.780       237
21.800       270
21.820       233
21.840       167
21.860       233
21.880       233
21.900       193
21.920       227
21.940       217
21.960       220
21.980       200
22.000       243
22.020       253
22.040       183
22.060       210
22.080       203
22.100       200
22.120       250
22.140       253
22.160       250
22.180       227
22.200       203
22.220       263
22.240       253
22.260       227
22.280       247
22.300       247
22.320       277
22.340       273
22.360       207
22.380       207
22.400       197
22.420       217
22.440       200
22.460       217
22.480       200
22.500       200
22.520       227
22.540       213
22.560       223
22.580       220
22.600       193
22.620       213
22.640       293
22.660       183
22.680       240
22.700       207
22.720       150
22.740       220
22.760       230
22.780       163
22.800       180
22.820       227
22.840       197
22.860       190
22.880       213
22.900       210
22.920       220
22.940       183
22.960       170
22.980       260
23.000       217
23.020       240
23.040       253
23.060       190
23.080       237
23.100       207
23.120       203
23.140       167
23.160       197
23.180       177
23.200       163
23.220       190
23.240       203
23.260       220
23.280       130
23.300       207
23.320       183
23.340       140
23.360       160
23.380       243
23.400       160
23.420       167
23.440       137
23.460       167
23.480       190
23.500       180
23.520       200
23.540       217
23.560       170
23.580       190
23.600       177
23.620       140
23.640       190
23.660       153
23.680       173
23.700       193
23.720       193
23.740       207
23.760       160
23.780       230
23.800       223
23.820       173
23.840       183
23.860       137
23.880       187
23.900       210
23.920       173
23.940       170
23.960       180
23.980       183
24.000       203
24.020       220
24.040       173
24.060       157
24.080       173
24.100       180
24.120       197
24.140       143
24.160       183
24.180       180
24.200       190
24.220       190
24.240       163
24.260       170
24.280       197
24.300       157
24.320       157
24.340       137
24.360       187
24.380       173
24.400       163
24.420       177
24.440       173
24.460       163
24.480       150
24.500       163
24.520       170
24.540       187
24.560       160
24.580       240
24.600       180
24.620       237
24.640       173
24.660       200
24.680       227
24.700       233
24.720       210
24.740       217
24.760       317
24.780       287
24.800       243
24.820       247
24.840       367
24.860       363
24.880       380
24.900       313
24.920       360
24.940       387
24.960       317
24.980       280
25.000       290
25.020       227
25.040       213
25.060       203
25.080       180
25.100       190
25.120       160
25.140       217
25.160       190
25.180       203
25.200       163
25.220       130
25.240       177
25.260       190
25.280       183
25.300       147
25.320       140
25.340       177
25.360       170
25.380       170
25.400       133
25.420       157
25.440       153
25.460       183
25.480       193
25.500       167
25.520       157
25.540       147
25.560       150
25.580       160
25.600       157
25.620       180
25.640       237
25.660       210
25.680       113
25.700       163
25.720       157
25.740       117
25.760       167
25.780       190
25.800       170
25.820       130
25.840       147
25.860       160
25.880       127
25.900       140
25.920       120
25.940       137
25.960       100
25.980       163
26.000       153
26.020       173
26.040       137
26.060       187
26.080       140
26.100       160
26.120       143
26.140       203
26.160       133
26.180       157
26.200       157
26.220       123
26.240       160
26.260       170
26.280       113
26.300       137
26.320        93
26.340       170
26.360       197
26.380       140
26.400       157
26.420       170
26.440       143
26.460       137
26.480       187
26.500       117
26.520       193
26.540       133
26.560       153
26.580       200
26.600       177
26.620       137
26.640       180
26.660       147
26.680       123
26.700       133
26.720       160
26.740       150
26.760       157
26.780       100
26.800       123
26.820       157
26.840       127
26.860       137
26.880       110
26.900       153
26.920       157
26.940       117
26.960       147
26.980        93
27.000       150
27.020       107
27.040       130
27.060       130
27.080       117
27.100       133
27.120       150
27.140       150
27.160       127
27.180       130
27.200       147
27.220       157
27.240       147
27.260        87
27.280       110
27.300       113
27.320       107
27.340       127
27.360       110
27.380        63
27.400       120
27.420       130
27.440       163
27.460       170
27.480       107
27.500        93
27.520       107
27.540       130
27.560       110
27.580       113
27.600       113
27.620       147
27.640       117
27.660       157
27.680       123
27.700       130
27.720       120
27.740       113
27.760       127
27.780       143
27.800       120
27.820        97
27.840       117
27.860       107
27.880       100
27.900       103
27.920       137
27.940       123
27.960        97
27.980       110
28.000       107
28.020       143
28.040       123
28.060        70
28.080        83
28.100        90
28.120        83
28.140       123
28.160       150
28.180       127
28.200       120
28.220        97
28.240       133
28.260       137
28.280       100
28.300       167
28.320        97
28.340        93
28.360       100
28.380       110
28.400       100
28.420       110
28.440       100
28.460       107
28.480       123
28.500       123
28.520       110
28.540        90
28.560       123
28.580       113
28.600        73
28.620       143
28.640       123
28.660       123
28.680       130
28.700       123
28.720       103
28.740       143
28.760       127
28.780       120
28.800       107
28.820       137
28.840       133
28.860       113
28.880       117
28.900       143
28.920       117
28.940       147
28.960       127
28.980       123
29.000       123
29.020        83
29.040       110
29.060       130
29.080       103
29.100       130
29.120       193
29.140       130
29.160       143
29.180       173
29.200       183
29.220       210
29.240       243
29.260       270
29.280       280
29.300       280
29.320       350
29.340       377
29.360       500
29.380       520
29.400       590
29.420       570
29.440       476
29.460       503
29.480       407
29.500       380
29.520       307
29.540       193
29.560       143
29.580       197
29.600       133
29.620       153
29.640       140
29.660       110
29.680       127
29.700        90
29.720        87
29.740       137
29.760       103
29.780        87
29.800        87
29.820       110
29.840       107
29.860       110
29.880        80
29.900       127
29.920       103
29.940       117
29.960       120
29.980        83
30.000       110
30.020       110
30.040       133
30.060        97
30.080       127
30.100        90
30.120       103
30.140       110
30.160        77
30.180        97
30.200       100
30.220       103
30.240       120
30.260       100
30.280        77
30.300       137
30.320        83
30.340       107
30.360       110
30.380       107
30.400        83
30.420        97
30.440       127
30.460        80
30.480        93
30.500        97
30.520       100
30.540       117
30.560        97
30.580       113
30.600        70
30.620        97
30.640       133
30.660       110
30.680       113
30.700        80
30.720        73
30.740        83
30.760        87
30.780        77
30.800       117
30.820        87
30.840       123
30.860       103
30.880       100
30.900        80
30.920        67
30.940       107
30.960       103
30.980        83
31.000       130
31.020       103
31.040        77
31.060        93
31.080       103
31.100       147
31.120        97
31.140       130
31.160       110
31.180       100
31.200       110
31.220       110
31.240       110
31.260        73
31.280       113
31.300        97
31.320       137
31.340        87
31.360        90
31.380        93
31.400       137
31.420        90
31.440       103
31.460       113
31.480       103
31.500       120
31.520       133
31.540       100
31.560       117
31.580       147
31.600        67
31.620       127
31.640       110
31.660       113
31.680       133
31.700       113
31.720       160
31.740       127
31.760       137
31.780       117
31.800       117
31.820       140
31.840       153
31.860       143
31.880       190
31.900       137
31.920       133
31.940       117
31.960       117
31.980        93
32.000       120
32.020       130
32.040       127
32.060       127
32.080        73
32.100       133
32.120        93
32.140        90
32.160       130
32.180       103
32.200       117
32.220        97
32.240        73
32.260       113
32.280        77
32.300        83
32.320        80
32.340        97
32.360        73
32.380       110
32.400        93
32.420       110
32.440        90
32.460        87
32.480       150
32.500        90
32.520        80
32.540        57
32.560       103
32.580        83
32.600       117
32.620        90
32.640       107
32.660       100
32.680        93
32.700        90
32.720        80
32.740        60
32.760        80
32.780        60
32.800       113
32.820        73
32.840        90
32.860        80
32.880        80
32.900        87
32.920        73
32.940        87
32.960        90
32.980        63
33.000       107
33.020        80
33.040        57
33.060        90
33.080        67
33.100        93
33.120       107
33.140        87
33.160        67
33.180        90
33.200       100
33.220        50
33.240        47
33.260        67
33.280        83
33.300        57
33.320       110
33.340        93
33.360        70
33.380       103
33.400        57
33.420        97
33.440        73
33.460        77
33.480        90
33.500        73
33.520        97
33.540       120
33.560       100
33.580        67
33.600        83
33.620        67
33.640        90
33.660        80
33.680       110
33.700        67
33.720       100
33.740        90
33.760        73
33.780        60
33.800        97
33.820        63
33.840       103
33.860        90
33.880        73
33.900       100
33.920        83
33.940        73
33.960       100
33.980        80
34.000        70
34.020        43
34.040        57
34.060        77
34.080        87
34.100        93
34.120        83
34.140        70
34.160        83
34.180        73
34.200        97
34.220        67
34.240        87
34.260       100
34.280        60
34.300        87
34.320        80
34.340        93
34.360        63
34.380        80
34.400        80
34.420        83
34.440        90
34.460        70
34.480        53
34.500        77
34.520       100
34.540        93
34.560        83
34.580        57
34.600        53
34.620        73
34.640        80
34.660        83
34.680        57
34.700        67
34.720        67
34.740        83
34.760        90
34.780        63
34.800        73
34.820        50
34.840        83
34.860        83
34.880       100
34.900        67
34.920        97
34.940       113
34.960        57
34.980        93
35.000        97
35.020        87
35.040        97
35.060        63
35.080       120
35.100        80
35.120        80
35.140        60
35.160        53
35.180       103
35.200       103
35.220       113
35.240        87
35.260        63
35.280        87
35.300        97
35.320        87
35.340        57
35.360        83
35.380        83
35.400        63
35.420        63
35.440        90
35.460        90
35.480       100
35.500       107
35.520        80
35.540       110
35.560        87
35.580       107
35.600        77
35.620        97
35.640       120
35.660        53
35.680        90
35.700        73
35.720       100
35.740        57
35.760        70
35.780       110
35.800        63
35.820       103
35.840       117
35.860       113
35.880       120
35.900        93
35.920       153
35.940       150
35.960       150
35.980       160
36.000       130
36.020       123
36.040       127
36.060       150
36.080       130
36.100       130
36.120       100
36.140       103
36.160        63
36.180        90
36.200        70
36.220        83
36.240        97
36.260        90
36.280        73
36.300        67
36.320        63
36.340        93
36.360        60
36.380        60
36.400        60
36.420        50
36.440       100
36.460        67
36.480        67
36.500        77
36.520        73
36.540        77
36.560        67
36.580        40
36.600        93
36.620        93
36.640        63
36.660        93
36.680        73
36.700        53
36.720        97
36.740        57
36.760        70
36.780        80
36.800        80
36.820        80
36.840        53
36.860        87
36.880        63
36.900        47
36.920        60
36.940        57
36.960        80
36.980        60
37.000        53
37.020        73
37.040        80
37.060        60
37.080        73
37.100        70
37.120        83
37.140        73
37.160        63
37.180        80
37.200        43
37.220        60
37.240        60
37.260        70
37.280        70
37.300        80
37.320        57
37.340        80
37.360        43
37.380        83
37.400        77
37.420        63
37.440        93
37.460        97
37.480        80
37.500        90
37.520        80
37.540        70
37.560        90
37.580        77
37.600        73
37.620       110
37.640       100
37.660        87
37.680       117
37.700       107
37.720       110
37.740        87
37.760       107
37.780       103
37.800        83
37.820        77
37.840        73
37.860        77
37.880        83
37.900        80
37.920        93
37.940       103
37.960        60
37.980        93
38.000        87
38.020        67
38.040        83
38.060        57
38.080        83
38.100        70
38.120        97
38.140        67
38.160        57
38.180        63
38.200        70
38.220        77
38.240        50
38.260       127
38.280        93
38.300        83
38.320        83
38.340       130
38.360        77
38.380        90
38.400       107
38.420        70
38.440        80
38.460       117
38.480       103
38.500        80
38.520        87
38.540       107
38.560       117
38.580        77
38.600        80
38.620        63
38.640       117
38.660        57
38.680        53
38.700        97
38.720        70
38.740        63
38.760        70
38.780        77
38.800        70
38.820        93
38.840        57
38.860        73
38.880        67
38.900        80
38.920        80
38.940        73
38.960        83
38.980        80
39.000       117
39.020        90
39.040        87
39.060        80
39.080       103
39.100        97
39.120        80
39.140       103
39.160       123
39.180        97
39.200       123
39.220       157
39.240       163
39.260       170
39.280       180
39.300       173
39.320       237
39.340       237
39.360       217
39.380       270
39.400       330
39.420       313
39.440       317
39.460       323
39.480       287
39.500       373
39.520       333
39.540       317
39.560       233
39.580       200
39.600       173
39.620       150
39.640       127
39.660       107
39.680       100
39.700       100
39.720        83
39.740       107
39.760        80
39.780        93
39.800        90
39.820       100
39.840       100
39.860        77
39.880        83
39.900        77
39.920       123
39.940        53
39.960        83
39.980        47
40.000        97
40.020        60
40.040        93
40.060       110
40.080        70
40.100        73
40.120        60
40.140       100
40.160        97
40.180        70
40.200        67
40.220        43
40.240        70
40.260        63
40.280        77
40.300        90
40.320        83
40.340       100
40.360        77
40.380        73
40.400        70
40.420       110
40.440        63
40.460        90
40.480        47
40.500        73
40.520        70
40.540        87
40.560        57
40.580        67
40.600        80
40.620        83
40.640        63
40.660        50
40.680        80
40.700        53
40.720        47
40.740        73
40.760        47
40.780        87
40.800        73
40.820       103
40.840        87
40.860        77
40.880        67
40.900        67
40.920        63
40.940        57
40.960        73
40.980        73
41.000        37
41.020        93
41.040        47
41.060        97
41.080        50
41.100        87
41.120        83
41.140        63
41.160        40
41.180        87
41.200        70
41.220        50
41.240        67
41.260       103
41.280        83
41.300        53
41.320        73
41.340        77
41.360        70
41.380        43
41.400        77
41.420        33
41.440        57
41.460        90
41.480        60
41.500        60
41.520        53
41.540        47
41.560        80
41.580        50
41.600        90
41.620        63
41.640        53
41.660        63
41.680        50
41.700        60
41.720        70
41.740        90
41.760        73
41.780        60
41.800        63
41.820        63
41.840        37
41.860        87
41.880        63
41.900        77
41.920        77
41.940        53
41.960        60
41.980        53
42.000        80
42.020        83
42.040        73
42.060        80
42.080        70
42.100        67
42.120        87
42.140        93
42.160        83
42.180        67
42.200        80
42.220        87
42.240        57
42.260        80
42.280        63
42.300        83
42.320        63
42.340        97
42.360        53
42.380        57
42.400        47
42.420        50
42.440        77
42.460        73
42.480        83
42.500        67
42.520        83
42.540        73
42.560       103
42.580        80
42.600        83
42.620        73
42.640        80
42.660        57
42.680        67
42.700        80
42.720        83
42.740        50
42.760        63
42.780        53
42.800        80
42.820        90
42.840        77
42.860        87
42.880        83
42.900       107
42.920        77
42.940        83
42.960        77
42.980        83
43.000       123
43.020        43
43.040       140
43.060       113
43.080       137
43.100       123
43.120       173
43.140       167
43.160       160
43.180       193
43.200       143
43.220       133
43.240       157
43.260       107
43.280       130
43.300       110
43.320        90
43.340        93
43.360       107
43.380        87
43.400        90
43.420        57
43.440        93
43.460        60
43.480        70
43.500        90
43.520        43
43.540        80
43.560        97
43.580        97
43.600        60
43.620        77
43.640        47
43.660        67
43.680        60
43.700        67
43.720        73
43.740        73
43.760        80
43.780        87
43.800        73
43.820        57
43.840        63
43.860        47
43.880        53
43.900        63
43.920        90
43.940        63
43.960       130
43.980        63
44.000        97
44.020       123
44.040        50
44.060        77
44.080        97
44.100        63
44.120        70
44.140        77
44.160        87
44.180        73
44.200        80
44.220        80
44.240        90
44.260        87
44.280        70
44.300        67
44.320        53
44.340        57
44.360        53
44.380        50
44.400        90
44.420        77
44.440        67
44.460        90
44.480        83
44.500        67
44.520        60
44.540       113
44.560        70
44.580        77
44.600        73
44.620        83
44.640        93
44.660        73
44.680        90
44.700       120
44.720        67
44.740        73
44.760        60
44.780        93
44.800        90
44.820        77
44.840       110
44.860        77
44.880        93
44.900       100
44.920        80
44.940       113
44.960        77
44.980        90
45.000       107
45.020        90
45.040        63
45.060        73
45.080       110
45.100       123
45.120       107
45.140       143
45.160       110
45.180       160
45.200       113
45.220       127
45.240       130
45.260       123
45.280       103
45.300       160
45.320       170
45.340       167
45.360       170
45.380       157
45.400       123
45.420       177
45.440       180
45.460       197
45.480       213
45.500       233
45.520       193
45.540       207
45.560       257
45.580       197
45.600       143
45.620       197
45.640       200
45.660       197
45.680       227
45.700       263
45.720       260
45.740       200
45.760       227
45.780       213
45.800       147
45.820       190
45.840       177
45.860       183
45.880       200
45.900       130
45.920       173
45.940       157
45.960       143
45.980       183
46.000       110
46.020       107
46.040       127
46.060       107
46.080       120
46.100        93
46.120        90
46.140       100
46.160       103
46.180       107
46.200        80
46.220        90
46.240       113
46.260       110
46.280        83
46.300       110
46.320       123
46.340        90
46.360       100
46.380        93
46.400        67
46.420        87
46.440       123
46.460       100
46.480        93
46.500       113
46.520        77
46.540       107
46.560       123
46.580       110
46.600       100
46.620       103
46.640        77
46.660        53
46.680       113
46.700        93
46.720        80
46.740        83
46.760        90
46.780       110
46.800        90
46.820       107
46.840       103
46.860        93
46.880        93
46.900        97
46.920       103
46.940        77
46.960        97
46.980        93
47.000       103
47.020       107
47.040       107
47.060        97
47.080       123
47.100       127
47.120       120
47.140       163
47.160       107
47.180       103
47.200       147
47.220       107
47.240       127
47.260       120
47.280       127
47.300       117
47.320       130
47.340       123
47.360       120
47.380       123
47.400       133
47.420       153
47.440       193
47.460       200
47.480       187
47.500       240
47.520       230
47.540       210
47.560       247
47.580       210
47.600       183
47.620       153
47.640       153
47.660       153
47.680       180
47.700       140
47.720       117
47.740        90
47.760       130
47.780       100
47.800        90
47.820        67
47.840        57
47.860       100
47.880       103
47.900        83
47.920        77
47.940        70
47.960       107
47.980        87
48.000        83
48.020        93
48.040        60
48.060        87
48.080        77
48.100       103
48.120        63
48.140        93
48.160        53
48.180        80
48.200        90
48.220        83
48.240        67
48.260       100
48.280        90
48.300        83
48.320       147
48.340       120
48.360       127
48.380       123
48.400       147
48.420       163
48.440       217
48.460       187
48.480       150
48.500       207
48.520       227
48.540       197
48.560       167
48.580       167
48.600       200
48.620       183
48.640       170
48.660       130
48.680        97
48.700       117
48.720        67
48.740        87
48.760        97
48.780       110
48.800        63
48.820        83
48.840        93
48.860       113
48.880       103
48.900        50
48.920        77
48.940        53
48.960        83
48.980        83
49.000        60
49.020        77
49.040        67
49.060        47
49.080       103
49.100        70
49.120        37
49.140       107
49.160        87
49.180        57
49.200        97
49.220        57
49.240        40
49.260        67
49.280        87
49.300       103
49.320        83
49.340        97
49.360        57
49.380        73
49.400        87
49.420        83
49.440        53
49.460        60
49.480        63
49.500        90
49.520        77
49.540        90
49.560        90
49.580        73
49.600        67
49.620        97
49.640        83
49.660        43
49.680        47
49.700        47
49.720        53
49.740       113
49.760        63
49.780        73
49.800        87
49.820        77
49.840        43
49.860        73
49.880        67
49.900        93
49.920        53
49.940        83
49.960        70
49.980        70
50.000        90
50.020        70
50.040        83
50.060       113
50.080       120
50.100        67
50.120        67
50.140        83
50.160        70
50.180       100
50.200        77
50.220       103
50.240        97
50.260        97
50.280        57
50.300        73
50.320        70
50.340        73
50.360        90
50.380        80
50.400        60
50.420        80
50.440        87
50.460        63
50.480        87
50.500        93
50.520        80
50.540        87
50.560        80
50.580        93
50.600        47
50.620        87
50.640        70
50.660        87
50.680        87
50.700        53
50.720       107
50.740       107
50.760       107
50.780        77
50.800        83
50.820        90
50.840        80
50.860        80
50.880        93
50.900        80
50.920        63
50.940        83
50.960        57
50.980        93
51.000       110
51.020        67
51.040        97
51.060       113
51.080        80
51.100        83
51.120        77
51.140        77
51.160       110
51.180       110
51.200       107
51.220        97
51.240        70
51.260       100
51.280       123
51.300        93
51.320        67
51.340       110
51.360        93
51.380        87
51.400        70
51.420        73
51.440       100
51.460        87
51.480       100
51.500        87
51.520        90
51.540        73
51.560        80
51.580        97
51.600       100
51.620        80
51.640       103
51.660        80
51.680       120
51.700        83
51.720        70
51.740        67
51.760        90
51.780       123
51.800        80
51.820        83
51.840        80
51.860        80
51.880       137
51.900        67
51.920        67
51.940       100
51.960       103
51.980       110
52.000        97
52.020       113
52.040        93
52.060       100
52.080       123
52.100       103
52.120       127
52.140       120
52.160       133
52.180       130
52.200       113
52.220       107
52.240       130
52.260       117
52.280       127
52.300       117
52.320       113
52.340        93
52.360       123
52.380       143
52.400       117
52.420       137
52.440       177
52.460       187
52.480       157
52.500       227
52.520       220
52.540       200
52.560       260
52.580       280
52.600       203
52.620       250
52.640       197
52.660       197
52.680       267
52.700       260
52.720       233
52.740       177
52.760       210
52.780       137
52.800       150
52.820       163
52.840       147
52.860       133
52.880       117
52.900       127
52.920       127
52.940       130
52.960        97
52.980       117
53.000       123
53.020       143
53.040        90
53.060       130
53.080       120
53.100       113
53.120       103
53.140       113
53.160       133
53.180       113
53.200       103
53.220       110
53.240       157
53.260       110
53.280       113
53.300        83
53.320       110
53.340       117
53.360       120
53.380       123
53.400        77
53.420       103
53.440        93
53.460        90
53.480        87
53.500       123
53.520        93
53.540        50
53.560        97
53.580        83
53.600        83
53.620        97
53.640       133
53.660        60
53.680        67
53.700        83
53.720       103
53.740        83
53.760        50
53.780        90
53.800       110
53.820        80
53.840        77
53.860        93
53.880        60
53.900       117
53.920        87
53.940        63
53.960        50
53.980        60
54.000        67
54.020        80
54.040       113
54.060        93
54.080        67
54.100        67
54.120        80
54.140       100
54.160       103
54.180        97
54.200        83
54.220       120
54.240        83
54.260       120
54.280       110
54.300        73
54.320        83
54.340       103
54.360        67
54.380        80
54.400        87
54.420        83
54.440       100
54.460        90
54.480        97
54.500        80
54.520        80
54.540        80
54.560        97
54.580       113
54.600       110
54.620       107
54.640        97
54.660        77
54.680        77
54.700       103
54.720       123
54.740       113
54.760       113
54.780       113
54.800        77
54.820        97
54.840       110
54.860       123
54.880       120
54.900       110
54.920        90
54.940        77
54.960        90
54.980       107
55.000       107
55.020       107
55.040        80
55.060       137
55.080       110
55.100       100
55.120       117
55.140       110
55.160       103
55.180       113
55.200        80
55.220        90
55.240       117
55.260       123
55.280        93
55.300       107
55.320        67
55.340        83
55.360       100
55.380       107
55.400        77
55.420        93
55.440       113
55.460       120
55.480       110
55.500        80
55.520        90
55.540        90
55.560        87
55.580        67
55.600       107
55.620        67
55.640        83
55.660        60
55.680        87
55.700        73
55.720        77
55.740        67
55.760        70
55.780        97
55.800       107
55.820        83
55.840        73
55.860        67
55.880        90
55.900        90
55.920        87
55.940       107
55.960       120
55.980        80
56.000        83
56.020        83
56.040        73
56.060        87
56.080       103
56.100        83
56.120        80
56.140        83
56.160        83
56.180        73
56.200        73
56.220        97
56.240       117
56.260        60
56.280        77
56.300        70
56.320        73
56.340       107
56.360        93
56.380       107
56.400        60
56.420        97
56.440       110
56.460       113
56.480        93
56.500       100
56.520        73
56.540       100
56.560       113
56.580       113
56.600        97
56.620        73
56.640       130
56.660       110
56.680       127
56.700       117
56.720       137
56.740       127
56.760       137
56.780       113
56.800       103
56.820       143
56.840       160
56.860       197
56.880       103
56.900       157
56.920       123
56.940       140
56.960       147
56.980       113
57.000       120
57.020       110
57.040       147
57.060       137
57.080       110
57.100       103
57.120       130
57.140       160
57.160       113
57.180       127
57.200       117
57.220       110
57.240       140
57.260       137
57.280       137
57.300       163
57.320       147
57.340       113
57.360       150
57.380       130
57.400       130
57.420       107
57.440       140
57.460       180
57.480       140
57.500       117
57.520        77
57.540       147
57.560        90
57.580       133
57.600        97
57.620        93
57.640        73
57.660        90
57.680        90
57.700       107
57.720        70
57.740        70
57.760        70
57.780        87
57.800        73
57.820        97
57.840       113
57.860       103
57.880        80
57.900        47
57.920        87
57.940        63
57.960        87
57.980        87
58.000        77
58.020        83
58.040       100
58.060        80
58.080       107
58.100        93
58.120        83
58.140        93
58.160       107
58.180        67
58.200       113
58.220        67
58.240        77
58.260        67
58.280        93
58.300        83
58.320       113
58.340       100
58.360        53
58.380        83
58.400        67
58.420       100
58.440        90
58.460        67
58.480        77
58.500        80
58.520        80
58.540        93
58.560        70
58.580        73
58.600        80
58.620        77
58.640       103
58.660        60
58.680        93
58.700        87
58.720        57
58.740        60
58.760        53
58.780        97
58.800        77
58.820        90
58.840        57
58.860       100
58.880        73
58.900        77
58.920        77
58.940        80
58.960        67
58.980        97
59.000        90
59.020        40
59.040        87
59.060        60
59.080        67
59.100       107
59.120        77
59.140        90
59.160        87
59.180        67
59.200        80
59.220        77
59.240        93
59.260        73
59.280       110
59.300        57
59.320        80
59.340        80
59.360        57
59.380        87
59.400        60
59.420        83
59.440        57
59.460        87
59.480        57
59.500       100
59.520        80
59.540        83
59.560        77
59.580        70
59.600        97
59.620        80
59.640        63
59.660        97
59.680       100
59.700        67
59.720       100
59.740        80
59.760       103
59.780        93
59.800        73
59.820        97
59.840        93
59.860       123
59.880        60
59.900        73
59.920        97
59.940        97
59.960        83
59.980       103
60.000        70
