20.000         0
20.020         0
20.040         0
20.060         0
20.080         0
20.100         0
20.120         0
20.140         0
20.160         0
20.180         0
20.200         0
20.220         0
20.240        10
20.260       193
20.280       220
20.300       227
20.320       227
20.340       180
20.360       270
20.380       207
20.400       233
20.420       197
20.440       260
20.460       223
20.480       237
20.500       180
20.520       277
20.540       207
20.560       267
20.580       230
20.600       210
20.620       197
20.640       230
20.660       260
20.680       250
20.700       243
20.720       257
20.740       197
20.760       280
20.780       263
20.800       210
20.820       183
20.840       200
20.860       153
20.880       210
20.900       173
20.920       203
20.940       223
20.960       230
20.980       227
21.000       170
21.020       207
21.040       233
21.060       290
21.080       280
21.100       223
21.120       233
21.140       207
21.160       260
21.180       293
21.200       233
21.220       243
21.240       283
21.260       220
21.280       157
21.300       183
21.320       257
21.340       213
21.360       247
21.380       253
21.400       280
21.420       257
21.440       253
21.460       210
21.480       253
21.500       200
21.520       170
21.540       243
21.560       220
21.580       200
21.600       277
21.620       183
21.640       227
21.660       200
21.680       220
21.700       167
21.720       187
21.740       193
21.760       187
21.780       233
21.800       207
21.820       223
21.840       210
21.860       207
21.880       230
21.900       123
21.920       203
21.940       210
21.960       257
21.980       177
22.000       187
22.020       217
22.040       170
22.060       190
22.080       180
22.100       217
22.120       200
22.140       217
22.160       213
22.180       237
22.200       187
22.220       233
22.240       180
22.260       217
22.280       277
22.300       247
22.320       167
22.340       213
22.360       180
22.380       230
22.400       197
22.420       187
22.440       230
22.460       180
22.480       200
22.500       190
22.520       140
22.540       180
22.560       213
22.580       197
22.600       200
22.620       167
22.640       223
22.660       210
22.680       203
22.700       197
22.720       203
22.740       183
22.760       180
22.780       257
22.800       233
22.820       180
22.840       160
22.860       237
22.880       190
22.900       167
22.920       173
22.940       187
22.960       193
22.980       230
23.000       180
23.020       203
23.040       203
23.060       207
23.080       257
23.100       230
23.120       227
23.140       223
23.160       220
23.180       167
23.200       223
23.220       183
23.240       157
23.260       203
23.280       153
23.300       207
23.320       177
23.340       233
23.360       207
23.380       163
23.400       203
23.420       170
23.440       147
23.460       210
23.480       187
23.500       263
23.520       197
23.540       170
23.560       193
23.580       207
23.600       207
23.620       153
23.640       203
23.660       153
23.680       173
23.700       213
23.720       193
23.740       203
23.760       210
23.780       160
23.800       173
23.820       210
23.840       200
23.860       217
23.880       173
23.900       180
23.920       173
23.940       150
23.960       183
23.980       180
24.000       143
24.020       193
24.040       157
24.060       190
24.080       167
24.100       183
24.120       173
24.140       133
24.160       163
24.180       190
24.200       150
24.220       157
24.240       140
24.260       143
24.280       160
24.300       170
24.320       177
24.340       177
24.360       193
24.380       183
24.400       167
24.420       170
24.440       173
24.460       197
24.480       177
24.500       130
24.520       197
24.540       180
24.560       137
24.580       137
24.600       217
24.620       197
24.640       227
24.660       203
24.680       160
24.700       187
24.720       173
24.740       190
24.760       247
24.780       203
24.800       237
24.820       233
24.840       260
24.860       330
24.880       273
24.900       333
24.920       303
24.940       290
24.960       303
24.980       237
25.000       207
25.020       253
25.040       180
25.060       153
25.080       197
25.100       193
25.120       197
25.140       113
25.160       183
25.180       167
25.200       203
25.220       183
25.240       153
25.260       143
25.280       160
25.300       190
25.320       203
25.340       230
25.360       297
25.380       237
25.400       340
25.420       277
25.440       357
25.460       333
25.480       440
25.500       410
25.520       397
25.540       490
25.560       516
25.580       786
25.600      1706
25.620      2886
25.640      3349
25.660      3425
25.680      2656
25.700      2142
25.720      1689
25.740      1043
25.760       493
25.780       353
25.800       253
25.820       240
25.840       207
25.860       217
25.880       210
25.900       177
25.920       160
25.940       170
25.960       133
25.980       197
26.000       173
26.020       147
26.040       153
26.060       163
26.080       180
26.100       197
26.120       197
26.140       153
26.160       167
26.180       173
26.200       137
26.220       207
26.240       207
26.260       170
26.280       183
26.300       130
26.320       170
26.340       147
26.360       157
26.380       127
26.400       140
26.420       190
26.440       150
26.460       147
26.480       170
26.500       173
26.520       190
26.540       163
26.560       170
26.580       197
26.600       137
26.620       130
26.640       153
26.660       150
26.680       183
26.700       133
26.720       127
26.740       137
26.760       127
26.780       157
26.800       110
26.820       143
26.840       110
26.860       147
26.880       137
26.900       140
26.920       153
26.940       117
26.960       110
26.980       133
27.000       160
27.020       153
27.040       140
27.060       133
27.080       127
27.100       160
27.120       150
27.140       127
27.160       133
27.180       150
27.200       143
27.220       143
27.240       137
27.260       120
27.280       140
27.300       173
27.320       133
27.340       157
27.360       130
27.380       140
27.400       153
27.420       120
27.440       103
27.460       130
27.480       117
27.500       147
27.520       127
27.540       107
27.560       140
27.580       117
27.600       123
27.620       117
27.640       157
27.660       157
27.680       170
27.700       143
27.720       140
27.740       130
27.760       157
27.780       163
27.800       173
27.820       133
27.840       107
27.860       130
27.880       137
27.900       113
27.920       160
27.940       147
27.960        93
27.980       127
28.000       103
28.020       103
28.040       143
28.060       133
28.080       113
28.100       103
28.120       120
28.140       127
28.160       100
28.180       153
28.200       140
28.220       113
28.240       113
28.260       137
28.280       107
28.300       117
28.320       123
28.340       117
28.360       113
28.380       117
28.400       120
28.420       127
28.440       140
28.460       127
28.480       113
28.500       160
28.520       137
28.540       157
28.560       123
28.580       170
28.600       117
28.620       110
28.640        93
28.660       130
28.680       130
28.700       107
28.720       117
28.740       130
28.760       120
28.780       117
28.800       113
28.820        90
28.840       117
28.860       123
28.880       120
28.900       153
28.920       127
28.940       117
28.960       150
28.980       150
29.000       117
29.020       133
29.040       127
29.060       150
29.080       170
29.100       130
29.120       150
29.140       170
29.160       133
29.180       210
29.200       190
29.220       223
29.240       237
29.260       223
29.280       270
29.300       253
29.320       287
29.340       297
29.360       400
29.380       377
29.400       420
29.420       380
29.440       287
29.460       320
29.480       260
29.500       270
29.520       230
29.540       183
29.560       137
29.580       153
29.600       157
29.620       140
29.640       123
29.660        93
29.680        93
29.700        90
29.720       110
29.740       120
29.760       133
29.780        97
29.800       143
29.820       103
29.840       123
29.860       127
29.880       117
29.900       137
29.920       113
29.940       133
29.960       137
29.980       100
30.000       123
30.020       107
30.040       133
30.060       110
30.080       100
30.100        70
30.120        73
30.140       127
30.160       137
30.180       123
30.200        97
30.220       117
30.240       103
30.260        80
30.280       110
30.300        73
30.320       113
30.340       117
30.360       113
30.380       100
30.400        90
30.420       100
30.440       120
30.460        77
30.480        83
30.500       103
30.520        90
30.540        87
30.560       107
30.580        97
30.600       110
30.620       103
30.640       103
30.660       133
30.680       113
30.700       100
30.720       107
30.740       130
30.760        80
30.780        87
30.800        90
30.820       110
30.840       133
30.860       117
30.880       120
30.900       133
30.920       110
30.940       107
30.960       110
30.980        87
31.000        77
31.020       120
31.040       127
31.060        77
31.080       113
31.100       130
31.120        83
31.140        83
31.160        93
31.180        97
31.200        80
31.220       107
31.240       120
31.260       103
31.280       133
31.300       117
31.320       100
31.340       150
31.360       130
31.380       103
31.400        83
31.420       123
31.440       150
31.460       110
31.480       120
31.500       143
31.520       140
31.540        93
31.560        73
31.580       107
31.600       170
31.620       130
31.640       113
31.660       103
31.680       100
31.700       117
31.720       140
31.740       133
31.760       140
31.780       117
31.800       110
31.820       137
31.840       167
31.860       153
31.880       150
31.900       160
31.920       117
31.940       137
31.960       123
31.980       100
32.000       137
32.020       130
32.040        90
32.060       107
32.080        97
32.100       130
32.120       117
32.140        83
32.160       127
32.180       103
32.200       113
32.220       133
32.240       140
32.260       100
32.280       123
32.300        67
32.320       103
32.340        87
32.360       123
32.380        83
32.400        87
32.420        97
32.440        87
32.460       100
32.480        93
32.500       113
32.520        83
32.540       127
32.560       113
32.580        90
32.600        73
32.620       123
32.640       110
32.660       110
32.680        67
32.700        97
32.720        43
32.740        77
32.760       110
32.780        97
32.800        77
32.820       123
32.840       100
32.860       130
32.880       107
32.900        77
32.920       103
32.940        83
32.960        63
32.980        80
33.000        90
33.020        93
33.040       107
33.060        80
33.080        83
33.100        77
33.120        93
33.140        70
33.160       107
33.180        73
33.200        80
33.220        77
33.240        77
33.260        90
33.280        73
33.300       103
33.320        97
33.340        80
33.360        73
33.380        77
33.400       107
33.420        60
33.440        90
33.460       103
33.480        77
33.500        83
33.520       100
33.540       117
33.560        67
33.580       100
33.600        80
33.620        73
33.640        60
33.660        97
33.680        90
33.700        77
33.720        97
33.740        80
33.760        73
33.780        80
33.800       100
33.820        70
33.840        93
33.860       113
33.880        97
33.900        70
33.920       103
33.940        73
33.960        67
33.980        80
34.000        80
34.020        67
34.040        77
34.060        87
34.080        87
34.100        93
34.120        83
34.140        80
34.160        83
34.180        67
34.200        73
34.220        77
34.240       107
34.260        83
34.280       117
34.300        53
34.320        63
34.340        77
34.360        83
34.380       107
34.400        63
34.420        57
34.440        50
34.460        67
34.480       100
34.500        93
34.520        63
34.540        83
34.560        70
34.580        63
34.600        73
34.620        57
34.640        73
34.660        77
34.680       100
34.700        77
34.720        97
34.740        83
34.760        60
34.780        83
34.800        73
34.820        93
34.840        80
34.860       103
34.880        53
34.900       100
34.920       107
34.940        93
34.960       100
34.980        50
35.000        77
35.020        70
35.040        83
35.060        70
35.080       110
35.100        70
35.120        60
35.140        90
35.160        73
35.180       103
35.200        93
35.220        90
35.240        73
35.260        90
35.280       107
35.300        77
35.320        97
35.340        53
35.360        80
35.380       100
35.400        97
35.420        97
35.440       100
35.460       100
35.480        43
35.500        70
35.520       117
35.540        90
35.560        57
35.580       110
35.600        90
35.620       117
35.640        67
35.660        50
35.680        53
35.700        97
35.720        83
35.740       100
35.760       107
35.780       110
35.800       103
35.820       110
35.840       110
35.860       137
35.880       153
35.900       137
35.920       133
35.940       107
35.960       123
35.980       120
36.000       127
36.020       153
36.040       137
36.060       150
36.080       103
36.100        97
36.120       110
36.140       103
36.160       100
36.180       103
36.200        90
36.220        73
36.240        60
36.260       100
36.280       103
36.300        90
36.320        63
36.340        57
36.360        90
36.380        83
36.400        70
36.420       110
36.440        80
36.460        60
36.480        67
36.500        73
36.520        60
36.540        73
36.560        53
36.580        97
36.600        77
36.620       103
36.640        67
36.660        63
36.680        93
36.700        57
36.720        83
36.740        87
36.760        83
36.780        67
36.800        50
36.820        63
36.840        63
36.860        80
36.880        53
36.900        70
36.920        73
36.940        63
36.960        70
36.980        67
37.000        87
37.020        70
37.040        50
37.060        67
37.080        77
37.100        80
37.120        90
37.140        50
37.160        90
37.180        77
37.200        70
37.220        87
37.240        70
37.260       100
37.280        67
37.300        80
37.320        67
37.340        87
37.360        80
37.380        53
37.400       110
37.420        80
37.440        90
37.460       100
37.480        70
37.500        90
37.520        80
37.540        80
37.560        73
37.580       100
37.600        67
37.620       110
37.640        80
37.660       113
37.680        87
37.700        97
37.720        97
37.740        67
37.760        87
37.780        87
37.800        93
37.820        87
37.840        60
37.860        90
37.880        57
37.900        80
37.920        90
37.940        93
37.960       110
37.980        87
38.000       100
38.020       130
38.040        70
38.060        70
38.080        87
38.100        63
38.120        57
38.140        80
38.160        63
38.180        77
38.200        47
38.220        87
38.240        80
38.260        70
38.280        40
38.300       103
38.320        97
38.340       147
38.360       133
38.380       110
38.400       117
38.420        97
38.440       113
38.460        83
38.480        67
38.500        77
38.520       100
38.540        63
38.560        80
38.580        60
38.600        93
38.620        67
38.640        83
38.660        67
38.680        83
38.700        90
38.720        73
38.740       120
38.760        50
38.780        87
38.800        90
38.820        77
38.840        63
38.860        97
38.880        43
38.900        90
38.920        67
38.940        50
38.960        63
38.980        77
39.000        60
39.020        77
39.040        90
39.060        90
39.080        90
39.100        87
39.120        93
39.140        80
39.160        90
39.180       120
39.200        63
39.220        97
39.240       143
39.260       140
39.280       143
39.300        93
39.320       113
39.340       167
39.360       150
39.380       167
39.400       120
39.420       170
39.440       147
39.460       113
39.480       143
39.500       133
39.520       120
39.540       113
39.560        93
39.580        73
39.600        73
39.620        63
39.640        97
39.660        67
39.680       103
39.700        70
39.720       117
39.740        70
39.760        60
39.780        63
39.800        77
39.820        70
39.840        70
39.860        67
39.880        73
39.900        97
39.920        73
39.940        53
39.960        93
39.980        57
40.000        73
40.020        90
40.040        60
40.060        50
40.080        73
40.100        53
40.120        87
40.140        50
40.160        97
40.180        77
40.200        77
40.220        90
40.240        77
40.260        53
40.280        73
40.300        83
40.320        77
40.340        70
40.360       103
40.380        63
40.400        67
40.420        70
40.440        67
40.460        63
40.480        67
40.500        70
40.520        83
40.540        60
40.560        60
40.580        53
40.600        70
40.620        33
40.640        93
40.660        60
40.680        53
40.700        50
40.720        40
40.740        63
40.760        73
40.780        47
40.800        83
40.820        87
40.840        70
40.860        93
40.880        57
40.900       100
40.920        63
40.940        43
40.960        53
40.980       110
41.000        67
41.020        97
41.040        83
41.060        80
41.080        53
41.100        77
41.120        90
41.140        70
41.160        53
41.180        93
41.200        77
41.220        73
41.240        77
41.260       100
41.280        77
41.300        57
41.320        83
41.340        63
41.360        93
41.380        53
41.400        70
41.420        73
41.440        70
41.460        60
41.480        77
41.500        67
41.520        70
41.540        83
41.560        57
41.580        73
41.600        83
41.620       107
41.640       107
41.660        73
41.680        80
41.700        63
41.720        83
41.740        70
41.760        63
41.780        67
41.800        63
41.820        73
41.840        50
41.860        47
41.880        93
41.900        73
41.920        90
41.940        77
41.960        50
41.980        90
42.000        70
42.020        70
42.040        40
42.060        50
42.080        37
42.100        90
42.120        57
42.140        47
42.160        73
42.180        93
42.200       103
42.220        57
42.240        67
42.260        57
42.280        43
42.300        93
42.320        70
42.340        50
42.360        67
42.380        60
42.400        40
42.420        73
42.440        67
42.460        67
42.480        40
42.500        90
42.520        63
42.540        80
42.560        60
42.580        73
42.600        57
42.620        57
42.640       100
42.660       100
42.680        87
42.700        80
42.720        53
42.740        50
42.760       103
42.780        63
42.800        77
42.820        77
42.840        77
42.860        57
42.880        77
42.900        77
42.920        60
42.940        87
42.960        97
42.980       100
43.000        73
43.020       123
43.040       137
43.060       107
43.080       143
43.100       120
43.120       120
43.140       133
43.160       130
43.180       143
43.200        93
43.220       123
43.240       117
43.260       120
43.280       127
43.300       113
43.320        67
43.340        90
43.360        97
43.380        50
43.400        87
43.420        60
43.440        50
43.460        97
43.480        50
43.500        93
43.520        77
43.540        60
43.560        63
43.580        67
43.600        60
43.620        67
43.640        57
43.660        40
43.680        73
43.700        70
43.720        80
43.740        83
43.760        73
43.780        73
43.800        97
43.820        67
43.840        60
43.860        80
43.880        73
43.900        70
43.920        70
43.940        90
43.960        63
43.980       113
44.000        77
44.020        67
44.040        83
44.060        73
44.080        80
44.100        63
44.120        77
44.140        60
44.160        83
44.180       100
44.200        83
44.220        57
44.240        63
44.260        93
44.280        83
44.300        70
44.320        60
44.340        70
44.360        80
44.380        63
44.400        77
44.420        77
44.440        73
44.460        67
44.480        57
44.500        70
44.520        63
44.540        77
44.560        87
44.580        67
44.600        33
44.620        60
44.640        77
44.660        77
44.680        73
44.700        77
44.720        77
44.740        90
44.760        87
44.780        70
44.800        70
44.820        93
44.840        67
44.860       130
44.880        40
44.900        47
44.920        77
44.940        63
44.960       103
44.980        73
45.000        90
45.020        70
45.040        90
45.060        70
45.080        93
45.100       107
45.120        93
45.140        93
45.160        83
45.180        73
45.200        70
45.220        97
45.240        87
45.260        90
45.280        87
45.300        97
45.320       100
45.340        87
45.360       130
45.380        73
45.400       123
45.420       120
45.440        77
45.460       117
45.480       120
45.500       103
45.520       107
45.540       117
45.560       123
45.580        97
45.600       113
45.620       103
45.640       117
45.660       107
45.680        93
45.700       110
45.720        77
45.740       113
45.760        90
45.780       120
45.800        87
45.820        87
45.840        73
45.860        80
45.880       100
45.900        63
45.920        77
45.940        97
45.960        90
45.980        90
46.000       100
46.020        87
46.040        83
46.060        70
46.080        70
46.100       123
46.120        77
46.140        70
46.160        87
46.180       110
46.200       110
46.220       100
46.240        73
46.260        63
46.280        97
46.300        97
46.320        83
46.340        90
46.360        87
46.380        67
46.400        73
46.420        40
46.440        63
46.460        73
46.480        83
46.500        63
46.520        73
46.540        80
46.560        87
46.580        93
46.600        97
46.620        43
46.640        73
46.660        80
46.680        77
46.700        77
46.720       117
46.740        53
46.760       107
46.780        83
46.800        90
46.820        77
46.840       130
46.860        97
46.880        80
46.900        60
46.920        90
46.940       107
46.960       130
46.980       140
47.000       107
47.020        97
47.040       167
47.060       117
47.080        97
47.100       173
47.120       147
47.140       130
47.160       207
47.180       250
47.200       237
47.220       253
47.240       253
47.260       237
47.280       140
47.300       137
47.320       177
47.340       153
47.360       147
47.380       167
47.400       220
47.420       180
47.440       173
47.460       180
47.480       220
47.500       187
47.520       213
47.540       203
47.560       177
47.580       123
47.600       160
47.620       153
47.640       127
47.660       177
47.680       110
47.700       113
47.720        77
47.740       103
47.760        83
47.780        90
47.800       103
47.820       103
47.840       120
47.860       103
47.880       107
47.900        70
47.920       113
47.940       100
47.960        67
47.980        50
48.000        90
48.020        87
48.040        67
48.060        70
48.080        77
48.100        80
48.120        73
48.140        80
48.160        90
48.180        57
48.200       103
48.220       123
48.240       110
48.260       143
48.280       130
48.300       127
48.320       120
48.340       147
48.360       137
48.380       153
48.400       150
48.420       157
48.440       183
48.460       143
48.480       187
48.500       223
48.520       210
48.540       227
48.560       153
48.580       187
48.600       140
48.620       123
48.640       117
48.660       107
48.680       150
48.700        80
48.720        73
48.740        70
48.760       110
48.780        73
48.800        63
48.820        60
48.840        97
48.860        53
48.880        90
48.900        90
48.920        73
48.940        70
48.960        67
48.980        70
49.000       113
49.020        97
49.040        63
49.060        90
49.080        70
49.100        83
49.120        87
49.140        73
49.160        87
49.180        80
49.200        80
49.220        67
49.240        87
49.260        77
49.280        53
49.300       107
49.320       100
49.340        60
49.360       113
49.380        90
49.400        83
49.420        53
49.440        97
49.460        90
49.480       110
49.500        67
49.520        83
49.540        70
49.560        63
49.580        87
49.600        73
49.620        57
49.640        70
49.660        77
49.680        67
49.700        90
49.720        73
49.740        47
49.760       107
49.780        87
49.800        67
49.820        70
49.840        80
49.860        93
49.880        73
49.900        50
49.920        57
49.940        90
49.960        57
49.980        87
50.000        60
50.020        70
50.040        63
50.060        80
50.080        70
50.100        87
50.120        87
50.140        73
50.160        60
50.180        63
50.200        70
50.220        77
50.240        80
50.260        57
50.280        73
50.300        80
50.320        80
50.340        87
50.360       103
50.380        67
50.400        90
50.420        60
50.440        80
50.460        63
50.480        90
50.500        57
50.520       103
50.540        77
50.560       110
50.580        80
50.600        73
50.620        83
50.640        93
50.660        90
50.680       103
50.700        93
50.720       137
50.740       140
50.760       133
50.780       120
50.800       110
50.820       107
50.840       117
50.860       173
50.880       143
50.900       123
50.920       120
50.940       140
50.960       140
50.980       143
51.000       100
51.020       130
51.040       137
51.060       120
51.080       160
51.100       167
51.120       110
51.140       113
51.160       113
51.180       117
51.200       127
51.220       160
51.240       137
51.260       140
51.280       143
51.300       153
51.320       153
51.340       110
51.360       117
51.380        97
51.400       137
51.420       143
51.440       147
51.460       147
51.480       123
51.500       140
51.520       127
51.540       153
51.560       107
51.580       107
51.600       140
51.620       143
51.640       160
51.660       173
51.680       153
51.700       143
51.720       187
51.740       153
51.760       133
51.780       133
51.800       153
51.820       107
51.840       150
51.860       167
51.880       190
51.900       157
51.920       177
51.940       163
51.960       170
51.980       163
52.000       183
52.020       173
52.040       150
52.060       183
52.080       233
52.100       247
52.120       230
52.140       220
52.160       213
52.180       267
52.200       303
52.220       310
52.240       283
52.260       317
52.280       377
52.300       483
52.320       593
52.340       723
52.360       863
52.380      1130
52.400      1799
52.420      1876
52.440      2336
52.460      2366
52.480      2756
52.500      2902
52.520      3695
52.540      5848
52.560     10396
52.580     16833
52.600     21741
52.620     22981
52.640     17949
52.660     10406
52.680      6074
52.700      6497
52.720      8693
52.740     11475
52.760     11355
52.780      9280
52.800      5065
52.820      2329
52.840      1313
52.860      1040
52.880       800
52.900       686
52.920       546
52.940       440
52.960       430
52.980       360
53.000       380
53.020       293
53.040       377
53.060       260
53.080       230
53.100       260
53.120       267
53.140       207
53.160       237
53.180       233
53.200       223
53.220       233
53.240       180
53.260       173
53.280       193
53.300       190
53.320       213
53.340       157
53.360       213
53.380       207
53.400       193
53.420       170
53.440       143
53.460       183
53.480       160
53.500       120
53.520       173
53.540       180
53.560       140
53.580       137
53.600       143
53.620       207
53.640       130
53.660       177
53.680       117
53.700       107
53.720       150
53.740       137
53.760       157
53.780       137
53.800       117
53.820       140
53.840       117
53.860       113
53.880       130
53.900       117
53.920       117
53.940       123
53.960       163
53.980       153
54.000       130
54.020       137
54.040       160
54.060       130
54.080       133
54.100       130
54.120       127
54.140       127
54.160       123
54.180       133
54.200       107
54.220       133
54.240       103
54.260       103
54.280        93
54.300       157
54.320       113
54.340        90
54.360       143
54.380       120
54.400       107
54.420        97
54.440       123
54.460       123
54.480       137
54.500        90
54.520       120
54.540       137
54.560       123
54.580       100
54.600       110
54.620       113
54.640       123
54.660       113
54.680       120
54.700       117
54.720       150
54.740       103
54.760       120
54.780       147
54.800       120
54.820       107
54.840       163
54.860       157
54.880       160
54.900       143
54.920       130
54.940       127
54.960       197
54.980       133
55.000       143
55.020       133
55.040       140
55.060       203
55.080       210
55.100       130
55.120       120
55.140       113
55.160       123
55.180       163
55.200       117
55.220        87
55.240       133
55.260       110
55.280       100
55.300       103
55.320       133
55.340       143
55.360       137
55.380       130
55.400       103
55.420       113
55.440        93
55.460       120
55.480       107
55.500       103
55.520       123
55.540        93
55.560        97
55.580       113
55.600       153
55.620        90
55.640       113
55.660       120
55.680       127
55.700        70
55.720        70
55.740        83
55.760       113
55.780       123
55.800        93
55.820       127
55.840       117
55.860        77
55.880       110
55.900       107
55.920        97
55.940        87
55.960       120
55.980        80
56.000       113
56.020        97
56.040       120
56.060       103
56.080       130
56.100       110
56.120       103
56.140       103
56.160       140
56.180       130
56.200       117
56.220       117
56.240       130
56.260       120
56.280       137
56.300       113
56.320        90
56.340       133
56.360       113
56.380       140
56.400       113
56.420       133
56.440        73
56.460       137
56.480       107
56.500       140
56.520       140
56.540       140
56.560       117
56.580        93
56.600       120
56.620       137
56.640       120
56.660       123
56.680        93
56.700       130
56.720       120
56.740       123
56.760       117
56.780       143
56.800       100
56.820       107
56.840        83
56.860       100
56.880       103
56.900       133
56.920       120
56.940       133
56.960        73
56.980       140
57.000        73
57.020       120
57.040       140
57.060        87
57.080       107
57.100       117
57.120       140
57.140       133
57.160       113
57.180       147
57.200       117
57.220       167
57.240       133
57.260       160
57.280       147
57.300       147
57.320       190
57.340       180
57.360       173
57.380       140
57.400       137
57.420       200
57.440       107
57.460        73
57.480       147
57.500       130
57.520       107
57.540       110
57.560        87
57.580       127
57.600       160
57.620        93
57.640       113
57.660        70
57.680       133
57.700       120
57.720       133
57.740        63
57.760        83
57.780        87
57.800        97
57.820        97
57.840        70
57.860       117
57.880        90
57.900        87
57.920       133
57.940        83
57.960        73
57.980       100
58.000        93
58.020       107
58.040        97
58.060        87
58.080       117
58.100        90
58.120        97
58.140       130
58.160        90
58.180        97
58.200        97
58.220       107
58.240        80
58.260        97
58.280        80
58.300        73
58.320       100
58.340        70
58.360       103
58.380        73
58.400        70
58.420       110
58.440        90
58.460       107
58.480       113
58.500        77
58.520        80
58.540        77
58.560        87
58.580       100
58.600        90
58.620       173
58.640        57
58.660        93
58.680        80
58.700        70
58.720        63
58.740        90
58.760        90
58.780       103
58.800        90
58.820        90
58.840        97
58.860        97
58.880       113
58.900        77
58.920       127
58.940        43
58.960        90
58.980        67
59.000        70
59.020       117
59.040        67
59.060       107
59.080        70
59.100        80
59.120       107
59.140       100
59.160       110
59.180        83
59.200        90
59.220        80
59.240       117
59.260        97
59.280        87
59.300        63
59.320       103
59.340        97
59.360        90
59.380        77
59.400        83
59.420       113
59.440       133
59.460       100
59.480        97
59.500        93
59.520        67
59.540        93
59.560       113
59.580        73
59.600       103
59.620        90
59.640       120
59.660        90
59.680        97
59.700       107
59.720        80
59.740       107
59.760       113
59.780        87
59.800        83
59.820        93
59.840       163
59.860       123
59.880       113
59.900        93
59.920       120
59.940        70
59.960       130
59.980        93
60.000        67
