20.000       270
20.020       240
20.040       290
20.060       227
20.080       267
20.100       253
20.120       270
20.140       253
20.160       217
20.180       213
20.200       297
20.220       280
20.240       217
20.260       250
20.280       257
20.300       307
20.320       247
20.340       247
20.360       257
20.380       297
20.400       250
20.420       283
20.440       277
20.460       223
20.480       213
20.500       293
20.520       267
20.540       253
20.560       230
20.580       257
20.600       240
20.620       230
20.640       310
20.660       270
20.680       257
20.700       273
20.720       283
20.740       273
20.760       267
20.780       280
20.800       260
20.820       233
20.840       283
20.860       233
20.880       217
20.900       247
20.920       260
20.940       223
20.960       260
20.980       267
21.000       197
21.020       300
21.040       253
21.060       203
21.080       253
21.100       217
21.120       310
21.140       250
21.160       243
21.180       273
21.200       260
21.220       253
21.240       217
21.260       317
21.280       280
21.300       307
21.320       283
21.340       280
21.360       240
21.380       340
21.400       273
21.420       327
21.440       307
21.460       177
21.480       260
21.500       273
21.520       260
21.540       253
21.560       227
21.580       220
21.600       253
21.620       257
21.640       183
21.660       203
21.680       263
21.700       230
21.720       270
21.740       203
21.760       233
21.780       230
21.800       200
21.820       230
21.840       207
21.860       203
21.880       230
21.900       257
21.920       210
21.940       217
21.960       227
21.980       207
22.000       190
22.020       250
22.040       203
22.060       227
22.080       277
22.100       230
22.120       207
22.140       200
22.160       217
22.180       210
22.200       177
22.220       180
22.240       210
22.260       213
22.280       280
22.300       240
22.320       240
22.340       237
22.360       250
22.380       253
22.400       283
22.420       250
22.440       253
22.460       223
22.480       230
22.500       223
22.520       327
22.540       243
22.560       243
22.580       220
22.600       230
22.620       273
22.640       223
22.660       223
22.680       230
22.700       217
22.720       183
22.740       167
22.760       210
22.780       213
22.800       167
22.820       227
22.840       177
22.860       220
22.880       233
22.900       210
22.920       187
22.940       287
22.960       257
22.980       213
23.000       187
23.020       240
23.040       210
23.060       247
23.080       243
23.100       197
23.120       217
23.140       197
23.160       220
23.180       230
23.200       240
23.220       207
23.240       237
23.260       213
23.280       227
23.300       197
23.320       217
23.340       207
23.360       167
23.380       230
23.400       217
23.420       217
23.440       207
23.460       167
23.480       163
23.500       230
23.520       187
23.540       190
23.560       210
23.580       190
23.600       217
23.620       240
23.640       240
23.660       180
23.680       227
23.700       223
23.720       183
23.740       243
23.760       203
23.780       197
23.800       190
23.820       180
23.840       193
23.860       157
23.880       227
23.900       143
23.920       200
23.940       180
23.960       160
23.980       190
24.000       177
24.020       163
24.040       217
24.060       197
24.080       170
24.100       157
24.120       177
24.140       170
24.160       197
24.180       187
24.200       193
24.220       160
24.240       197
24.260       187
24.280       157
24.300       207
24.320       223
24.340       177
24.360       177
24.380       187
24.400       187
24.420       203
24.440       180
24.460       187
24.480       173
24.500       190
24.520       233
24.540       187
24.560       190
24.580       193
24.600       237
24.620       203
24.640       193
24.660       243
24.680       247
24.700       300
24.720       237
24.740       353
24.760       273
24.780       270
24.800       340
24.820       343
24.840       273
24.860       323
24.880       337
24.900       417
24.920       233
24.940       233
24.960       263
24.980       287
25.000       213
25.020       193
25.040       217
25.060       240
25.080       180
25.100       210
25.120       217
25.140       183
25.160       163
25.180       143
25.200       180
25.220       143
25.240       143
25.260       187
25.280       157
25.300       137
25.320       173
25.340       157
25.360       153
25.380       140
25.400       153
25.420       170
25.440       163
25.460       163
25.480       137
25.500       153
25.520       137
25.540       170
25.560       167
25.580       180
25.600       180
25.620       167
25.640       183
25.660       173
25.680       173
25.700       167
25.720       173
25.740       150
25.760       193
25.780       153
25.800       120
25.820       180
25.840       163
25.860       177
25.880       170
25.900       183
25.920       170
25.940       167
25.960       110
25.980       133
26.000       133
26.020       197
26.040       140
26.060       157
26.080       170
26.100       147
26.120       140
26.140       170
26.160       150
26.180       163
26.200       133
26.220       140
26.240       143
26.260       183
26.280       183
26.300       153
26.320       143
26.340       147
26.360        97
26.380       127
26.400       130
26.420       167
26.440       180
26.460       147
26.480       170
26.500       193
26.520       167
26.540       173
26.560       193
26.580       180
26.600       157
26.620       150
26.640       140
26.660       117
26.680       140
26.700       133
26.720       183
26.740       147
26.760       130
26.780       123
26.800       170
26.820       143
26.840       123
26.860       117
26.880       140
26.900       197
26.920        97
26.940       140
26.960       157
26.980       150
27.000       113
27.020        93
27.040       130
27.060       130
27.080       130
27.100       137
27.120       120
27.140       133
27.160       127
27.180        90
27.200       130
27.220       150
27.240       143
27.260       137
27.280       137
27.300       110
27.320       127
27.340       177
27.360        93
27.380       173
27.400       153
27.420       173
27.440       117
27.460       120
27.480        97
27.500       140
27.520       117
27.540       173
27.560       130
27.580       123
27.600        87
27.620       153
27.640       153
27.660       113
27.680        83
27.700        93
27.720       100
27.740       153
27.760       150
27.780       147
27.800       130
27.820       120
27.840        77
27.860       127
27.880       107
27.900       117
27.920       110
27.940       167
27.960       107
27.980       150
28.000       143
28.020       110
28.040        97
28.060       113
28.080        93
28.100       160
28.120       167
28.140       140
28.160        93
28.180        90
28.200       120
28.220       110
28.240       130
28.260       127
28.280       133
28.300       120
28.320       137
28.340       153
28.360       123
28.380       107
28.400       147
28.420       110
28.440       113
28.460       123
28.480       137
28.500       103
28.520       133
28.540        93
28.560       103
28.580        93
28.600       117
28.620       103
28.640       120
28.660       147
28.680       120
28.700       123
28.720       107
28.740       100
28.760       113
28.780        97
28.800       120
28.820       127
28.840       167
28.860       120
28.880       113
28.900       133
28.920       143
28.940       130
28.960       117
28.980       150
29.000       147
29.020       133
29.040       147
29.060       107
29.080       130
29.100       150
29.120       213
29.140       177
29.160       213
29.180       237
29.200       290
29.220       313
29.240       313
29.260       430
29.280       390
29.300       470
29.320       400
29.340       450
29.360       520
29.380       516
29.400       470
29.420       436
29.440       383
29.460       323
29.480       257
29.500       243
29.520       190
29.540       150
29.560       117
29.580       143
29.600       127
29.620       160
29.640       120
29.660       130
29.680       103
29.700       130
29.720        83
29.740       100
29.760       103
29.780        80
29.800        93
29.820       130
29.840       113
29.860       113
29.880       110
29.900        97
29.920       107
29.940       140
29.960       103
29.980       130
30.000       123
30.020       107
30.040       113
30.060       147
30.080        97
30.100       113
30.120       100
30.140       100
30.160        87
30.180       107
30.200        97
30.220        87
30.240       100
30.260        97
30.280        80
30.300        83
30.320        70
30.340       130
30.360       133
30.380       113
30.400       113
30.420       127
30.440       147
30.460        87
30.480       107
30.500       117
30.520       150
30.540       123
30.560        93
30.580        63
30.600        53
30.620        63
30.640        70
30.660       110
30.680        93
30.700        77
30.720        57
30.740        93
30.760        87
30.780       107
30.800       123
30.820       107
30.840       120
30.860       100
30.880       107
30.900       107
30.920        97
30.940       120
30.960        87
30.980        87
31.000       103
31.020       127
31.040        77
31.060        80
31.080        80
31.100        87
31.120        93
31.140       120
31.160       163
31.180        80
31.200        90
31.220       100
31.240        83
31.260       110
31.280        87
31.300        77
31.320       113
31.340       100
31.360       100
31.380       100
31.400        90
31.420        77
31.440       153
31.460        77
31.480        93
31.500       107
31.520        70
31.540        80
31.560        87
31.580        67
31.600       120
31.620       107
31.640       110
31.660       110
31.680        77
31.700        90
31.720       123
31.740        93
31.760        83
31.780        97
31.800       113
31.820       137
31.840        93
31.860       113
31.880       113
31.900       163
31.920       123
31.940       120
31.960       133
31.980       153
32.000       130
32.020       187
32.040       200
32.060       197
32.080       263
32.100       247
32.120       183
32.140       230
32.160       140
32.180       137
32.200       117
32.220       153
32.240       117
32.260        93
32.280        80
32.300       120
32.320       110
32.340        97
32.360       113
32.380       103
32.400       117
32.420        80
32.440        83
32.460        93
32.480       150
32.500       120
32.520        97
32.540        77
32.560        97
32.580       100
32.600        90
32.620       157
32.640       103
32.660       133
32.680        93
32.700        90
32.720       130
32.740        97
32.760        93
32.780        90
32.800        77
32.820        90
32.840        83
32.860        70
32.880        73
32.900        87
32.920        93
32.940        83
32.960        83
32.980       107
33.000        63
33.020        97
33.040        77
33.060        73
33.080        77
33.100        70
33.120        97
33.140        63
33.160        83
33.180        90
33.200        77
33.220        60
33.240        90
33.260        87
33.280       120
33.300        77
33.320        90
33.340        73
33.360        87
33.380        87
33.400        87
33.420       137
33.440       127
33.460        73
33.480       113
33.500        97
33.520       130
33.540        87
33.560        83
33.580        83
33.600        87
33.620       103
33.640        93
33.660        87
33.680        73
33.700        60
33.720        93
33.740        93
33.760       120
33.780        47
33.800        90
33.820        73
33.840        90
33.860        77
33.880        77
33.900        80
33.920        97
33.940        93
33.960       100
33.980       100
34.000       107
34.020        90
34.040        50
34.060        97
34.080        70
34.100       117
34.120        93
34.140        73
34.160        87
34.180        90
34.200       130
34.220        87
34.240        90
34.260       110
34.280        73
34.300        53
34.320        63
34.340       103
34.360        67
34.380       120
34.400       103
34.420       133
34.440       153
34.460        93
34.480       120
34.500       150
34.520       147
34.540       113
34.560       110
34.580       140
34.600        83
34.620       147
34.640       143
34.660        93
34.680       130
34.700       107
34.720       157
34.740       150
34.760       143
34.780       123
34.800       137
34.820       103
34.840       130
34.860       153
34.880       140
34.900       110
34.920        90
34.940       120
34.960       117
34.980       203
35.000       150
35.020       163
35.040       107
35.060       143
35.080       167
35.100       150
35.120       160
35.140       180
35.160       163
35.180       167
35.200       147
35.220       140
35.240       193
35.260       213
35.280       203
35.300       223
35.320       207
35.340       297
35.360       350
35.380       460
35.400       516
35.420       650
35.440       683
35.460       923
35.480       996
35.500      1143
35.520      1203
35.540      1439
35.560      2426
35.580      5991
35.600     11759
35.620     15720
35.640     15391
35.660     12245
35.680      9196
35.700      8420
35.720      8823
35.740      7837
35.760      4995
35.780      2259
35.800       953
35.820       666
35.840       610
35.860       503
35.880       367
35.900       350
35.920       353
35.940       310
35.960       283
35.980       257
36.000       240
36.020       190
36.040       187
36.060       193
36.080       163
36.100       160
36.120       163
36.140       157
36.160       160
36.180       143
36.200       123
36.220       140
36.240       143
36.260       127
36.280       153
36.300       127
36.320       153
36.340       127
36.360       107
36.380       150
36.400       137
36.420        93
36.440       143
36.460       100
36.480       127
36.500       133
36.520       107
36.540       147
36.560       110
36.580        93
36.600        90
36.620       143
36.640       127
36.660       107
36.680        93
36.700       117
36.720       103
36.740        97
36.760       147
36.780       100
36.800       113
36.820       127
36.840        90
36.860       110
36.880       143
36.900       120
36.920        80
36.940       110
36.960        93
36.980       110
37.000        80
37.020        97
37.040       113
37.060       130
37.080       120
37.100        80
37.120        67
37.140       107
37.160       127
37.180        90
37.200       127
37.220       140
37.240       107
37.260       107
37.280        70
37.300       153
37.320       107
37.340       137
37.360       113
37.380       107
37.400       113
37.420       127
37.440       143
37.460       137
37.480        97
37.500       127
37.520       127
37.540        87
37.560       137
37.580       137
37.600       137
37.620       137
37.640       140
37.660       150
37.680       113
37.700       107
37.720        97
37.740       127
37.760       123
37.780       120
37.800        77
37.820       113
37.840        90
37.860       127
37.880       130
37.900        90
37.920        80
37.940       147
37.960        93
37.980        93
38.000       117
38.020        87
38.040       100
38.060        83
38.080       107
38.100       123
38.120       130
38.140       107
38.160       100
38.180       143
38.200       110
38.220       100
38.240       153
38.260       113
38.280       130
38.300       117
38.320       140
38.340       107
38.360       147
38.380       127
38.400       137
38.420       140
38.440       110
38.460        77
38.480       133
38.500       123
38.520       147
38.540       160
38.560       167
38.580        80
38.600       130
38.620       110
38.640       130
38.660        90
38.680       113
38.700        80
38.720       123
38.740        97
38.760       110
38.780        87
38.800        90
38.820        90
38.840        87
38.860       147
38.880        73
38.900        90
38.920        77
38.940       113
38.960       107
38.980        97
39.000       120
39.020       133
39.040       133
39.060       120
39.080       163
39.100       103
39.120       150
39.140       117
39.160       143
39.180       140
39.200       163
39.220       173
39.240       190
39.260       240
39.280       193
39.300       160
39.320       217
39.340       207
39.360       210
39.380       197
39.400       163
39.420       213
39.440       197
39.460       173
39.480       147
39.500       157
39.520       127
39.540       117
39.560       150
39.580        87
39.600       117
39.620        87
39.640        90
39.660        90
39.680       100
39.700       113
39.720        97
39.740        90
39.760        83
39.780        70
39.800        80
39.820        80
39.840        83
39.860        93
39.880        60
39.900        70
39.920       107
39.940        97
39.960        97
39.980       113
40.000        93
40.020        83
40.040       100
40.060       107
40.080        83
40.100       120
40.120        80
40.140        87
40.160        80
40.180       113
40.200        97
40.220        87
40.240        93
40.260       103
40.280       120
40.300       127
40.320        77
40.340       110
40.360       113
40.380        83
40.400        83
40.420        87
40.440       110
40.460        83
40.480       100
40.500       113
40.520        80
40.540        93
40.560       103
40.580        73
40.600       107
40.620       107
40.640        70
40.660        90
40.680        90
40.700        63
40.720        87
40.740        77
40.760        57
40.780       107
40.800        57
40.820        67
40.840       127
40.860       107
40.880       133
40.900        87
40.920        67
40.940       100
40.960       120
40.980       173
41.000       163
41.020       190
41.040       183
41.060       173
41.080       173
41.100       150
41.120       170
41.140       177
41.160       173
41.180       120
41.200       140
41.220       150
41.240       187
41.260       130
41.280       183
41.300       200
41.320       240
41.340       300
41.360       253
41.380       257
41.400       267
41.420       303
41.440       373
41.460       303
41.480       420
41.500       556
41.520       513
41.540       696
41.560       770
41.580       893
41.600       886
41.620       926
41.640       726
41.660       713
41.680       746
41.700       590
41.720       566
41.740       496
41.760       413
41.780       247
41.800       183
41.820       180
41.840       143
41.860       153
41.880       123
41.900       117
41.920       100
41.940       107
41.960        93
41.980        77
42.000        73
42.020       110
42.040       110
42.060        90
42.080       107
42.100       133
42.120       107
42.140        97
42.160       107
42.180        73
42.200        60
42.220        93
42.240       103
42.260       100
42.280        77
42.300        93
42.320        97
42.340       103
42.360       100
42.380        80
42.400        90
42.420        77
42.440        63
42.460        73
42.480        83
42.500       123
42.520        63
42.540       107
42.560        90
42.580        63
42.600       100
42.620       100
42.640        93
42.660        80
42.680        90
42.700        97
42.720        70
42.740       110
42.760       107
42.780       137
42.800        83
42.820       120
42.840       100
42.860        93
42.880       113
42.900       100
42.920       143
42.940       113
42.960       163
42.980       133
43.000       127
43.020       163
43.040       160
43.060       200
43.080       163
43.100       217
43.120       167
43.140       177
43.160       180
43.180       140
43.200       170
43.220       153
43.240       100
43.260       107
43.280       120
43.300       137
43.320       120
43.340       110
43.360        83
43.380        97
43.400       117
43.420        73
43.440       103
43.460        97
43.480        93
43.500       100
43.520        93
43.540       110
43.560       133
43.580        73
43.600        70
43.620        77
43.640        97
43.660        57
43.680        93
43.700        93
43.720        73
43.740        63
43.760        93
43.780        47
43.800       110
43.820        93
43.840       100
43.860        87
43.880        70
43.900        47
43.920        87
43.940        83
43.960       110
43.980        57
44.000        93
44.020        67
44.040       107
44.060        63
44.080        73
44.100        83
44.120        97
44.140       103
44.160        90
44.180        87
44.200        97
44.220        97
44.240        67
44.260        67
44.280        73
44.300        67
44.320        77
44.340        67
44.360       107
44.380        80
44.400       107
44.420       100
44.440        97
44.460       113
44.480        77
44.500        97
44.520        83
44.540        97
44.560       110
44.580       107
44.600        57
44.620        90
44.640        83
44.660        83
44.680       107
44.700        70
44.720        77
44.740        73
44.760        90
44.780        80
44.800        67
44.820       100
44.840       100
44.860       103
44.880       103
44.900        83
44.920        57
44.940        93
44.960       110
44.980       127
45.000       103
45.020       100
45.040       100
45.060        87
45.080        87
45.100       120
45.120        83
45.140       130
45.160       100
45.180        83
45.200        87
45.220        87
45.240       117
45.260       103
45.280        63
45.300       100
45.320       137
45.340       140
45.360       120
45.380       107
45.400        97
45.420        70
45.440        93
45.460       127
45.480       117
45.500       113
45.520       107
45.540       120
45.560       123
45.580       113
45.600       143
45.620       107
45.640       107
45.660       130
45.680       100
45.700       157
45.720       143
45.740       177
45.760       193
45.780       177
45.800       217
45.820       210
45.840       223
45.860       183
45.880       250
45.900       273
45.920       213
45.940       273
45.960       197
45.980       270
46.000       187
46.020       217
46.040       173
46.060       217
46.080       223
46.100       243
46.120       193
46.140       217
46.160       187
46.180       110
46.200       160
46.220       153
46.240       167
46.260       183
46.280       140
46.300        97
46.320       110
46.340       100
46.360        87
46.380        83
46.400       123
46.420        87
46.440       117
46.460       113
46.480       143
46.500       137
46.520        67
46.540        90
46.560        90
46.580        80
46.600        77
46.620       110
46.640        93
46.660       120
46.680       107
46.700       103
46.720       113
46.740       110
46.760       130
46.780       130
46.800       120
46.820       127
46.840        70
46.860       133
46.880        90
46.900       147
46.920       137
46.940       137
46.960       140
46.980       153
47.000       127
47.020       117
47.040       143
47.060       173
47.080       143
47.100       137
47.120       177
47.140       133
47.160       123
47.180       203
47.200       170
47.220       187
47.240       127
47.260       170
47.280       173
47.300       133
47.320       197
47.340       210
47.360       183
47.380       210
47.400       237
47.420       270
47.440       263
47.460       217
47.480       237
47.500       233
47.520       207
47.540       217
47.560       163
47.580       147
47.600       190
47.620       197
47.640       137
47.660       110
47.680       123
47.700        90
47.720       103
47.740       117
47.760       113
47.780       107
47.800       107
47.820        77
47.840        60
47.860       100
47.880       113
47.900       107
47.920        80
47.940       113
47.960        83
47.980        97
48.000        93
48.020       127
48.040       110
48.060       133
48.080       103
48.100       103
48.120       103
48.140       137
48.160       133
48.180       110
48.200       127
48.220       113
48.240       167
48.260       140
48.280       147
48.300       127
48.320       137
48.340       183
48.360       230
48.380       240
48.400       220
48.420       243
48.440       243
48.460       200
48.480       213
48.500       240
48.520       223
48.540       207
48.560       203
48.580       223
48.600       160
48.620       160
48.640       143
48.660       113
48.680       110
48.700       120
48.720       113
48.740       100
48.760        93
48.780       100
48.800        70
48.820        93
48.840        87
48.860        80
48.880        93
48.900        97
48.920        90
48.940       100
48.960        63
48.980        80
49.000        83
49.020       103
49.040        97
49.060        60
49.080       103
49.100       103
49.120        90
49.140        90
49.160        73
49.180        70
49.200        80
49.220        87
49.240        70
49.260        90
49.280        80
49.300        83
49.320        90
49.340        73
49.360        97
49.380        93
49.400       100
49.420        60
49.440        77
49.460        93
49.480        70
49.500       103
49.520        57
49.540        97
49.560        77
49.580        73
49.600       103
49.620        87
49.640        83
49.660        87
49.680        90
49.700        73
49.720        90
49.740        60
49.760        87
49.780        83
49.800        63
49.820       100
49.840        80
49.860        70
49.880        83
49.900        87
49.920        93
49.940        97
49.960       100
49.980       110
50.000        93
50.020        90
50.040       103
50.060        80
50.080        70
50.100        73
50.120        70
50.140       123
50.160        70
50.180        67
50.200        70
50.220        83
50.240        53
50.260        30
50.280        70
50.300        70
50.320        73
50.340        53
50.360        83
50.380        77
50.400        70
50.420        83
50.440       107
50.460        63
50.480       113
50.500        80
50.520        67
50.540        83
50.560        67
50.580        97
50.600        57
50.620        77
50.640        77
50.660        70
50.680        97
50.700        63
50.720        93
50.740        77
50.760        80
50.780        73
50.800        73
50.820       107
50.840        83
50.860        90
50.880       113
50.900       107
50.920        97
50.940        93
50.960       100
50.980       100
51.000        90
51.020       107
51.040       110
51.060        97
51.080       120
51.100        93
51.120        90
51.140        83
51.160        63
51.180       110
51.200       117
51.220        90
51.240        83
51.260        90
51.280        83
51.300        90
51.320        93
51.340        67
51.360        90
51.380        67
51.400        73
51.420        57
51.440        97
51.460        63
51.480        80
51.500       103
51.520        53
51.540        70
51.560        67
51.580        97
51.600        90
51.620        57
51.640        87
51.660        97
51.680        60
51.700        77
51.720       103
51.740        87
51.760        90
51.780        80
51.800        87
51.820        70
51.840        87
51.860        97
51.880        80
51.900        97
51.920       103
51.940        53
51.960        80
51.980       110
52.000        73
52.020        70
52.040        77
52.060        70
52.080        80
52.100        93
52.120        90
52.140        70
52.160       100
52.180       100
52.200        70
52.220        63
52.240        93
52.260        70
52.280        77
52.300        90
52.320        93
52.340        80
52.360        70
52.380        90
52.400       107
52.420        67
52.440       103
52.460        80
52.480        83
52.500        97
52.520        77
52.540       100
52.560        83
52.580       107
52.600        80
52.620        57
52.640        67
52.660        63
52.680        70
52.700        87
52.720        87
52.740        80
52.760        90
52.780        67
52.800        70
52.820        67
52.840        60
52.860       100
52.880        80
52.900        93
52.920        60
52.940        97
52.960        60
52.980        83
53.000        97
53.020       113
53.040        80
53.060        87
53.080        63
53.100       117
53.120        83
53.140        93
53.160       113
53.180        60
53.200        73
53.220        60
53.240        83
53.260        93
53.280        73
53.300        83
53.320        67
53.340        93
53.360        80
53.380        67
53.400        77
53.420        87
53.440        97
53.460        87
53.480        73
53.500        67
53.520       107
53.540        90
53.560        87
53.580        53
53.600        73
53.620        77
53.640        60
53.660        87
53.680        87
53.700        53
53.720       100
53.740        80
53.760        83
53.780        93
53.800        87
53.820        63
53.840        80
53.860        77
53.880        90
53.900        97
53.920        93
53.940       107
53.960        80
53.980        73
54.000        73
54.020        67
54.040       130
54.060        50
54.080        80
54.100        83
54.120        80
54.140        93
54.160        97
54.180        67
54.200        53
54.220        63
54.240        80
54.260        83
54.280       103
54.300       113
54.320        70
54.340       107
54.360        80
54.380       123
54.400        90
54.420       103
54.440        87
54.460       103
54.480        97
54.500       100
54.520        70
54.540        50
54.560        77
54.580        97
54.600       120
54.620       130
54.640       150
54.660       107
54.680       110
54.700       123
54.720        83
54.740       110
54.760       113
54.780       130
54.800       107
54.820       107
54.840       130
54.860       107
54.880       110
54.900       133
54.920       103
54.940       140
54.960        80
54.980       110
55.000       163
55.020       177
55.040       107
55.060       103
55.080       117
55.100       133
55.120       117
55.140       117
55.160       113
55.180        97
55.200        97
55.220        97
55.240       140
55.260       103
55.280        90
55.300       103
55.320       110
55.340       120
55.360        93
55.380        87
55.400       133
55.420       113
55.440        83
55.460        87
55.480        90
55.500        90
55.520       113
55.540        80
55.560        90
55.580        80
55.600        67
55.620        87
55.640       130
55.660        87
55.680        77
55.700        90
55.720        93
55.740        90
55.760       120
55.780        93
55.800       113
55.820        70
55.840       137
55.860       100
55.880        97
55.900        77
55.920        67
55.940       110
55.960        50
55.980       107
56.000        83
56.020       113
56.040        77
56.060       113
56.080        87
56.100        80
56.120        70
56.140        93
56.160        73
56.180       100
56.200        87
56.220       110
56.240       140
56.260       100
56.280       100
56.300        97
56.320       130
56.340        70
56.360       107
56.380       133
56.400       120
56.420       137
56.440       147
56.460       133
56.480       153
56.500       157
56.520        93
56.540       143
56.560       153
56.580       117
56.600       113
56.620       140
56.640       103
56.660       113
56.680       117
56.700       110
56.720        93
56.740       103
56.760       110
56.780       103
56.800       103
56.820       107
56.840       137
56.860       140
56.880       123
56.900       110
56.920       123
56.940       107
56.960       170
56.980        80
57.000       160
57.020       133
57.040       110
57.060       100
57.080       120
57.100        60
57.120       103
57.140       110
57.160       123
57.180       133
57.200       127
57.220       133
57.240       157
57.260       137
57.280       143
57.300       150
57.320       167
57.340       193
57.360       197
57.380       137
57.400       183
57.420       150
57.440       140
57.460       133
57.480       153
57.500       157
57.520       120
57.540       133
57.560       107
57.580       113
57.600        97
57.620       123
57.640       117
57.660        83
57.680       100
57.700       107
57.720       140
57.740       123
57.760       127
57.780        67
57.800       113
57.820       117
57.840       117
57.860        93
57.880        70
57.900       120
57.920       113
57.940       117
57.960       120
57.980        97
58.000        80
58.020       110
58.040        83
58.060       103
58.080        90
58.100        93
58.120       130
58.140       100
58.160        97
58.180       123
58.200       107
58.220       120
58.240       123
58.260        87
58.280       123
58.300       107
58.320       107
58.340       107
58.360       127
58.380       123
58.400       127
58.420        83
58.440        87
58.460        93
58.480        80
58.500       100
58.520       137
58.540        97
58.560       103
58.580        73
58.600        97
58.620        70
58.640       100
58.660        87
58.680       110
58.700       100
58.720       103
58.740        93
58.760       103
58.780        70
58.800        97
58.820        83
58.840       120
58.860       117
58.880        93
58.900        83
58.920        80
58.940       110
58.960        93
58.980       110
59.000        70
59.020       110
59.040       127
59.060        90
59.080       100
59.100       107
59.120       110
59.140       120
59.160       103
59.180       123
59.200        87
59.220        80
59.240       113
59.260       117
59.280       100
59.300        83
59.320       110
59.340        63
59.360       143
59.380        73
59.400       100
59.420       107
59.440        83
59.460        93
59.480        87
59.500       127
59.520        97
59.540       127
59.560        97
59.580       117
59.600       107
59.620       103
59.640       100
59.660        80
59.680       117
59.700       123
59.720       113
59.740       127
59.760        27
59.780         0
59.800         0
59.820         0
59.840         0
59.860         0
59.880         3
59.900         0
59.920         0
59.940         0
59.960         0
59.980         0
60.000         0
