20.000         0
20.020         0
20.040         0
20.060         0
20.080         0
20.100         0
20.120         0
20.140         0
20.160         0
20.180         0
20.200         0
20.220        70
20.240       243
20.260       267
20.280       210
20.300       190
20.320       287
20.340       247
20.360       243
20.380       200
20.400       200
20.420       220
20.440       193
20.460       210
20.480       223
20.500       207
20.520       200
20.540       250
20.560       233
20.580       240
20.600       193
20.620       247
20.640       273
20.660       247
20.680       223
20.700       247
20.720       167
20.740       207
20.760       253
20.780       243
20.800       217
20.820       220
20.840       263
20.860       230
20.880       250
20.900       203
20.920       207
20.940       217
20.960       243
20.980       213
21.000       200
21.020       230
21.040       143
21.060       220
21.080       263
21.100       223
21.120       227
21.140       193
21.160       267
21.180       220
21.200       287
21.220       227
21.240       267
21.260       233
21.280       247
21.300       270
21.320       270
21.340       243
21.360       227
21.380       247
21.400       240
21.420       177
21.440       213
21.460       240
21.480       247
21.500       203
21.520       200
21.540       177
21.560       230
21.580       203
21.600       190
21.620       173
21.640       257
21.660       220
21.680       200
21.700       197
21.720       180
21.740       153
21.760       190
21.780       223
21.800       147
21.820       173
21.840       197
21.860       167
21.880       187
21.900       193
21.920       200
21.940       183
21.960       177
21.980       203
22.000       163
22.020       197
22.040       177
22.060       210
22.080       207
22.100       213
22.120       210
22.140       227
22.160       210
22.180       197
22.200       187
22.220       180
22.240       167
22.260       183
22.280       220
22.300       217
22.320       177
22.340       180
22.360       187
22.380       230
22.400       163
22.420       203
22.440       170
22.460       210
22.480       197
22.500       190
22.520       167
22.540       237
22.560       233
22.580       233
22.600       267
22.620       177
22.640       197
22.660       253
22.680       153
22.700       187
22.720       173
22.740       213
22.760       220
22.780       227
22.800       213
22.820       227
22.840       180
22.860       200
22.880       177
22.900       197
22.920       153
22.940       183
22.960       250
22.980       223
23.000       207
23.020       170
23.040       177
23.060       187
23.080       190
23.100       213
23.120       203
23.140       187
23.160       180
23.180       177
23.200       160
23.220       163
23.240       167
23.260       213
23.280       200
23.300       173
23.320       203
23.340       167
23.360       167
23.380       183
23.400       197
23.420       190
23.440       183
23.460       193
23.480       187
23.500       203
23.520       227
23.540       220
23.560       190
23.580       137
23.600       193
23.620       190
23.640       193
23.660       250
23.680       197
23.700       140
23.720       177
23.740       237
23.760       193
23.780       180
23.800       183
23.820       163
23.840       180
23.860       180
23.880       143
23.900       167
23.920       183
23.940       180
23.960       190
23.980       180
24.000       153
24.020       193
24.040       163
24.060       170
24.080       173
24.100       160
24.120       153
24.140       160
24.160       167
24.180       177
24.200       180
24.220       170
24.240       160
24.260       223
24.280       160
24.300       133
24.320       163
24.340       143
24.360       157
24.380       183
24.400       183
24.420       220
24.440       210
24.460       153
24.480       130
24.500       183
24.520       167
24.540       133
24.560       207
24.580       140
24.600       207
24.620       153
24.640       147
24.660       190
24.680       217
24.700       230
24.720       207
24.740       253
24.760       263
24.780       297
24.800       257
24.820       220
24.840       203
24.860       247
24.880       213
24.900       127
24.920       207
24.940       143
24.960       150
24.980       190
25.000       143
25.020       173
25.040       180
25.060       183
25.080       157
25.100       167
25.120       133
25.140       147
25.160       183
25.180       143
25.200       167
25.220       143
25.240       193
25.260       173
25.280       150
25.300       147
25.320       153
25.340       140
25.360       160
25.380       127
25.400       180
25.420       190
25.440       183
25.460       137
25.480       177
25.500       160
25.520       150
25.540       170
25.560       147
25.580       190
25.600       160
25.620       160
25.640       180
25.660       137
25.680       163
25.700       150
25.720        90
25.740       157
25.760       137
25.780       153
25.800       157
25.820       123
25.840       120
25.860       143
25.880       170
25.900       107
25.920       173
25.940       113
25.960       110
25.980       133
26.000       140
26.020       163
26.040       177
26.060       170
26.080       120
26.100       147
26.120       160
26.140       110
26.160       133
26.180       150
26.200       177
26.220       133
26.240       173
26.260       147
26.280       150
26.300       117
26.320       147
26.340       160
26.360       140
26.380       170
26.400       153
26.420       110
26.440       117
26.460       113
26.480       150
26.500       123
26.520       153
26.540       160
26.560       163
26.580       127
26.600       167
26.620       127
26.640       140
26.660       153
26.680       150
26.700       130
26.720       123
26.740       113
26.760       107
26.780       147
26.800       143
26.820       110
26.840       147
26.860       103
26.880       150
26.900       103
26.920        97
26.940       120
26.960       140
26.980       123
27.000       137
27.020       103
27.040       103
27.060       110
27.080       143
27.100       143
27.120       117
27.140       113
27.160       170
27.180       120
27.200       140
27.220       163
27.240       120
27.260       117
27.280       117
27.300       140
27.320        90
27.340       143
27.360       137
27.380       130
27.400       113
27.420       133
27.440       120
27.460       110
27.480       137
27.500       133
27.520       130
27.540        93
27.560        93
27.580        83
27.600       123
27.620       133
27.640       143
27.660       117
27.680       117
27.700       110
27.720       120
27.740       133
27.760       117
27.780        93
27.800       137
27.820       103
27.840       107
27.860       137
27.880       120
27.900        90
27.920       133
27.940       117
27.960       113
27.980        97
28.000       150
28.020       100
28.040       107
28.060        90
28.080       107
28.100       110
28.120       100
28.140       140
28.160        97
28.180       120
28.200       100
28.220       100
28.240       107
28.260       103
28.280       137
28.300       127
28.320        90
28.340       103
28.360       120
28.380       113
28.400       100
28.420        97
28.440        67
28.460       100
28.480       107
28.500        97
28.520        90
28.540       113
28.560       137
28.580       163
28.600       113
28.620       137
28.640       100
28.660       103
28.680       103
28.700       107
28.720        93
28.740       110
28.760        73
28.780       140
28.800       133
28.820        93
28.840       117
28.860       120
28.880       107
28.900       147
28.920       130
28.940       140
28.960       137
28.980       127
29.000       117
29.020       130
29.040       170
29.060       147
29.080       140
29.100       163
29.120       133
29.140       157
29.160       250
29.180       207
29.200       267
29.220       263
29.240       313
29.260       377
29.280       397
29.300       373
29.320       400
29.340       393
29.360       400
29.380       267
29.400       307
29.420       227
29.440       157
29.460       167
29.480       110
29.500       173
29.520       113
29.540       140
29.560        63
29.580       127
29.600       103
29.620        80
29.640       103
29.660       100
29.680        90
29.700        97
29.720        93
29.740       110
29.760        93
29.780       100
29.800        90
29.820        90
29.840       110
29.860       100
29.880       117
29.900       100
29.920       133
29.940        77
29.960       123
29.980        97
30.000       117
30.020       103
30.040        83
30.060       100
30.080       107
30.100       110
30.120        73
30.140       110
30.160        97
30.180       103
30.200        80
30.220        90
30.240       120
30.260       103
30.280        97
30.300        90
30.320        77
30.340       107
30.360        90
30.380       100
30.400        90
30.420        97
30.440        90
30.460       100
30.480       107
30.500        97
30.520        77
30.540       103
30.560       103
30.580        90
30.600        80
30.620        93
30.640        90
30.660        93
30.680       107
30.700        67
30.720       103
30.740        90
30.760       103
30.780       100
30.800        87
30.820        87
30.840       120
30.860       103
30.880        90
30.900        93
30.920       120
30.940        70
30.960       123
30.980        90
31.000       110
31.020        97
31.040       103
31.060       110
31.080       107
31.100        80
31.120        77
31.140        77
31.160       113
31.180       117
31.200        80
31.220       110
31.240       117
31.260       110
31.280        80
31.300       107
31.320        80
31.340        97
31.360       113
31.380       120
31.400       103
31.420        87
31.440       107
31.460       103
31.480        83
31.500        87
31.520       120
31.540       113
31.560       103
31.580        80
31.600       117
31.620        87
31.640       123
31.660        90
31.680        97
31.700       140
31.720       127
31.740        97
31.760       100
31.780       113
31.800       117
31.820       120
31.840        87
31.860       100
31.880       140
31.900       137
31.920       107
31.940        90
31.960       113
31.980       127
32.000       163
32.020       137
32.040       157
32.060       167
32.080       153
32.100       110
32.120       117
32.140       137
32.160       147
32.180       120
32.200       137
32.220       157
32.240       100
32.260       123
32.280        80
32.300        93
32.320       130
32.340       120
32.360        87
32.380        80
32.400        90
32.420       117
32.440       110
32.460        87
32.480       123
32.500        90
32.520        83
32.540        97
32.560       100
32.580       107
32.600       100
32.620       100
32.640        73
32.660        73
32.680       130
32.700       110
32.720        87
32.740        90
32.760        97
32.780        63
32.800        67
32.820        83
32.840       103
32.860        93
32.880        67
32.900       120
32.920        87
32.940       100
32.960        97
32.980       103
33.000        97
33.020        70
33.040        87
33.060        97
33.080        93
33.100        73
33.120        63
33.140        87
33.160        87
33.180        93
33.200        80
33.220        73
33.240        80
33.260        83
33.280        50
33.300        53
33.320        73
33.340       100
33.360        57
33.380        77
33.400        67
33.420        83
33.440        87
33.460        80
33.480        80
33.500        73
33.520        60
33.540       103
33.560        50
33.580        83
33.600        87
33.620        63
33.640        67
33.660        63
33.680        67
33.700        60
33.720        80
33.740        73
33.760        77
33.780        57
33.800        87
33.820       100
33.840        60
33.860        87
33.880        77
33.900        83
33.920        77
33.940        97
33.960        87
33.980        50
34.000        53
34.020        93
34.040        67
34.060       110
34.080        83
34.100        50
34.120        47
34.140        73
34.160        90
34.180        50
34.200        80
34.220        83
34.240        70
34.260        87
34.280       127
34.300        67
34.320        43
34.340        83
34.360        77
34.380        77
34.400        87
34.420        87
34.440        87
34.460        53
34.480        90
34.500        80
34.520       100
34.540        80
34.560        93
34.580        70
34.600        73
34.620        67
34.640        70
34.660        67
34.680        50
34.700        73
34.720        63
34.740        60
34.760        60
34.780        63
34.800        80
34.820        77
34.840       107
34.860        83
34.880       107
34.900        80
34.920       103
34.940       103
34.960        80
34.980        83
35.000       103
35.020        73
35.040        90
35.060        70
35.080        60
35.100        60
35.120       113
35.140        73
35.160       113
35.180        93
35.200       110
35.220        60
35.240        80
35.260        90
35.280       107
35.300        80
35.320        60
35.340       103
35.360        60
35.380       113
35.400        80
35.420       100
35.440        87
35.460        67
35.480        63
35.500        83
35.520        83
35.540        63
35.560        73
35.580        77
35.600        63
35.620        87
35.640        67
35.660        90
35.680        80
35.700       103
35.720        97
35.740        97
35.760       137
35.780       103
35.800       113
35.820       150
35.840       127
35.860       187
35.880       143
35.900        83
35.920       123
35.940       123
35.960       113
35.980       110
36.000       120
36.020       113
36.040        80
36.060        93
36.080        67
36.100        80
36.120        93
36.140        87
36.160       100
36.180       120
36.200        70
36.220        70
36.240        43
36.260        63
36.280        73
36.300        67
36.320        67
36.340        70
36.360        50
36.380        90
36.400        77
36.420        77
36.440        80
36.460        63
36.480        73
36.500        73
36.520        87
36.540        63
36.560        87
36.580        47
36.600       110
36.620        57
36.640        47
36.660        53
36.680        57
36.700        97
36.720        57
36.740        63
36.760        93
36.780        93
36.800        70
36.820        63
36.840       100
36.860        70
36.880        83
36.900        77
36.920        70
36.940        80
36.960        63
36.980        77
37.000        63
37.020        87
37.040        67
37.060        60
37.080        60
37.100        67
37.120        70
37.140        73
37.160        77
37.180        93
37.200        83
37.220        57
37.240        37
37.260        53
37.280        53
37.300        50
37.320        77
37.340        47
37.360        87
37.380        70
37.400        50
37.420        63
37.440        70
37.460        93
37.480        90
37.500       100
37.520        80
37.540       100
37.560        70
37.580        90
37.600        80
37.620        57
37.640        83
37.660        80
37.680       110
37.700       113
37.720       113
37.740        87
37.760        67
37.780       110
37.800        93
37.820        87
37.840        70
37.860        87
37.880        67
37.900        60
37.920        80
37.940        60
37.960        43
37.980        57
38.000        60
38.020        90
38.040        93
38.060        93
38.080        70
38.100        77
38.120        63
38.140        63
38.160        77
38.180        90
38.200        77
38.220        93
38.240       107
38.260        77
38.280        93
38.300        70
38.320       100
38.340        80
38.360        90
38.380       110
38.400        83
38.420        60
38.440        77
38.460        83
38.480        60
38.500        90
38.520        80
38.540        47
38.560       107
38.580        73
38.600        60
38.620        90
38.640        70
38.660        73
38.680        57
38.700       113
38.720        73
38.740        87
38.760        63
38.780        70
38.800        87
38.820        67
38.840        83
38.860        43
38.880        77
38.900       107
38.920        67
38.940        87
38.960        70
38.980        83
39.000        80
39.020        77
39.040       100
39.060        77
39.080        97
39.100       110
39.120       123
39.140       113
39.160       140
39.180       127
39.200       123
39.220       133
39.240       133
39.260       127
39.280       137
39.300       133
39.320       127
39.340       190
39.360       117
39.380       183
39.400       117
39.420       120
39.440       107
39.460       110
39.480        87
39.500       107
39.520        93
39.540        87
39.560       100
39.580        97
39.600        93
39.620        93
39.640        97
39.660        80
39.680        77
39.700        93
39.720        37
39.740        57
39.760        60
39.780        93
39.800        67
39.820        93
39.840        53
39.860        57
39.880        73
39.900        50
39.920        67
39.940        57
39.960        80
39.980        67
40.000        60
40.020        80
40.040        60
40.060        70
40.080        60
40.100        93
40.120        77
40.140        53
40.160        67
40.180        57
40.200        73
40.220        77
40.240        57
40.260        77
40.280        97
40.300        50
40.320        53
40.340        90
40.360        60
40.380        90
40.400        60
40.420        43
40.440        43
40.460        83
40.480        53
40.500        67
40.520        80
40.540        77
40.560        73
40.580        77
40.600        90
40.620        83
40.640        67
40.660        70
40.680        50
40.700        53
40.720        87
40.740        60
40.760        30
40.780        70
40.800        80
40.820        67
40.840        47
40.860        60
40.880        57
40.900        87
40.920        57
40.940        63
40.960        67
40.980        87
41.000        63
41.020        50
41.040        50
41.060        73
41.080        60
41.100        70
41.120        57
41.140        67
41.160        40
41.180        67
41.200        87
41.220        50
41.240        53
41.260        77
41.280        70
41.300        83
41.320        60
41.340        50
41.360        67
41.380        53
41.400        47
41.420       100
41.440        83
41.460        63
41.480        80
41.500        53
41.520        90
41.540        67
41.560        90
41.580        90
41.600        80
41.620        70
41.640        43
41.660        63
41.680        67
41.700        73
41.720        37
41.740        70
41.760        53
41.780        67
41.800        67
41.820        73
41.840        93
41.860        83
41.880        90
41.900        73
41.920        50
41.940        70
41.960        47
41.980        80
42.000        57
42.020        63
42.040        83
42.060        63
42.080        60
42.100        73
42.120        87
42.140        53
42.160        73
42.180        60
42.200        47
42.220        53
42.240        37
42.260        40
42.280        67
42.300        63
42.320        83
42.340        83
42.360        47
42.380        63
42.400        40
42.420        80
42.440        53
42.460        30
42.480        63
42.500        67
42.520        80
42.540        57
42.560        70
42.580        47
42.600       110
42.620        53
42.640        67
42.660        80
42.680        77
42.700        63
42.720        57
42.740        83
42.760        73
42.780        87
42.800        60
42.820        63
42.840        77
42.860       110
42.880        77
42.900        87
42.920       110
42.940       110
42.960        90
42.980       110
43.000       107
43.020       117
43.040       147
43.060       163
43.080       153
43.100       170
43.120       130
43.140       147
43.160       133
43.180       117
43.200       120
43.220        63
43.240        90
43.260        90
43.280        63
43.300        60
43.320        67
43.340        73
43.360        97
43.380        93
43.400        60
43.420        77
43.440        47
43.460        67
43.480        57
43.500        57
43.520        87
43.540        57
43.560        57
43.580       100
43.600        70
43.620        47
43.640        53
43.660       113
43.680        50
43.700        50
43.720        60
43.740        70
43.760        70
43.780        57
43.800        77
43.820        70
43.840        53
43.860        67
43.880        60
43.900        63
43.920        43
43.940        73
43.960        87
43.980        77
44.000        73
44.020        70
44.040        53
44.060        97
44.080        53
44.100        67
44.120        77
44.140        43
44.160        57
44.180        83
44.200        67
44.220        63
44.240        80
44.260        40
44.280        77
44.300        60
44.320        63
44.340        67
44.360        67
44.380        50
44.400        83
44.420        47
44.440        53
44.460        57
44.480        47
44.500        63
44.520        83
44.540        40
44.560        77
44.580        70
44.600        50
44.620        53
44.640        43
44.660        43
44.680        83
44.700        70
44.720        57
44.740        47
44.760        40
44.780        53
44.800        53
44.820        57
44.840        63
44.860        50
44.880        80
44.900        60
44.920        83
44.940        87
44.960        70
44.980        87
45.000        60
45.020        83
45.040        77
45.060        67
45.080        77
45.100       103
45.120        63
45.140        93
45.160        43
45.180        60
45.200        93
45.220       103
45.240        67
45.260       120
45.280        83
45.300        90
45.320        90
45.340       100
45.360        80
45.380        63
45.400        77
45.420        73
45.440        83
45.460       117
45.480       117
45.500       117
45.520        80
45.540       103
45.560       117
45.580        77
45.600        93
45.620        83
45.640        77
45.660        93
45.680       117
45.700       143
45.720       110
45.740       143
45.760       133
45.780       113
45.800       120
45.820       123
45.840       127
45.860       107
45.880       110
45.900       133
45.920       107
45.940       167
45.960        60
45.980       117
46.000       103
46.020       110
46.040       123
46.060        93
46.080       117
46.100        93
46.120        90
46.140        73
46.160        60
46.180        93
46.200       130
46.220        90
46.240        93
46.260        97
46.280        87
46.300        83
46.320        80
46.340       113
46.360       130
46.380        87
46.400        50
46.420       103
46.440        80
46.460        87
46.480        77
46.500        70
46.520        63
46.540        80
46.560        87
46.580        80
46.600        70
46.620        57
46.640        80
46.660        90
46.680        70
46.700        83
46.720        97
46.740        83
46.760        93
46.780        70
46.800        70
46.820        90
46.840        90
46.860       113
46.880       110
46.900        70
46.920        97
46.940       117
46.960       140
46.980       100
47.000       100
47.020        97
47.040        70
47.060       100
47.080       107
47.100       170
47.120       103
47.140        93
47.160        97
47.180       117
47.200       133
47.220       110
47.240       107
47.260       157
47.280       157
47.300       163
47.320       203
47.340       197
47.360       133
47.380       190
47.400       220
47.420       173
47.440       213
47.460       150
47.480       143
47.500       173
47.520       180
47.540       147
47.560       120
47.580       133
47.600       103
47.620       127
47.640       113
47.660        83
47.680       113
47.700        67
47.720        83
47.740        93
47.760        67
47.780       113
47.800        77
47.820        57
47.840        80
47.860        63
47.880        77
47.900        63
47.920        67
47.940        70
47.960        70
47.980        90
48.000        63
48.020        70
48.040        60
48.060        93
48.080        93
48.100       100
48.120        63
48.140       107
48.160        60
48.180       107
48.200        83
48.220       100
48.240       120
48.260       123
48.280       137
48.300        87
48.320       123
48.340       130
48.360       170
48.380       187
48.400       193
48.420       217
48.440       210
48.460       197
48.480       173
48.500       133
48.520       160
48.540       150
48.560       147
48.580       113
48.600       133
48.620       107
48.640        57
48.660        57
48.680       110
48.700        57
48.720       100
48.740        97
48.760        63
48.780        60
48.800        70
48.820        60
48.840        53
48.860        57
48.880        73
48.900        77
48.920        90
48.940        63
48.960        77
48.980        67
49.000        63
49.020        63
49.040        83
49.060        57
49.080        77
49.100        43
49.120        67
49.140        80
49.160        63
49.180        47
49.200        77
49.220        50
49.240        60
49.260        47
49.280        77
49.300        57
49.320        87
49.340        57
49.360        97
49.380        87
49.400        70
49.420        60
49.440        40
49.460        63
49.480        90
49.500        63
49.520        73
49.540        83
49.560        77
49.580        23
49.600        63
49.620        67
49.640        63
49.660        73
49.680        67
49.700        43
49.720        67
49.740        37
49.760        57
49.780        37
49.800        70
49.820        87
49.840        90
49.860        57
49.880        70
49.900        63
49.920        67
49.940        30
49.960        93
49.980        80
50.000        60
50.020       110
50.040        70
50.060        47
50.080        53
50.100        87
50.120        63
50.140        67
50.160        73
50.180        77
50.200        53
50.220        77
50.240        93
50.260        83
50.280        77
50.300        97
50.320        63
50.340        63
50.360        73
50.380        73
50.400        67
50.420        60
50.440        63
50.460        70
50.480        77
50.500        50
50.520        97
50.540        70
50.560        77
50.580        70
50.600        87
50.620       100
50.640        83
50.660        93
50.680       100
50.700        43
50.720        50
50.740       110
50.760        70
50.780        70
50.800        87
50.820        83
50.840        57
50.860        53
50.880        53
50.900       100
50.920        87
50.940        67
50.960       117
50.980       100
51.000        77
51.020       107
51.040       107
51.060        63
51.080        87
51.100        60
51.120        63
51.140        90
51.160        87
51.180        70
51.200        70
51.220        93
51.240        67
51.260        70
51.280        67
51.300        83
51.320        73
51.340        97
51.360        63
51.380       113
51.400        73
51.420        93
51.440        67
51.460        70
51.480       107
51.500       103
51.520        73
51.540        77
51.560       103
51.580       123
51.600        67
51.620        83
51.640        80
51.660        90
51.680       100
51.700       140
51.720       103
51.740        80
51.760       110
51.780        80
51.800       123
51.820       100
51.840        83
51.860       103
51.880        87
51.900        83
51.920       110
51.940        77
51.960        93
51.980        70
52.000       103
52.020        90
52.040       117
52.060       107
52.080        80
52.100        80
52.120       100
52.140        90
52.160        90
52.180        87
52.200        87
52.220       100
52.240       113
52.260       113
52.280        83
52.300        93
52.320       107
52.340       110
52.360        77
52.380       117
52.400       120
52.420        87
52.440       127
52.460       100
52.480       133
52.500       113
52.520       177
52.540       157
52.560       180
52.580       187
52.600       190
52.620       130
52.640       150
52.660       167
52.680       150
52.700       113
52.720       153
52.740       110
52.760       143
52.780       153
52.800       113
52.820       123
52.840       153
52.860       133
52.880       120
52.900       110
52.920       123
52.940       107
52.960       130
52.980       100
53.000       103
53.020       113
53.040       113
53.060       127
53.080       133
53.100       127
53.120       113
53.140       120
53.160       130
53.180        97
53.200       113
53.220        93
53.240        93
53.260        93
53.280       117
53.300       103
53.320        97
53.340       100
53.360       113
53.380       100
53.400        77
53.420       103
53.440       103
53.460        83
53.480        83
53.500        97
53.520       100
53.540        77
53.560       117
53.580       107
53.600        93
53.620        90
53.640        87
53.660        87
53.680       127
53.700        67
53.720       110
53.740       103
53.760        53
53.780        87
53.800        60
53.820        97
53.840        77
53.860        83
53.880       107
53.900       107
53.920        73
53.940       103
53.960        80
53.980       100
54.000        83
54.020       100
54.040        77
54.060       107
54.080        83
54.100        77
54.120        67
54.140       107
54.160        83
54.180        87
54.200        73
54.220        93
54.240        87
54.260        63
54.280        83
54.300        63
54.320       100
54.340        87
54.360        97
54.380        87
54.400       107
54.420       103
54.440       100
54.460        73
54.480        87
54.500        90
54.520       103
54.540        87
54.560       113
54.580       100
54.600        57
54.620        93
54.640        77
54.660       100
54.680        83
54.700       100
54.720        93
54.740        50
54.760        87
54.780       100
54.800        93
54.820       107
54.840        73
54.860       120
54.880       110
54.900       120
54.920       110
54.940       110
54.960        87
54.980       123
55.000       113
55.020        97
55.040        90
55.060        90
55.080        77
55.100        77
55.120       120
55.140       110
55.160       103
55.180        80
55.200       103
55.220        87
55.240       103
55.260       100
55.280        90
55.300        93
55.320        90
55.340        70
55.360       107
55.380        97
55.400        93
55.420        70
55.440        73
55.460        90
55.480        90
55.500        80
55.520        77
55.540       100
55.560       107
55.580        80
55.600       103
55.620        70
55.640        87
55.660        87
55.680        60
55.700       110
55.720        67
55.740        83
55.760        63
55.780        73
55.800       107
55.820        80
55.840        70
55.860        70
55.880        63
55.900       100
55.920        83
55.940        53
55.960        80
55.980        93
56.000        87
56.020        57
56.040        90
56.060        70
56.080        77
56.100        57
56.120        67
56.140        93
56.160        77
56.180        73
56.200        77
56.220        57
56.240        80
56.260       100
56.280       100
56.300        87
56.320        97
56.340       110
56.360        83
56.380       100
56.400        77
56.420       113
56.440       100
56.460        97
56.480        97
56.500        87
56.520        83
56.540        97
56.560        80
56.580       100
56.600       107
56.620       153
56.640       133
56.660        70
56.680        83
56.700        87
56.720        93
56.740        60
56.760       103
56.780        87
56.800       123
56.820       137
56.840       100
56.860        87
56.880        97
56.900       107
56.920       103
56.940        73
56.960       103
56.980        63
57.000        83
57.020        93
57.040        80
57.060        93
57.080        77
57.100       103
57.120       103
57.140        93
57.160        80
57.180        77
57.200       117
57.220       110
57.240       133
57.260       130
57.280       140
57.300       167
57.320       127
57.340       143
57.360       150
57.380       137
57.400       180
57.420       127
57.440       127
57.460        93
57.480       117
57.500        93
57.520        73
57.540        83
57.560       100
57.580        60
57.600        67
57.620       100
57.640       127
57.660        87
57.680       120
57.700        53
57.720        77
57.740        33
57.760       110
57.780        87
57.800        97
57.820        73
57.840        90
57.860        67
57.880        97
57.900        97
57.920        97
57.940        87
57.960        73
57.980        80
58.000        97
58.020        97
58.040        93
58.060        90
58.080       127
58.100        60
58.120        83
58.140        67
58.160        80
58.180        70
58.200        77
58.220        87
58.240        87
58.260        90
58.280        83
58.300        80
58.320        77
58.340        53
58.360        90
58.380       100
58.400       113
58.420        80
58.440       103
58.460        83
58.480        73
58.500        67
58.520        67
58.540        77
58.560        73
58.580        83
58.600        77
58.620        50
58.640        67
58.660        77
58.680        40
58.700        73
58.720        57
58.740        83
58.760        63
58.780        47
58.800        63
58.820        50
58.840        67
58.860        60
58.880        53
58.900       100
58.920        60
58.940        90
58.960        67
58.980        83
59.000        50
59.020        87
59.040        43
59.060       103
59.080        63
59.100       100
59.120        77
59.140        70
59.160        87
59.180        80
59.200        80
59.220        53
59.240        77
59.260        67
59.280        97
59.300        53
59.320        73
59.340        77
59.360        70
59.380        83
59.400        90
59.420        87
59.440        83
59.460        80
59.480        97
59.500       100
59.520        83
59.540        93
59.560        57
59.580        53
59.600        50
59.620        73
59.640        73
59.660        50
59.680        93
59.700        70
59.720        63
59.740        67
59.760        70
59.780        73
59.800        67
59.820        80
59.840        83
59.860       110
59.880        90
59.900        57
59.920        80
59.940        87
59.960        77
59.980       117
60.000        93
