20.000       250
20.020       250
20.040       223
20.060       263
20.080       227
20.100       207
20.120       230
20.140       260
20.160       263
20.180       217
20.200       190
20.220       223
20.240       200
20.260       270
20.280       250
20.300       263
20.320       250
20.340       257
20.360       217
20.380       230
20.400       217
20.420       260
20.440       227
20.460       167
20.480       210
20.500       200
20.520       180
20.540       233
20.560       213
20.580       210
20.600       250
20.620       220
20.640       223
20.660       157
20.680       240
20.700       267
20.720       213
20.740       190
20.760       200
20.780       207
20.800       223
20.820       213
20.840       270
20.860       190
20.880       230
20.900       200
20.920       213
20.940       240
20.960       217
20.980       243
21.000       180
21.020       123
21.040       267
21.060       193
21.080       227
21.100       250
21.120       223
21.140       210
21.160       237
21.180       200
21.200       193
21.220       197
21.240       203
21.260       210
21.280       230
21.300       213
21.320       203
21.340       200
21.360       210
21.380       240
21.400       203
21.420       193
21.440       203
21.460       210
21.480       200
21.500       177
21.520       170
21.540       187
21.560       223
21.580       233
21.600       243
21.620       240
21.640       197
21.660       177
21.680       203
21.700       220
21.720       170
21.740       173
21.760       187
21.780       207
21.800       193
21.820       193
21.840       220
21.860       173
21.880       223
21.900       193
21.920       223
21.940       193
21.960       217
21.980       227
22.000       193
22.020       183
22.040       153
22.060       220
22.080       197
22.100       180
22.120       160
22.140       180
22.160       183
22.180       190
22.200       240
22.220       230
22.240       180
22.260       193
22.280       203
22.300       207
22.320       227
22.340       223
22.360       183
22.380       223
22.400       243
22.420       287
22.440       240
22.460       210
22.480       203
22.500       190
22.520       237
22.540       240
22.560       207
22.580       230
22.600       257
22.620       197
22.640       213
22.660       160
22.680       200
22.700       233
22.720       147
22.740       173
22.760       210
22.780       203
22.800       190
22.820       173
22.840       170
22.860       213
22.880       250
22.900       150
22.920       177
22.940       193
22.960       137
22.980       147
23.000       157
23.020       180
23.040       190
23.060       167
23.080       187
23.100       200
23.120       213
23.140       183
23.160       160
23.180       153
23.200       190
23.220       173
23.240       167
23.260       197
23.280       150
23.300       217
23.320       213
23.340       210
23.360       183
23.380       193
23.400       173
23.420       197
23.440       197
23.460       153
23.480       163
23.500       187
23.520       253
23.540       147
23.560       197
23.580       170
23.600       187
23.620       190
23.640       217
23.660       170
23.680       160
23.700       193
23.720       150
23.740       167
23.760       167
23.780       147
23.800       213
23.820       167
23.840       157
23.860       130
23.880       140
23.900       163
23.920       160
23.940       193
23.960       130
23.980       173
24.000       143
24.020       157
24.040       143
24.060       167
24.080       187
24.100       213
24.120       140
24.140       173
24.160       143
24.180       210
24.200       160
24.220       153
24.240       157
24.260       177
24.280       177
24.300       153
24.320       167
24.340       157
24.360       160
24.380       183
24.400       173
24.420       223
24.440       140
24.460       177
24.480       177
24.500       127
24.520       167
24.540       183
24.560       197
24.580       200
24.600       207
24.620       200
24.640       140
24.660       180
24.680       150
24.700       120
24.720       133
24.740       180
24.760       107
24.780       197
24.800       140
24.820       163
24.840       133
24.860       167
24.880       130
24.900       173
24.920       137
24.940       157
24.960       183
24.980       147
25.000       133
25.020       153
25.040       197
25.060       113
25.080       167
25.100       160
25.120       133
25.140       157
25.160       173
25.180       140
25.200       147
25.220       163
25.240       147
25.260       157
25.280       210
25.300       183
25.320       160
25.340       167
25.360       207
25.380       173
25.400       243
25.420       277
25.440       193
25.460       300
25.480       330
25.500       350
25.520       440
25.540       640
25.560       726
25.580       760
25.600       736
25.620       716
25.640       563
25.660       530
25.680       367
25.700       277
25.720       237
25.740       193
25.760       180
25.780       163
25.800       157
25.820       183
25.840       160
25.860       160
25.880       130
25.900       117
25.920       137
25.940       163
25.960       167
25.980       150
26.000       163
26.020       180
26.040       187
26.060       147
26.080       143
26.100       163
26.120       173
26.140       133
26.160       120
26.180       130
26.200       143
26.220       103
26.240       200
26.260       123
26.280       153
26.300       117
26.320       123
26.340       153
26.360       143
26.380       123
26.400       133
26.420       163
26.440       197
26.460       137
26.480       153
26.500       167
26.520       180
26.540       103
26.560       177
26.580       113
26.600       150
26.620       153
26.640       150
26.660       153
26.680       160
26.700       137
26.720       140
26.740       163
26.760       143
26.780       143
26.800       153
26.820       140
26.840       123
26.860       110
26.880       113
26.900       123
26.920       140
26.940       130
26.960       153
26.980       137
27.000       127
27.020       133
27.040       140
27.060       130
27.080       110
27.100       127
27.120       150
27.140       157
27.160       140
27.180       110
27.200       177
27.220       123
27.240       133
27.260       110
27.280       147
27.300       110
27.320       133
27.340       133
27.360       103
27.380       133
27.400       147
27.420       147
27.440       133
27.460       143
27.480       137
27.500       123
27.520        90
27.540       130
27.560       130
27.580        93
27.600        87
27.620       163
27.640        93
27.660       110
27.680       123
27.700       133
27.720       123
27.740       120
27.760       103
27.780        80
27.800       133
27.820       147
27.840       137
27.860       120
27.880       133
27.900       110
27.920       120
27.940        97
27.960       130
27.980       113
28.000       103
28.020       130
28.040       110
28.060       143
28.080       150
28.100       113
28.120       110
28.140       127
28.160       107
28.180       143
28.200       130
28.220       120
28.240       130
28.260       127
28.280       103
28.300        90
28.320       107
28.340       123
28.360       100
28.380       133
28.400        90
28.420       127
28.440       127
28.460       117
28.480        97
28.500       140
28.520       123
28.540       110
28.560        90
28.580       107
28.600       113
28.620       117
28.640       113
28.660       117
28.680       143
28.700        90
28.720       110
28.740        90
28.760       133
28.780       100
28.800       103
28.820       100
28.840       120
28.860       120
28.880       107
28.900        67
28.920       107
28.940       147
28.960       130
28.980       127
29.000       137
29.020       113
29.040       107
29.060       117
29.080       100
29.100        73
29.120       100
29.140       120
29.160       100
29.180       113
29.200       110
29.220       127
29.240       110
29.260       127
29.280       117
29.300       137
29.320       147
29.340        90
29.360       117
29.380       103
29.400       150
29.420        90
29.440       133
29.460       110
29.480       123
29.500       160
29.520       123
29.540       110
29.560       100
29.580        77
29.600       127
29.620       100
29.640       113
29.660       100
29.680       153
29.700       127
29.720       143
29.740       117
29.760       120
29.780       107
29.800       117
29.820       103
29.840       127
29.860       120
29.880        80
29.900        63
29.920       130
29.940       113
29.960       100
29.980       107
30.000        97
30.020       107
30.040        83
30.060        97
30.080        93
30.100       117
30.120       117
30.140        93
30.160       163
30.180        87
30.200        60
30.220       130
30.240       103
30.260       127
30.280       137
30.300        73
30.320       117
30.340        67
30.360        97
30.380        80
30.400       120
30.420       117
30.440       100
30.460        97
30.480       113
30.500        90
30.520       100
30.540        83
30.560        93
30.580       100
30.600       110
30.620       110
30.640        90
30.660        73
30.680        77
30.700       100
30.720       107
30.740        83
30.760       103
30.780       117
30.800       113
30.820       123
30.840       120
30.860        93
30.880       117
30.900       130
30.920        83
30.940       140
30.960        90
30.980       113
31.000        80
31.020       123
31.040       127
31.060        80
31.080       103
31.100       103
31.120       117
31.140       107
31.160        60
31.180       107
31.200       117
31.220       107
31.240       120
31.260       107
31.280        97
31.300        93
31.320       110
31.340       107
31.360       103
31.380       113
31.400       113
31.420       107
31.440       103
31.460       100
31.480       140
31.500       140
31.520       107
31.540       107
31.560       120
31.580       140
31.600       120
31.620       117
31.640       110
31.660        97
31.680       123
31.700       153
31.720       107
31.740       177
31.760       130
31.780       157
31.800       163
31.820       197
31.840       163
31.860       200
31.880       190
31.900       197
31.920       210
31.940       260
31.960       213
31.980       233
32.000       307
32.020       300
32.040       380
32.060       370
32.080       377
32.100       347
32.120       357
32.140       280
32.160       280
32.180       260
32.200       243
32.220       267
32.240       190
32.260       243
32.280       177
32.300       170
32.320       160
32.340       117
32.360       150
32.380       130
32.400       137
32.420       130
32.440        87
32.460        93
32.480        83
32.500       127
32.520       120
32.540       110
32.560        77
32.580        97
32.600       133
32.620       100
32.640       100
32.660        93
32.680       110
32.700       117
32.720       130
32.740       127
32.760       133
32.780        97
32.800        90
32.820       110
32.840        83
32.860       140
32.880        77
32.900        63
32.920        77
32.940       100
32.960       107
32.980        87
33.000        70
33.020        57
33.040        87
33.060        97
33.080        97
33.100        83
33.120       113
33.140        83
33.160        90
33.180        77
33.200       113
33.220       103
33.240        73
33.260        63
33.280        97
33.300       103
33.320       100
33.340        67
33.360       107
33.380        77
33.400       100
33.420       127
33.440        60
33.460        83
33.480       107
33.500        97
33.520        70
33.540        70
33.560        90
33.580       133
33.600       110
33.620        90
33.640       103
33.660        87
33.680        73
33.700        87
33.720       120
33.740        83
33.760       123
33.780        83
33.800       113
33.820       100
33.840        93
33.860        77
33.880       117
33.900       110
33.920       103
33.940       117
33.960       100
33.980       100
34.000        53
34.020        90
34.040        93
34.060       113
34.080       123
34.100       103
34.120       107
34.140       100
34.160       107
34.180        93
34.200        87
34.220       100
34.240       110
34.260        83
34.280        93
34.300        60
34.320        80
34.340        73
34.360       113
34.380       100
34.400        97
34.420       113
34.440        83
34.460        83
34.480        67
34.500       113
34.520        93
34.540       100
34.560       110
34.580       103
34.600       110
34.620       130
34.640        73
34.660       110
34.680        90
34.700        83
34.720       103
34.740       160
34.760        93
34.780        83
34.800       117
34.820        90
34.840       180
34.860       160
34.880       130
34.900       197
34.920       207
34.940       237
34.960       277
34.980       350
35.000       486
35.020       560
35.040       556
35.060       673
35.080       836
35.100      1166
35.120      1619
35.140      2359
35.160      2756
35.180      2706
35.200      2079
35.220      1766
35.240      1446
35.260      1419
35.280      1216
35.300       833
35.320       383
35.340       267
35.360       187
35.380       160
35.400       177
35.420       133
35.440       110
35.460        97
35.480       140
35.500       103
35.520       117
35.540       103
35.560       110
35.580       113
35.600        80
35.620       117
35.640       110
35.660        97
35.680       107
35.700        70
35.720        83
35.740        97
35.760       100
35.780        90
35.800        70
35.820        90
35.840        73
35.860        83
35.880        90
35.900        93
35.920        67
35.940        73
35.960        87
35.980       107
36.000       103
36.020        87
36.040        83
36.060        90
36.080        77
36.100        60
36.120        87
36.140        93
36.160        97
36.180        87
36.200       110
36.220        93
36.240        53
36.260        77
36.280       103
36.300        73
36.320        77
36.340       107
36.360        87
36.380        83
36.400        70
36.420        70
36.440        87
36.460        60
36.480        63
36.500        93
36.520        97
36.540        83
36.560        53
36.580        93
36.600        60
36.620        63
36.640        77
36.660        87
36.680       113
36.700        67
36.720        97
36.740        73
36.760        60
36.780        70
36.800        53
36.820        60
36.840        90
36.860        93
36.880       100
36.900        83
36.920        73
36.940        97
36.960       113
36.980        97
37.000       113
37.020        83
37.040        90
37.060       100
37.080        97
37.100        73
37.120        77
37.140       127
37.160       103
37.180       123
37.200       110
37.220        73
37.240       100
37.260        93
37.280        93
37.300        90
37.320        77
37.340        97
37.360        83
37.380       110
37.400        93
37.420        77
37.440        83
37.460        93
37.480        80
37.500        70
37.520        93
37.540        80
37.560        93
37.580       110
37.600       113
37.620        97
37.640       130
37.660       130
37.680       197
37.700       140
37.720       227
37.740       260
37.760       436
37.780       703
37.800       790
37.820       730
37.840       490
37.860       387
37.880       387
37.900       417
37.920       353
37.940       270
37.960       133
37.980       133
38.000        87
38.020        67
38.040        93
38.060        73
38.080        67
38.100        73
38.120        83
38.140        87
38.160        73
38.180        67
38.200        63
38.220        57
38.240        53
38.260        83
38.280        90
38.300        70
38.320        87
38.340        93
38.360        80
38.380        97
38.400        87
38.420        63
38.440        93
38.460        63
38.480        70
38.500        57
38.520        90
38.540        60
38.560       100
38.580        83
38.600        87
38.620        80
38.640        57
38.660        63
38.680        83
38.700        90
38.720       107
38.740        63
38.760        60
38.780        67
38.800        80
38.820        73
38.840        90
38.860        93
38.880       103
38.900        80
38.920        97
38.940       100
38.960        87
38.980        87
39.000        93
39.020        77
39.040       103
39.060        93
39.080        67
39.100        63
39.120        87
39.140        90
39.160        83
39.180       103
39.200       100
39.220       107
39.240        93
39.260        80
39.280        93
39.300        83
39.320       120
39.340        80
39.360        60
39.380        73
39.400        87
39.420        97
39.440        87
39.460        60
39.480        70
39.500        90
39.520       100
39.540        93
39.560        90
39.580       107
39.600        60
39.620       103
39.640        90
39.660        73
39.680        93
39.700        97
39.720        70
39.740        97
39.760       100
39.780        77
39.800        80
39.820        77
39.840        83
39.860        70
39.880        93
39.900        63
39.920        83
39.940        73
39.960        77
39.980        77
40.000        63
40.020        73
40.040        83
40.060        90
40.080        50
40.100        77
40.120        93
40.140        70
40.160        83
40.180        73
40.200        60
40.220        53
40.240        70
40.260        47
40.280       103
40.300        70
40.320       100
40.340        60
40.360        53
40.380        70
40.400        67
40.420        67
40.440        50
40.460        83
40.480        67
40.500        70
40.520       103
40.540        53
40.560        83
40.580        77
40.600        60
40.620        67
40.640        90
40.660        43
40.680        87
40.700        80
40.720       100
40.740        53
40.760        63
40.780       107
40.800        70
40.820        67
40.840        83
40.860        50
40.880        60
40.900        60
40.920        73
40.940       100
40.960        77
40.980        67
41.000        87
41.020        83
41.040        70
41.060        57
41.080        67
41.100        53
41.120        70
41.140        57
41.160        83
41.180        93
41.200        77
41.220       100
41.240        57
41.260       100
41.280        50
41.300        60
41.320        67
41.340        80
41.360        90
41.380        67
41.400       100
41.420        80
41.440        83
41.460       107
41.480        60
41.500       127
41.520        70
41.540        97
41.560       140
41.580       147
41.600       163
41.620       143
41.640       203
41.660       320
41.680       300
41.700       290
41.720       290
41.740       177
41.760       150
41.780       157
41.800       163
41.820       157
41.840       137
41.860       103
41.880        83
41.900        80
41.920        83
41.940        93
41.960       103
41.980        70
42.000        83
42.020        63
42.040        50
42.060        87
42.080        77
42.100        70
42.120        63
42.140        70
42.160        60
42.180        87
42.200        73
42.220        70
42.240        93
42.260        70
42.280        70
42.300        63
42.320        73
42.340        97
42.360       100
42.380        67
42.400        70
42.420       100
42.440        83
42.460        47
42.480        43
42.500        70
42.520        30
42.540        87
42.560        63
42.580        60
42.600        60
42.620        93
42.640        60
42.660        73
42.680        70
42.700        73
42.720        53
42.740        80
42.760        73
42.780        77
42.800        87
42.820        83
42.840        80
42.860        73
42.880        97
42.900        60
42.920        90
42.940        83
42.960        87
42.980        47
43.000        63
43.020        80
43.040        87
43.060        80
43.080        87
43.100       103
43.120       130
43.140       133
43.160       157
43.180       200
43.200       193
43.220       247
43.240       227
43.260       303
43.280       397
43.300       543
43.320       820
43.340      1489
43.360      1743
43.380      1813
43.400      1483
43.420       886
43.440       723
43.460       806
43.480       933
43.500       790
43.520       580
43.540       260
43.560       180
43.580       113
43.600       137
43.620       130
43.640        80
43.660        63
43.680       107
43.700        50
43.720        53
43.740        50
43.760        77
43.780        23
43.800        47
43.820        67
43.840        67
43.860        67
43.880        80
43.900        60
43.920        73
43.940        90
43.960        43
43.980        70
44.000        73
44.020        93
44.040        70
44.060        90
44.080        47
44.100        80
44.120        70
44.140        87
44.160        70
44.180        57
44.200        70
44.220        77
44.240        70
44.260        70
44.280        67
44.300        63
44.320        73
44.340        63
44.360        57
44.380        77
44.400       100
44.420        63
44.440        80
44.460        70
44.480       100
44.500        47
44.520        50
44.540        70
44.560       103
44.580        47
44.600        60
44.620        83
44.640        70
44.660        50
44.680        87
44.700        97
44.720        60
44.740        93
44.760        60
44.780        77
44.800        73
44.820        70
44.840        80
44.860        77
44.880        57
44.900        93
44.920        63
44.940        57
44.960        63
44.980        53
45.000        80
45.020        87
45.040        53
45.060        80
45.080        77
45.100        43
45.120        50
45.140        83
45.160        77
45.180        80
45.200        80
45.220        87
45.240       100
45.260       127
45.280        97
45.300       100
45.320       100
45.340        73
45.360        83
45.380       107
45.400        90
45.420        80
45.440        80
45.460        87
45.480        90
45.500        83
45.520       107
45.540        57
45.560       100
45.580       107
45.600       107
45.620       137
45.640       110
45.660       143
45.680       113
45.700       167
45.720       123
45.740       177
45.760       137
45.780       170
45.800       190
45.820       153
45.840       200
45.860       230
45.880       220
45.900       183
45.920       183
45.940       180
45.960       280
45.980       190
46.000       207
46.020       167
46.040       243
46.060       177
46.080       173
46.100       160
46.120       187
46.140       173
46.160       153
46.180       123
46.200       177
46.220       160
46.240       133
46.260       160
46.280       100
46.300       140
46.320        83
46.340       103
46.360        73
46.380        87
46.400        73
46.420        77
46.440        73
46.460        77
46.480        77
46.500        73
46.520        73
46.540        93
46.560        67
46.580        70
46.600        90
46.620        77
46.640        53
46.660        40
46.680       100
46.700        57
46.720        67
46.740        60
46.760        67
46.780        73
46.800        53
46.820        70
46.840        40
46.860        63
46.880        57
46.900        87
46.920        77
46.940        80
46.960        77
46.980        70
47.000        37
47.020        53
47.040        67
47.060        77
47.080        90
47.100        60
47.120        80
47.140        73
47.160        57
47.180        53
47.200        77
47.220        47
47.240        80
47.260        67
47.280        77
47.300        67
47.320        63
47.340        70
47.360        50
47.380        57
47.400        53
47.420        67
47.440        67
47.460        83
47.480        53
47.500        70
47.520        73
47.540        60
47.560        60
47.580        90
47.600        70
47.620        70
47.640        90
47.660        60
47.680        60
47.700        53
47.720        77
47.740        60
47.760        60
47.780        50
47.800        67
47.820        70
47.840        43
47.860        63
47.880        63
47.900        77
47.920        63
47.940        60
47.960        80
47.980        33
48.000        77
48.020        67
48.040        63
48.060        73
48.080        73
48.100        73
48.120        67
48.140        43
48.160        60
48.180        30
48.200        50
48.220        70
48.240        87
48.260        67
48.280        60
48.300        73
48.320        73
48.340        63
48.360        53
48.380        37
48.400        60
48.420        43
48.440        57
48.460        63
48.480        70
48.500       103
48.520        60
48.540        63
48.560        57
48.580        80
48.600        53
48.620        53
48.640        53
48.660        57
48.680        43
48.700        67
48.720        33
48.740        73
48.760        73
48.780        47
48.800        87
48.820        83
48.840        80
48.860        60
48.880        53
48.900        57
48.920        50
48.940        37
48.960        67
48.980        47
49.000        60
49.020        50
49.040        63
49.060        47
49.080        53
49.100        57
49.120        73
49.140        27
49.160        70
49.180        47
49.200        43
49.220        60
49.240        57
49.260        50
49.280        63
49.300        70
49.320        63
49.340        80
49.360        47
49.380        67
49.400        40
49.420        67
49.440        70
49.460        53
49.480        53
49.500        60
49.520        80
49.540        53
49.560        60
49.580        77
49.600        53
49.620        60
49.640        47
49.660        50
49.680        53
49.700        60
49.720        43
49.740        73
49.760        77
49.780        73
49.800        73
49.820        60
49.840        53
49.860        57
49.880        50
49.900        53
49.920        30
49.940        50
49.960        50
49.980        63
50.000        73
50.020        57
50.040        53
50.060        57
50.080        80
50.100        70
50.120        70
50.140        57
50.160        53
50.180        77
50.200        60
50.220        73
50.240        70
50.260        77
50.280        57
50.300        77
50.320        53
50.340        43
50.360        67
50.380        67
50.400        57
50.420        83
50.440        63
50.460        77
50.480        63
50.500        80
50.520        63
50.540       107
50.560        67
50.580        37
50.600        53
50.620        50
50.640        40
50.660        57
50.680        63
50.700       103
50.720        57
50.740        70
50.760        37
50.780        60
50.800        70
50.820        43
50.840        50
50.860        33
50.880        57
50.900        87
50.920        70
50.940        63
50.960        63
50.980        33
51.000        73
51.020        70
51.040        57
51.060        37
51.080        50
51.100        87
51.120        37
51.140        67
51.160        53
51.180        50
51.200        50
51.220        50
51.240        57
51.260        60
51.280        53
51.300        50
51.320        47
51.340        57
51.360        67
51.380        47
51.400        77
51.420        50
51.440        83
51.460        73
51.480        73
51.500        87
51.520        77
51.540        63
51.560        50
51.580        57
51.600        27
51.620        57
51.640        77
51.660        50
51.680        27
51.700        73
51.720        53
51.740        70
51.760        63
51.780        97
51.800        70
51.820        63
51.840        43
51.860        77
51.880        53
51.900        43
51.920        70
51.940        67
51.960        53
51.980        57
52.000        83
52.020        50
52.040        50
52.060        80
52.080        83
52.100        60
52.120        50
52.140        77
52.160        73
52.180       103
52.200        77
52.220        83
52.240        67
52.260        73
52.280       103
52.300        60
52.320        80
52.340       110
52.360        93
52.380        77
52.400       130
52.420       157
52.440       230
52.460       300
52.480       320
52.500       450
52.520       496
52.540       683
52.560       910
52.580       920
52.600       930
52.620       680
52.640       480
52.660       377
52.680       390
52.700       463
52.720       513
52.740       436
52.760       337
52.780       207
52.800       103
52.820       110
52.840       117
52.860        80
52.880        87
52.900        73
52.920        77
52.940        90
52.960        73
52.980        60
53.000        63
53.020        87
53.040        83
53.060        53
53.080        50
53.100       100
53.120        53
53.140        57
53.160        77
53.180        60
53.200        70
53.220        83
53.240        67
53.260        70
53.280        53
53.300        60
53.320        53
53.340        50
53.360        67
53.380        83
53.400        83
53.420        50
53.440        47
53.460        63
53.480        53
53.500        50
53.520        90
53.540        63
53.560        53
53.580        77
53.600        73
53.620        60
53.640        63
53.660        63
53.680        37
53.700        60
53.720        50
53.740        53
53.760        67
53.780        57
53.800        53
53.820        77
53.840        53
53.860        80
53.880        47
53.900        50
53.920        67
53.940        37
53.960        53
53.980        43
54.000        43
54.020        53
54.040        80
54.060        30
54.080        57
54.100        57
54.120        37
54.140        63
54.160        50
54.180        43
54.200        43
54.220        70
54.240        50
54.260        37
54.280        60
54.300        60
54.320        53
54.340        80
54.360        63
54.380        70
54.400        53
54.420        43
54.440        70
54.460        73
54.480        63
54.500        50
54.520        53
54.540        70
54.560        40
54.580        73
54.600        63
54.620        47
54.640        50
54.660        67
54.680        63
54.700        47
54.720        63
54.740        80
54.760        53
54.780        60
54.800        67
54.820        70
54.840        60
54.860        80
54.880        43
54.900        63
54.920        43
54.940        70
54.960        50
54.980        23
55.000        73
55.020        67
55.040        83
55.060        57
55.080        83
55.100        50
55.120        67
55.140        40
55.160        43
55.180        80
55.200        73
55.220        67
55.240        40
55.260        73
55.280        47
55.300        57
55.320        53
55.340        50
55.360        60
55.380        47
55.400        67
55.420        63
55.440        60
55.460        70
55.480        70
55.500        63
55.520        33
55.540        67
55.560        60
55.580        50
55.600        83
55.620        70
55.640        60
55.660        60
55.680        73
55.700        60
55.720        70
55.740        53
55.760        80
55.780        93
55.800        60
55.820        80
55.840        73
55.860        43
55.880        40
55.900        53
55.920        60
55.940        63
55.960        50
55.980        47
56.000        67
56.020        60
56.040        70
56.060        57
56.080        67
56.100        50
56.120        80
56.140        70
56.160        70
56.180        70
56.200        63
56.220        73
56.240        87
56.260        73
56.280        67
56.300        70
56.320        87
56.340        50
56.360        70
56.380        77
56.400        60
56.420        63
56.440        47
56.460        73
56.480        60
56.500        67
56.520        50
56.540        40
56.560        63
56.580        53
56.600        50
56.620        93
56.640        57
56.660        57
56.680        70
56.700        70
56.720        70
56.740        90
56.760        67
56.780        77
56.800        83
56.820        80
56.840        53
56.860        57
56.880        63
56.900        73
56.920        63
56.940        70
56.960        60
56.980        63
57.000       103
57.020       100
57.040        60
57.060       120
57.080        63
57.100        87
57.120        93
57.140        97
57.160        97
57.180       117
57.200       117
57.220       147
57.240       137
57.260       173
57.280       167
57.300       203
57.320       233
57.340       290
57.360       317
57.380       397
57.400       496
57.420       663
57.440      1026
57.460      1443
57.480      1913
57.500      2389
57.520      2302
57.540      2063
57.560      1556
57.580      1100
57.600       853
57.620       880
57.640      1160
57.660      1236
57.680      1276
57.700      1113
57.720       743
57.740       463
57.760       267
57.780       183
57.800       153
57.820        97
57.840       143
57.860       137
57.880        70
57.900        90
57.920        93
57.940        80
57.960        97
57.980        77
58.000        87
58.020        60
58.040       103
58.060        57
58.080        60
58.100        53
58.120        63
58.140        57
58.160        70
58.180        63
58.200        67
58.220        50
58.240        27
58.260        83
58.280        77
58.300        67
58.320        63
58.340        73
58.360        60
58.380        73
58.400        57
58.420        43
58.440        80
58.460        83
58.480        70
58.500        73
58.520        50
58.540        57
58.560        70
58.580        63
58.600        83
58.620        53
58.640        63
58.660        70
58.680        73
58.700        50
58.720        60
58.740        63
58.760        63
58.780        53
58.800        60
58.820        90
58.840        67
58.860        73
58.880        93
58.900        60
58.920        73
58.940        43
58.960        43
58.980        53
59.000        63
59.020        57
59.040        70
59.060        60
59.080        57
59.100        53
59.120        67
59.140        60
59.160        77
59.180        53
59.200        77
59.220        60
59.240        70
59.260        57
59.280        77
59.300        80
59.320        87
59.340        93
59.360        53
59.380        50
59.400        73
59.420        70
59.440        80
59.460        87
59.480        63
59.500        53
59.520        50
59.540        63
59.560        60
59.580       100
59.600        47
59.620        47
59.640        63
59.660        97
59.680        90
59.700       110
59.720       130
59.740        20
59.760         0
59.780         0
59.800         3
59.820         0
59.840         0
59.860         0
59.880         0
59.900         0
59.920         0
59.940         0
59.960         0
59.980         0
60.000         0
