20.000      1269
20.020      1366
20.040      1339
20.060      1389
20.080      1503
20.100      1503
20.120      1493
20.140      1419
20.160      1456
20.180      1273
20.200      1343
20.220      1256
20.240      1326
20.260      1363
20.280      1226
20.300      1329
20.320      1296
20.340      1343
20.360      1386
20.380      1286
20.400      1253
20.420      1433
20.440      1276
20.460      1346
20.480      1293
20.500      1296
20.520      1299
20.540      1200
20.560      1323
20.580      1233
20.600      1336
20.620      1473
20.640      1346
20.660      1250
20.680      1376
20.700      1160
20.720      1223
20.740      1279
20.760      1200
20.780      1150
20.800      1110
20.820      1263
20.840      1150
20.860      1293
20.880      1259
20.900      1329
20.920      1160
20.940      1213
20.960      1193
20.980      1273
21.000      1196
21.020      1253
21.040      1286
21.060      1273
21.080      1213
21.100      1196
21.120      1070
21.140      1223
21.160      1269
21.180      1113
21.200      1133
21.220      1196
21.240      1190
21.260      1216
21.280      1276
21.300      1223
21.320      1223
21.340      1090
21.360      1156
21.380      1136
21.400      1006
21.420      1203
21.440      1296
21.460      1150
21.480      1053
21.500      1203
21.520      1173
21.540      1033
21.560      1190
21.580       950
21.600      1083
21.620      1130
21.640      1180
21.660      1053
21.680      1026
21.700      1096
21.720      1080
21.740      1000
21.760      1153
21.780      1126
21.800      1060
21.820      1000
21.840      1040
21.860      1016
21.880      1053
21.900      1130
21.920      1106
21.940       973
21.960      1016
21.980      1010
22.000      1103
22.020       950
22.040      1030
22.060       990
22.080      1043
22.100      1060
22.120       953
22.140      1076
22.160      1053
22.180      1053
22.200       953
22.220      1070
22.240      1073
22.260      1043
22.280       966
22.300       970
22.320      1006
22.340      1053
22.360      1013
22.380      1093
22.400       966
22.420      1040
22.440      1133
22.460      1083
22.480      1153
22.500      1046
22.520       996
22.540       963
22.560      1066
22.580      1010
22.600      1066
22.620      1063
22.640      1023
22.660      1053
22.680      1083
22.700       880
22.720      1043
22.740       943
22.760      1120
22.780       946
22.800       953
22.820      1010
22.840       950
22.860       903
22.880       853
22.900       976
22.920       873
22.940       960
22.960       933
22.980       903
23.000       900
23.020       936
23.040       843
23.060       936
23.080       833
23.100       946
23.120       873
23.140       923
23.160       840
23.180       896
23.200       960
23.220       853
23.240       980
23.260       933
23.280       880
23.300       936
23.320       870
23.340       883
23.360       900
23.380       863
23.400       880
23.420       856
23.440       766
23.460       910
23.480       836
23.500       853
23.520       850
23.540       863
23.560       886
23.580       870
23.600       823
23.620      1000
23.640       890
23.660       800
23.680       826
23.700       923
23.720       900
23.740       746
23.760       740
23.780       816
23.800       836
23.820       853
23.840       780
23.860       920
23.880       866
23.900       886
23.920       896
23.940       893
23.960       780
23.980       753
24.000       793
24.020       823
24.040       863
24.060       800
24.080       853
24.100       783
24.120       750
24.140       880
24.160       743
24.180       820
24.200       793
24.220       736
24.240       836
24.260       746
24.280       836
24.300       766
24.320       793
24.340       753
24.360       773
24.380       833
24.400       783
24.420       693
24.440       743
24.460       766
24.480       816
24.500       726
24.520       730
24.540       860
24.560       710
24.580       720
24.600       693
24.620       863
24.640       800
24.660       740
24.680       673
24.700       750
24.720       756
24.740       713
24.760       780
24.780       820
24.800       690
24.820       653
24.840       640
24.860       710
24.880       736
24.900       703
24.920       736
24.940       693
24.960       770
24.980       620
25.000       713
25.020       650
25.040       686
25.060       653
25.080       593
25.100       653
25.120       593
25.140       660
25.160       546
25.180       676
25.200       743
25.220       560
25.240       646
25.260       696
25.280       630
25.300       643
25.320       603
25.340       580
25.360       656
25.380       623
25.400       673
25.420       616
25.440       556
25.460       590
25.480       636
25.500       576
25.520       613
25.540       533
25.560       580
25.580       596
25.600       593
25.620       586
25.640       503
25.660       483
25.680       503
25.700       486
25.720       460
25.740       473
25.760       490
25.780       413
25.800       446
25.820       377
25.840       500
25.860       460
25.880       443
25.900       460
25.920       453
25.940       443
25.960       403
25.980       433
26.000       460
26.020       363
26.040       410
26.060       377
26.080       426
26.100       400
26.120       367
26.140       426
26.160       440
26.180       383
26.200       403
26.220       436
26.240       423
26.260       446
26.280       426
26.300       383
26.320       430
26.340       370
26.360       440
26.380       400
26.400       420
26.420       367
26.440       340
26.460       403
26.480       410
26.500       380
26.520       380
26.540       453
26.560       413
26.580       383
26.600       400
26.620       417
26.640       387
26.660       417
26.680       363
26.700       370
26.720       370
26.740       370
26.760       420
26.780       373
26.800       310
26.820       333
26.840       393
26.860       373
26.880       387
26.900       350
26.920       367
26.940       397
26.960       323
26.980       373
27.000       333
27.020       323
27.040       357
27.060       377
27.080       350
27.100       360
27.120       373
27.140       390
27.160       357
27.180       337
27.200       323
27.220       397
27.240       307
27.260       363
27.280       307
27.300       367
27.320       373
27.340       280
27.360       323
27.380       290
27.400       257
27.420       373
27.440       363
27.460       310
27.480       360
27.500       293
27.520       380
27.540       327
27.560       297
27.580       373
27.600       327
27.620       263
27.640       273
27.660       277
27.680       350
27.700       330
27.720       320
27.740       340
27.760       283
27.780       367
27.800       303
27.820       303
27.840       313
27.860       257
27.880       323
27.900       327
27.920       343
27.940       290
27.960       277
27.980       257
28.000       290
28.020       260
28.040       297
28.060       280
28.080       313
28.100       247
28.120       327
28.140       337
28.160       260
28.180       353
28.200       310
28.220       260
28.240       270
28.260       290
28.280       280
28.300       253
28.320       287
28.340       287
28.360       307
28.380       277
28.400       303
28.420       297
28.440       257
28.460       287
28.480       297
28.500       280
28.520       263
28.540       257
28.560       227
28.580       280
28.600       283
28.620       250
28.640       337
28.660       283
28.680       293
28.700       293
28.720       303
28.740       230
28.760       263
28.780       270
28.800       297
28.820       270
28.840       257
28.860       303
28.880       313
28.900       210
28.920       267
28.940       273
28.960       280
28.980       290
29.000       283
29.020       337
29.040       327
29.060       307
29.080       400
29.100       363
29.120       357
29.140       423
29.160       423
29.180       450
29.200       397
29.220       526
29.240       470
29.260       476
29.280       433
29.300       367
29.320       373
29.340       430
29.360       330
29.380       317
29.400       360
29.420       323
29.440       280
29.460       293
29.480       297
29.500       337
29.520       323
29.540       350
29.560       390
29.580       317
29.600       307
29.620       283
29.640       273
29.660       243
29.680       233
29.700       253
29.720       260
29.740       250
29.760       303
29.780       337
29.800       290
29.820       223
29.840       270
29.860       297
29.880       263
29.900       233
29.920       237
29.940       220
29.960       300
29.980       257
30.000       240
30.020       250
30.040       297
30.060       270
30.080       263
30.100       280
30.120       220
30.140       300
30.160       277
30.180       317
30.200       277
30.220       337
30.240       273
30.260       270
30.280       317
30.300       303
30.320       287
30.340       290
30.360       253
30.380       273
30.400       303
30.420       327
30.440       337
30.460       303
30.480       287
30.500       307
30.520       260
30.540       310
30.560       267
30.580       300
30.600       300
30.620       313
30.640       270
30.660       317
30.680       257
30.700       237
30.720       263
30.740       340
30.760       247
30.780       277
30.800       313
30.820       303
30.840       230
30.860       277
30.880       247
30.900       303
30.920       293
30.940       337
30.960       283
30.980       310
31.000       307
31.020       323
31.040       280
31.060       320
31.080       310
31.100       303
31.120       287
31.140       373
31.160       287
31.180       310
31.200       307
31.220       317
31.240       327
31.260       303
31.280       383
31.300       317
31.320       347
31.340       273
31.360       327
31.380       357
31.400       330
31.420       293
31.440       320
31.460       313
31.480       300
31.500       310
31.520       320
31.540       320
31.560       323
31.580       403
31.600       383
31.620       370
31.640       417
31.660       407
31.680       430
31.700       413
31.720       453
31.740       403
31.760       423
31.780       493
31.800       513
31.820       633
31.840       596
31.860       706
31.880       760
31.900       560
31.920       736
31.940       776
31.960       830
31.980       830
32.000       860
32.020       986
32.040      1509
32.060      3109
32.080      6121
32.100      8047
32.120      7870
32.140      5624
32.160      2892
32.180      1523
32.200      1173
32.220      1010
32.240       920
32.260       820
32.280       736
32.300       666
32.320       560
32.340       443
32.360       536
32.380       500
32.400       516
32.420       466
32.440       560
32.460       460
32.480       426
32.500       493
32.520       393
32.540       420
32.560       446
32.580       453
32.600       413
32.620       430
32.640       430
32.660       440
32.680       403
32.700       453
32.720       407
32.740       473
32.760       440
32.780       390
32.800       390
32.820       420
32.840       436
32.860       387
32.880       420
32.900       430
32.920       450
32.940       420
32.960       333
32.980       413
33.000       453
33.020       357
33.040       410
33.060       400
33.080       423
33.100       347
33.120       426
33.140       387
33.160       407
33.180       420
33.200       367
33.220       460
33.240       377
33.260       393
33.280       420
33.300       403
33.320       383
33.340       426
33.360       377
33.380       330
33.400       387
33.420       353
33.440       407
33.460       420
33.480       436
33.500       323
33.520       423
33.540       420
33.560       407
33.580       440
33.600       463
33.620       430
33.640       463
33.660       373
33.680       403
33.700       420
33.720       307
33.740       377
33.760       426
33.780       446
33.800       340
33.820       417
33.840       433
33.860       323
33.880       373
33.900       403
33.920       380
33.940       330
33.960       403
33.980       393
34.000       393
34.020       387
34.040       490
34.060       407
34.080       430
34.100       410
34.120       397
34.140       453
34.160       453
34.180       353
34.200       460
34.220       420
34.240       393
34.260       453
34.280       496
34.300       516
34.320       606
34.340       710
34.360       990
34.380      1523
34.400      2182
34.420      2469
34.440      2832
34.460      2856
34.480      3009
34.500      2935
34.520      2709
34.540      2925
34.560      2836
34.580      3025
34.600      2945
34.620      2886
34.640      2809
34.660      3129
34.680       420
34.700      3062
34.720      3079
34.740      3079
34.760      2999
34.780      2932
34.800      3105
34.820      2902
34.840      2955
34.860      2979
34.880      2975
34.900      3042
34.920      3255
34.940      3132
34.960      3122
34.980      3085
35.000      3135
35.020      3122
35.040      3339
35.060      3389
35.080      3359
35.100      3565
35.120      3695
35.140      3349
35.160      3858
35.180      3712
35.200      3962
35.220      4065
35.240      4538
35.260      4698
35.280      4868
35.300      5434
35.320      6477
35.340      7667
35.360     10009
35.380     12742
35.400     16773
35.420     22838
35.440     30248
35.460     37988
35.480     44589
35.500     48477
35.520     52889
35.540     62505
35.560     88265
35.580    180548
35.600    288085
35.620    285196
35.640    281794
35.660    292820
35.680    277896
35.700    281198
35.720    288125
35.740    283733
35.760    234580
35.780    129948
35.800     66537
35.820     43096
35.840     33893
35.860     28392
35.880     21905
35.900     15947
35.920     10786
35.940      8507
35.960      7284
35.980      6374
36.000      5798
36.020      5471
36.040      5148
36.060      5011
36.080      4651
36.100      4485
36.120      4365
36.140      4412
36.160      3998
36.180      3835
36.200      3665
36.220      3918
36.240      3469
36.260      3649
36.280      3232
36.300      3255
36.320      2979
36.340      3052
36.360      3222
36.380      2949
36.400      2942
36.420      2822
36.440      2999
36.460      2776
36.480      2872
36.500      2829
36.520      2782
36.540      2432
36.560      2502
36.580      2492
36.600      2486
36.620      2626
36.640      2389
36.660      2499
36.680      2522
36.700      2419
36.720      2409
36.740      2389
36.760      2379
36.780      2259
36.800      2456
36.820      2196
36.840      2212
36.860      2409
36.880      2156
36.900      2109
36.920      2073
36.940      2102
36.960      2089
36.980      2086
37.000      2142
37.020      2132
37.040      2116
37.060      2053
37.080      2053
37.100      2109
37.120      2096
37.140      2106
37.160      2019
37.180      2106
37.200      2029
37.220      1889
37.240      2099
37.260      2073
37.280      2026
37.300      1799
37.320      2023
37.340      1889
37.360      1869
37.380      1866
37.400      1953
37.420      1766
37.440      1899
37.460      1883
37.480      1926
37.500      1779
37.520      1919
37.540      1806
37.560      1786
37.580      1886
37.600      1873
37.620      1869
37.640      1856
37.660      1843
37.680      1813
37.700      1839
37.720      1773
37.740      1676
37.760      1709
37.780      1789
37.800      1853
37.820      1619
37.840      1673
37.860      1729
37.880      1666
37.900      1589
37.920      1786
37.940      1746
37.960      1629
37.980      1703
38.000      1789
38.020      1613
38.040      1699
38.060      1629
38.080      1653
38.100      1483
38.120      1596
38.140      1606
38.160      1663
38.180      1679
38.200      1559
38.220      1653
38.240      1543
38.260      1753
38.280      1493
38.300      1626
38.320      1546
38.340      1553
38.360      1433
38.380      1533
38.400      1609
38.420      1609
38.440      1593
38.460      1553
38.480      1636
38.500      1659
38.520      1503
38.540      1563
38.560      1473
38.580      1399
38.600      1326
38.620      1423
38.640      1566
38.660      1516
38.680      1389
38.700      1459
38.720      1356
38.740      1373
38.760      1423
38.780      1419
38.800      1456
38.820      1446
38.840      1289
38.860      1319
38.880      1406
38.900      1363
38.920      1250
38.940      1369
38.960      1476
38.980      1413
39.000      1276
39.020      1473
39.040      1303
39.060      1329
39.080      1213
39.100      1353
39.120      1363
39.140      1446
39.160      1466
39.180      1383
39.200      1339
39.220      1509
39.240      1393
39.260      1473
39.280      1353
39.300      1309
39.320      1363
39.340      1289
39.360      1446
39.380      1233
39.400      1210
39.420      1329
39.440      1269
39.460      1253
39.480      1343
39.500      1240
39.520      1226
39.540      1336
39.560      1240
39.580      1233
39.600      1383
39.620      1120
39.640      1173
39.660      1230
39.680      1200
39.700      1230
39.720      1213
39.740      1203
39.760      1216
39.780      1130
39.800      1250
39.820      1166
39.840      1150
39.860      1213
39.880      1163
39.900      1216
39.920      1220
39.940      1063
39.960      1173
39.980      1263
40.000      1133
40.020      1140
40.040      1100
40.060      1096
40.080      1063
40.100      1156
40.120      1173
40.140      1163
40.160      1103
40.180      1110
40.200      1150
40.220      1016
40.240      1156
40.260      1113
40.280       976
40.300      1023
40.320      1013
40.340      1140
40.360      1053
40.380      1106
40.400      1060
40.420      1046
40.440      1116
40.460      1020
40.480      1033
40.500      1113
40.520      1166
40.540      1013
40.560       950
40.580      1040
40.600      1060
40.620      1056
40.640       986
40.660      1076
40.680      1093
40.700       933
40.720       956
40.740      1120
40.760       963
40.780      1010
40.800      1030
40.820       986
40.840      1120
40.860       996
40.880      1023
40.900      1110
40.920      1000
40.940      1036
40.960      1040
40.980      1010
41.000      1000
41.020      1010
41.040      1036
41.060      1003
41.080       993
41.100       990
41.120      1033
41.140       933
41.160       960
41.180      1106
41.200      1050
41.220       950
41.240       990
41.260       956
41.280       900
41.300      1016
41.320      1046
41.340       960
41.360      1023
41.380       990
41.400       890
41.420       950
41.440       906
41.460      1046
41.480      1010
41.500       960
41.520       960
41.540       910
41.560       910
41.580       926
41.600       860
41.620       913
41.640       980
41.660       983
41.680       903
41.700       853
41.720       936
41.740      1070
41.760       880
41.780       880
41.800       916
41.820       966
41.840       900
41.860       883
41.880       880
41.900       953
41.920       813
41.940       813
41.960       873
41.980       810
42.000       833
42.020       890
42.040      1023
42.060       850
42.080       833
42.100       886
42.120       873
42.140       810
42.160       853
42.180       793
42.200       780
42.220       810
42.240       796
42.260       810
42.280       806
42.300       876
42.320       866
42.340       760
42.360       860
42.380       836
42.400       793
42.420       890
42.440       730
42.460       810
42.480       770
42.500       746
42.520       820
42.540       756
42.560       723
42.580       710
42.600       836
42.620       746
42.640       863
42.660       756
42.680       773
42.700       786
42.720       713
42.740       753
42.760       800
42.780       766
42.800       753
42.820       846
42.840       723
42.860       806
42.880       773
42.900       806
42.920       706
42.940       706
42.960       793
42.980       733
43.000       796
43.020       783
43.040       863
43.060       900
43.080       836
43.100       776
43.120       723
43.140       746
43.160       856
43.180       703
43.200       776
43.220       663
43.240       683
43.260       740
43.280       733
43.300       660
43.320       646
43.340       730
43.360       623
43.380       676
43.400       643
43.420       763
43.440       740
43.460       696
43.480       666
43.500       736
43.520       686
43.540       620
43.560       673
43.580       690
43.600       653
43.620       770
43.640       576
43.660       560
43.680       630
43.700       653
43.720       670
43.740       596
43.760       653
43.780       640
43.800       636
43.820       656
43.840       593
43.860       653
43.880       643
43.900       700
43.920       636
43.940       650
43.960       596
43.980       670
44.000       593
44.020       630
44.040       570
44.060       636
44.080       733
44.100       626
44.120       533
44.140       640
44.160       673
44.180       570
44.200       530
44.220       563
44.240       520
44.260       646
44.280       646
44.300       646
44.320       543
44.340       520
44.360       616
44.380       583
44.400       600
44.420       553
44.440       530
44.460       590
44.480       546
44.500       660
44.520       570
44.540       580
44.560       560
44.580       586
44.600       583
44.620       573
44.640       633
44.660       490
44.680       580
44.700       596
44.720       593
44.740       620
44.760       646
44.780       603
44.800       606
44.820       576
44.840       590
44.860       533
44.880       623
44.900       566
44.920       483
44.940       566
44.960       640
44.980       636
45.000       580
45.020       650
45.040       573
45.060       470
45.080       623
45.100       500
45.120       560
45.140       540
45.160       516
45.180       606
45.200       643
45.220       576
45.240       570
45.260       616
45.280       586
45.300       596
45.320       553
45.340       693
45.360       563
45.380       633
45.400       616
45.420       563
45.440       656
45.460       630
45.480       636
45.500       593
45.520       586
45.540       656
45.560       673
45.580       683
45.600       653
45.620       633
45.640       690
45.660       693
45.680       763
45.700       723
45.720       790
45.740       720
45.760       853
45.780       900
45.800       933
45.820       870
45.840       983
45.860       930
45.880       983
45.900       923
45.920      1056
45.940      1026
45.960      1070
45.980       976
46.000      1063
46.020      1013
46.040       963
46.060       763
46.080       846
46.100       830
46.120       790
46.140       693
46.160       710
46.180       733
46.200       586
46.220       710
46.240       556
46.260       593
46.280       593
46.300       590
46.320       580
46.340       583
46.360       480
46.380       476
46.400       500
46.420       480
46.440       433
46.460       466
46.480       503
46.500       460
46.520       380
46.540       453
46.560       456
46.580       420
46.600       470
46.620       407
46.640       543
46.660       513
46.680       460
46.700       493
46.720       463
46.740       420
46.760       546
46.780       576
46.800       513
46.820       393
46.840       486
46.860       526
46.880       417
46.900       466
46.920       417
46.940       413
46.960       390
46.980       503
47.000       407
47.020       433
47.040       430
47.060       480
47.080       440
47.100       453
47.120       503
47.140       423
47.160       407
47.180       450
47.200       393
47.220       423
47.240       480
47.260       413
47.280       443
47.300       543
47.320       550
47.340       593
47.360       536
47.380       520
47.400       566
47.420       493
47.440       483
47.460       516
47.480       523
47.500       460
47.520       430
47.540       436
47.560       440
47.580       453
47.600       426
47.620       350
47.640       360
47.660       420
47.680       377
47.700       360
47.720       370
47.740       400
47.760       393
47.780       373
47.800       430
47.820       327
47.840       393
47.860       397
47.880       367
47.900       383
47.920       373
47.940       353
47.960       383
47.980       347
48.000       267
48.020       407
48.040       413
48.060       383
48.080       393
48.100       407
48.120       387
48.140       523
48.160       510
48.180       426
48.200       463
48.220       446
48.240       476
48.260       460
48.280       483
48.300       400
48.320       466
48.340       476
48.360       466
48.380       456
48.400       450
48.420       413
48.440       436
48.460       397
48.480       420
48.500       353
48.520       430
48.540       363
48.560       310
48.580       377
48.600       367
48.620       377
48.640       377
48.660       273
48.680       330
48.700       373
48.720       320
48.740       310
48.760       310
48.780       397
48.800       363
48.820       417
48.840       387
48.860       370
48.880       350
48.900       310
48.920       380
48.940       337
48.960       343
48.980       303
49.000       310
49.020       300
49.040       373
49.060       313
49.080       337
49.100       343
49.120       323
49.140       343
49.160       367
49.180       330
49.200       340
49.220       327
49.240       327
49.260       277
49.280       377
49.300       360
49.320       357
49.340       337
49.360       333
49.380       290
49.400       310
49.420       297
49.440       290
49.460       327
49.480       327
49.500       313
49.520       320
49.540       253
49.560       343
49.580       307
49.600       327
49.620       330
49.640       310
49.660       273
49.680       330
49.700       333
49.720       290
49.740       293
49.760       320
49.780       313
49.800       273
49.820       290
49.840       250
49.860       290
49.880       383
49.900       300
49.920       343
49.940       310
49.960       327
49.980       333
50.000       293
50.020       313
50.040       317
50.060       290
50.080       283
50.100       257
50.120       307
50.140       297
50.160       323
50.180       300
50.200       293
50.220       287
50.240       290
50.260       297
50.280       320
50.300       310
50.320       280
50.340       223
50.360       290
50.380       297
50.400       287
50.420       337
50.440       240
50.460       297
50.480       340
50.500       240
50.520       257
50.540       273
50.560       263
50.580       240
50.600       280
50.620       280
50.640       273
50.660       287
50.680       313
50.700       273
50.720       370
50.740       243
50.760       290
50.780       270
50.800       260
50.820       277
50.840       287
50.860       260
50.880       247
50.900       240
50.920       287
50.940       283
50.960       297
50.980       270
51.000       310
51.020       300
51.040       207
51.060       270
51.080       317
51.100       300
51.120       283
51.140       273
51.160       297
51.180       250
51.200       250
51.220       217
51.240       247
51.260       290
51.280       277
51.300       350
51.320       337
51.340       257
51.360       260
51.380       300
51.400       237
51.420       293
51.440       280
51.460       257
51.480       287
51.500       247
51.520       290
51.540       307
51.560       227
51.580       280
51.600       230
51.620       253
51.640       257
51.660       197
51.680       287
51.700       313
51.720       230
51.740       257
51.760       287
51.780       280
51.800       253
51.820       273
51.840       240
51.860       263
51.880       217
51.900       273
51.920       260
51.940       263
51.960       250
51.980       260
52.000       253
52.020       230
52.040       213
52.060       187
52.080       257
52.100       273
52.120       223
52.140       253
52.160       247
52.180       273
52.200       247
52.220       203
52.240       190
52.260       300
52.280       227
52.300       190
52.320       277
52.340       270
52.360       233
52.380       240
52.400       273
52.420       253
52.440       227
52.460       243
52.480       240
52.500       210
52.520       257
52.540       200
52.560       260
52.580       243
52.600       253
52.620       330
52.640       280
52.660       263
52.680       217
52.700       243
52.720       170
52.740       233
52.760       213
52.780       273
52.800       210
52.820       263
52.840       217
52.860       260
52.880       250
52.900       253
52.920       200
52.940       293
52.960       287
52.980       213
53.000       217
53.020       223
53.040       257
53.060       277
53.080       217
53.100       290
53.120       193
53.140       237
53.160       273
53.180       310
53.200       260
53.220       253
53.240       207
53.260       200
53.280       247
53.300       257
53.320       180
53.340       280
53.360       210
53.380       207
53.400       253
53.420       253
53.440       193
53.460       240
53.480       277
53.500       203
53.520       237
53.540       217
53.560       200
53.580       223
53.600       220
53.620       223
53.640       257
53.660       207
53.680       223
53.700       243
53.720       233
53.740       267
53.760       207
53.780       237
53.800       233
53.820       227
53.840       183
53.860       277
53.880       230
53.900       257
53.920       230
53.940       297
53.960       240
53.980       247
54.000       213
54.020       193
54.040       253
54.060       237
54.080       250
54.100       223
54.120       170
54.140       263
54.160       230
54.180       220
54.200       190
54.220       210
54.240       250
54.260       173
54.280       230
54.300       207
54.320       187
54.340       187
54.360       257
54.380       227
54.400       220
54.420       273
54.440       203
54.460       247
54.480       240
54.500       253
54.520       253
54.540       193
54.560       260
54.580       270
54.600       207
54.620       273
54.640       223
54.660       207
54.680       200
54.700       193
54.720       220
54.740       273
54.760       243
54.780       180
54.800       283
54.820       287
54.840       293
54.860       270
54.880       237
54.900       240
54.920       207
54.940       207
54.960       243
54.980       197
55.000       277
55.020       290
55.040       220
55.060       280
55.080       220
55.100       263
55.120       227
55.140       247
55.160       240
55.180       237
55.200       213
55.220       207
55.240       207
55.260       210
55.280       257
55.300       230
55.320       227
55.340       247
55.360       213
55.380       200
55.400       267
55.420       217
55.440       240
55.460       207
55.480       227
55.500       210
55.520       223
55.540       210
55.560       270
55.580       153
55.600       167
55.620       223
55.640       233
55.660       233
55.680       280
55.700       210
55.720       180
55.740       193
55.760       227
55.780       263
55.800       297
55.820       207
55.840       227
55.860       173
55.880       223
55.900       263
55.920       210
55.940       197
55.960       223
55.980       180
56.000       187
56.020       200
56.040       207
56.060       233
56.080       260
56.100       197
56.120       173
56.140       240
56.160       213
56.180       203
56.200       247
56.220       167
56.240       230
56.260       233
56.280       233
56.300       220
56.320       220
56.340       223
56.360       253
56.380       237
56.400       237
56.420       233
56.440       247
56.460       240
56.480       240
56.500       223
56.520       260
56.540       277
56.560       193
56.580       230
56.600       183
56.620       190
56.640       253
56.660       203
56.680       227
56.700       290
56.720       190
56.740       197
56.760       207
56.780       230
56.800       230
56.820       220
56.840       217
56.860       213
56.880       223
56.900       197
56.920       213
56.940       217
56.960       197
56.980       223
57.000       187
57.020       240
57.040       197
57.060       200
57.080       227
57.100       220
57.120       227
57.140       287
57.160       233
57.180       277
57.200       250
57.220       253
57.240       217
57.260       293
57.280       240
57.300       250
57.320       190
57.340       320
57.360       223
57.380       280
57.400       220
57.420       220
57.440       267
57.460       263
57.480       187
57.500       203
57.520       257
57.540       197
57.560       217
57.580       187
57.600       250
57.620       220
57.640       147
57.660       253
57.680       183
57.700       160
57.720       213
57.740       157
57.760       220
57.780       207
57.800       200
57.820       237
57.840       210
57.860       183
57.880       247
57.900       260
57.920       163
57.940       240
57.960       243
57.980       213
58.000       187
58.020       220
58.040       193
58.060       223
58.080       207
58.100       183
58.120       210
58.140       187
58.160       217
58.180       220
58.200       207
58.220       150
58.240       160
58.260       187
58.280       187
58.300       177
58.320       217
58.340       210
58.360       190
58.380       183
58.400       153
58.420       160
58.440       160
58.460       153
58.480       197
58.500       200
58.520       193
58.540       200
58.560       170
58.580       153
58.600       167
58.620       160
58.640       217
58.660       200
58.680       180
58.700       157
58.720       133
58.740       180
58.760       197
58.780       210
58.800       180
58.820       187
58.840       163
58.860       183
58.880       187
58.900       210
58.920       157
58.940       190
58.960       197
58.980       260
59.000       163
59.020       220
59.040       173
59.060       167
59.080       210
59.100       187
59.120       137
59.140       167
59.160       180
59.180       153
59.200       123
59.220       200
59.240       163
59.260       210
59.280       167
59.300       153
59.320       160
59.340       173
59.360       183
59.380       170
59.400       150
59.420       157
59.440       227
59.460       197
59.480       170
59.500       173
59.520       203
59.540       163
59.560       223
59.580       200
59.600       200
59.620       197
59.640       210
59.660       173
59.680       153
59.700       177
59.720       160
59.740       133
59.760       160
59.780       167
59.800        17
59.820         0
59.840         0
59.860         0
59.880         0
59.900         0
59.920         0
59.940         3
59.960         0
59.980         0
60.000         0
