20.000       217
20.020       233
20.040       230
20.060       267
20.080       233
20.100       250
20.120       240
20.140       257
20.160       273
20.180       273
20.200       230
20.220       250
20.240       270
20.260       220
20.280       200
20.300       237
20.320       267
20.340       243
20.360       230
20.380       280
20.400       233
20.420       280
20.440       240
20.460       193
20.480       217
20.500       223
20.520       310
20.540       203
20.560       210
20.580       223
20.600       227
20.620       247
20.640       250
20.660       220
20.680       237
20.700       230
20.720       237
20.740       297
20.760       230
20.780       263
20.800       250
20.820       310
20.840       263
20.860       287
20.880       230
20.900       237
20.920       190
20.940       230
20.960       223
20.980       227
21.000       297
21.020       263
21.040       203
21.060       207
21.080       333
21.100       250
21.120       260
21.140       257
21.160       233
21.180       200
21.200       260
21.220       297
21.240       257
21.260       267
21.280       283
21.300       273
21.320       243
21.340       297
21.360       223
21.380       203
21.400       263
21.420       160
21.440       237
21.460       233
21.480       277
21.500       253
21.520       247
21.540       227
21.560       227
21.580       233
21.600       220
21.620       273
21.640       210
21.660       273
21.680       227
21.700       180
21.720       193
21.740       240
21.760       223
21.780       193
21.800       223
21.820       197
21.840       210
21.860       223
21.880       273
21.900       277
21.920       237
21.940       250
21.960       247
21.980       263
22.000       227
22.020       230
22.040       207
22.060       237
22.080       243
22.100       247
22.120       227
22.140       143
22.160       247
22.180       227
22.200       253
22.220       207
22.240       203
22.260       220
22.280       257
22.300       240
22.320       277
22.340       183
22.360       210
22.380       203
22.400       207
22.420       233
22.440       257
22.460       217
22.480       243
22.500       297
22.520       217
22.540       250
22.560       267
22.580       210
22.600       273
22.620       260
22.640       250
22.660       210
22.680       240
22.700       253
22.720       217
22.740       253
22.760       300
22.780       283
22.800       307
22.820       220
22.840       257
22.860       247
22.880       270
22.900       250
22.920       190
22.940       250
22.960       210
22.980       267
23.000       230
23.020       217
23.040       277
23.060       307
23.080       323
23.100       446
23.120       357
23.140       353
23.160       267
23.180       203
23.200       227
23.220       230
23.240       280
23.260       213
23.280       240
23.300       213
23.320       237
23.340       270
23.360       200
23.380       257
23.400       277
23.420       297
23.440       223
23.460       220
23.480       223
23.500       187
23.520       183
23.540       187
23.560       207
23.580       223
23.600       217
23.620       260
23.640       253
23.660       213
23.680       247
23.700       217
23.720       230
23.740       277
23.760       247
23.780       223
23.800       203
23.820       233
23.840       200
23.860       220
23.880       180
23.900       240
23.920       203
23.940       213
23.960       227
23.980       277
24.000       187
24.020       250
24.040       233
24.060       207
24.080       260
24.100       193
24.120       187
24.140       237
24.160       193
24.180       150
24.200       203
24.220       260
24.240       263
24.260       250
24.280       187
24.300       223
24.320       257
24.340       257
24.360       230
24.380       213
24.400       247
24.420       253
24.440       247
24.460       250
24.480       243
24.500       200
24.520       300
24.540       237
24.560       263
24.580       290
24.600       320
24.620       237
24.640       353
24.660       280
24.680       293
24.700       257
24.720       370
24.740       337
24.760       350
24.780       337
24.800       337
24.820       380
24.840       317
24.860       310
24.880       283
24.900       300
24.920       233
24.940       293
24.960       320
24.980       260
25.000       253
25.020       313
25.040       237
25.060       247
25.080       320
25.100       310
25.120       220
25.140       297
25.160       280
25.180       347
25.200       293
25.220       303
25.240       330
25.260       330
25.280       303
25.300       317
25.320       470
25.340       563
25.360       686
25.380       933
25.400      1130
25.420      1316
25.440      1333
25.460      1453
25.480      1343
25.500      1399
25.520      1689
25.540      2043
25.560      3109
25.580      5731
25.600      9639
25.620     13225
25.640     11202
25.660      6491
25.680      6317
25.700      5891
25.720      2276
25.740       846
25.760       540
25.780       483
25.800       383
25.820       350
25.840       313
25.860       337
25.880       237
25.900       277
25.920       320
25.940       253
25.960       260
25.980       293
26.000       220
26.020       237
26.040       257
26.060       253
26.080       257
26.100       293
26.120       253
26.140       203
26.160       233
26.180       220
26.200       240
26.220       270
26.240       273
26.260       227
26.280       243
26.300       197
26.320       237
26.340       243
26.360       243
26.380       177
26.400       253
26.420       223
26.440       250
26.460       223
26.480       237
26.500       197
26.520       200
26.540       210
26.560       220
26.580       203
26.600       163
26.620       233
26.640       160
26.660       183
26.680       183
26.700       233
26.720       227
26.740       153
26.760       203
26.780       193
26.800       163
26.820       210
26.840       183
26.860       210
26.880       200
26.900       213
26.920       207
26.940       220
26.960       183
26.980       197
27.000       197
27.020       200
27.040       183
27.060       177
27.080       137
27.100       120
27.120       213
27.140       203
27.160       157
27.180       207
27.200       197
27.220       213
27.240       167
27.260       113
27.280       193
27.300       170
27.320       180
27.340       190
27.360       173
27.380       147
27.400       167
27.420       170
27.440       153
27.460       173
27.480       203
27.500       140
27.520       173
27.540       167
27.560       173
27.580       120
27.600       230
27.620       137
27.640       207
27.660       163
27.680       180
27.700       190
27.720       140
27.740       167
27.760       177
27.780       197
27.800       153
27.820       163
27.840       150
27.860       147
27.880       193
27.900       117
27.920       157
27.940       173
27.960       150
27.980       157
28.000       163
28.020       163
28.040       153
28.060       147
28.080       157
28.100       153
28.120       183
28.140       170
28.160       150
28.180       157
28.200       143
28.220       137
28.240       207
28.260       170
28.280       167
28.300       157
28.320       163
28.340       177
28.360       173
28.380       153
28.400       160
28.420       123
28.440       147
28.460       163
28.480       143
28.500       200
28.520       150
28.540       123
28.560       170
28.580       173
28.600       133
28.620       203
28.640       197
28.660       150
28.680       213
28.700       160
28.720       163
28.740       160
28.760       160
28.780       167
28.800       183
28.820       143
28.840       170
28.860       143
28.880       163
28.900       187
28.920       207
28.940       163
28.960       153
28.980       197
29.000       183
29.020       207
29.040       343
29.060       227
29.080       233
29.100       317
29.120       290
29.140       310
29.160       370
29.180       450
29.200       390
29.220       410
29.240       393
29.260       423
29.280       357
29.300       360
29.320       390
29.340       220
29.360       267
29.380       223
29.400       153
29.420       170
29.440       160
29.460       140
29.480       123
29.500       137
29.520       167
29.540        97
29.560       167
29.580       137
29.600       143
29.620       150
29.640       157
29.660       117
29.680       117
29.700       113
29.720       120
29.740       117
29.760       130
29.780       107
29.800       123
29.820       153
29.840       193
29.860       203
29.880       137
29.900       137
29.920       137
29.940       133
29.960       153
29.980       153
30.000       140
30.020       123
30.040        97
30.060       153
30.080        87
30.100       137
30.120       130
30.140       123
30.160       133
30.180       130
30.200       133
30.220       120
30.240       117
30.260       167
30.280       133
30.300       150
30.320       140
30.340       130
30.360       133
30.380       113
30.400       137
30.420       137
30.440       133
30.460       113
30.480       123
30.500       123
30.520       127
30.540       127
30.560       130
30.580       117
30.600       127
30.620       170
30.640       107
30.660       110
30.680       107
30.700       127
30.720       100
30.740       143
30.760       110
30.780       130
30.800       127
30.820       157
30.840        90
30.860       120
30.880       133
30.900       160
30.920       117
30.940       137
30.960       123
30.980       110
31.000        93
31.020       147
31.040       133
31.060       160
31.080       130
31.100       153
31.120       157
31.140       117
31.160       120
31.180       163
31.200       133
31.220       183
31.240       117
31.260       160
31.280       157
31.300       130
31.320       133
31.340       113
31.360       160
31.380       160
31.400       140
31.420       133
31.440       130
31.460       160
31.480       147
31.500       133
31.520       130
31.540       170
31.560       203
31.580       170
31.600       190
31.620       200
31.640       200
31.660       167
31.680       233
31.700       187
31.720       187
31.740       233
31.760       277
31.780       283
31.800       270
31.820       230
31.840       260
31.860       243
31.880       227
31.900       210
31.920       240
31.940       180
31.960       150
31.980       157
32.000       180
32.020       153
32.040       177
32.060       143
32.080       150
32.100       117
32.120       137
32.140       130
32.160       160
32.180       143
32.200       137
32.220       140
32.240       110
32.260       140
32.280       117
32.300        87
32.320       113
32.340       117
32.360       117
32.380       143
32.400       133
32.420       130
32.440       130
32.460       100
32.480       110
32.500        97
32.520       100
32.540        97
32.560       107
32.580       130
32.600       110
32.620       123
32.640        77
32.660       137
32.680       130
32.700        87
32.720       107
32.740        93
32.760       123
32.780       110
32.800       107
32.820       113
32.840       117
32.860       113
32.880       107
32.900        87
32.920        87
32.940       107
32.960       130
32.980       107
33.000        97
33.020       117
33.040       120
33.060        73
33.080       123
33.100        77
33.120       123
33.140       117
33.160        97
33.180        90
33.200       103
33.220       110
33.240        93
33.260        97
33.280       130
33.300       123
33.320       127
33.340       117
33.360        67
33.380        93
33.400        97
33.420       113
33.440       117
33.460        67
33.480       120
33.500        97
33.520       100
33.540       123
33.560        50
33.580       100
33.600        90
33.620       120
33.640        83
33.660       100
33.680       103
33.700        97
33.720       113
33.740        77
33.760        73
33.780        90
33.800       103
33.820       100
33.840       150
33.860       117
33.880        80
33.900        80
33.920       117
33.940       103
33.960       110
33.980       100
34.000       110
34.020        90
34.040        93
34.060        60
34.080        73
34.100       107
34.120       117
34.140       130
34.160       110
34.180        97
34.200       113
34.220        90
34.240       103
34.260       100
34.280        93
34.300       113
34.320       100
34.340       107
34.360       123
34.380       120
34.400        67
34.420        67
34.440       100
34.460        67
34.480       100
34.500       110
34.520       117
34.540        77
34.560        93
34.580       140
34.600        77
34.620        90
34.640       100
34.660        87
34.680       137
34.700       120
34.720        87
34.740       137
34.760       123
34.780        73
34.800       103
34.820       100
34.840       107
34.860       120
34.880       103
34.900       133
34.920       103
34.940       133
34.960       100
34.980       120
35.000       123
35.020       117
35.040        90
35.060        87
35.080        87
35.100       103
35.120       123
35.140       107
35.160       120
35.180        93
35.200       107
35.220        87
35.240        93
35.260       150
35.280       107
35.300       133
35.320       130
35.340       117
35.360       127
35.380        97
35.400        90
35.420       117
35.440       113
35.460        63
35.480        77
35.500        93
35.520        70
35.540        83
35.560        77
35.580        97
35.600       120
35.620       117
35.640       110
35.660       113
35.680       147
35.700       103
35.720       123
35.740       130
35.760       190
35.780       123
35.800       140
35.820       187
35.840       173
35.860       140
35.880       160
35.900       140
35.920        97
35.940       127
35.960       133
35.980       137
36.000       110
36.020       127
36.040       123
36.060        83
36.080        67
36.100        77
36.120        87
36.140       103
36.160        87
36.180        93
36.200        90
36.220        73
36.240        97
36.260        80
36.280        80
36.300       120
36.320        63
36.340        80
36.360        97
36.380        93
36.400       107
36.420       120
36.440        80
36.460        97
36.480        87
36.500        73
36.520        80
36.540        97
36.560        80
36.580        87
36.600        60
36.620        87
36.640        77
36.660       100
36.680        80
36.700       100
36.720        93
36.740       100
36.760        90
36.780        57
36.800        73
36.820        87
36.840        97
36.860        57
36.880       103
36.900        87
36.920        97
36.940        63
36.960        77
36.980        90
37.000        57
37.020       107
37.040        77
37.060       120
37.080        90
37.100       107
37.120        80
37.140        80
37.160       113
37.180        83
37.200       133
37.220       113
37.240       100
37.260        97
37.280        80
37.300       100
37.320       113
37.340        73
37.360        67
37.380       120
37.400        90
37.420       113
37.440       143
37.460        77
37.480        73
37.500       103
37.520        87
37.540       130
37.560       107
37.580       163
37.600       123
37.620        90
37.640       107
37.660        90
37.680        73
37.700       103
37.720        87
37.740        80
37.760       133
37.780       113
37.800       113
37.820        87
37.840        90
37.860       100
37.880        93
37.900       107
37.920        97
37.940        87
37.960        87
37.980       103
38.000       110
38.020        87
38.040       120
38.060       120
38.080       113
38.100       113
38.120        93
38.140        93
38.160       100
38.180       137
38.200       133
38.220       117
38.240       133
38.260       143
38.280       140
38.300        90
38.320        73
38.340       110
38.360       117
38.380       117
38.400       133
38.420       127
38.440       130
38.460       117
38.480        93
38.500       113
38.520       113
38.540       103
38.560        83
38.580        80
38.600        73
38.620       130
38.640        83
38.660        93
38.680       143
38.700        97
38.720       130
38.740       113
38.760        93
38.780       100
38.800       103
38.820       120
38.840        87
38.860        93
38.880       100
38.900       123
38.920       157
38.940       103
38.960       117
38.980       170
39.000       140
39.020       133
39.040       180
39.060       150
39.080       130
39.100       170
39.120       153
39.140       153
39.160       107
39.180       203
39.200       207
39.220       240
39.240       213
39.260       220
39.280       200
39.300       190
39.320       203
39.340       197
39.360       167
39.380       207
39.400       170
39.420       140
39.440       167
39.460       110
39.480       123
39.500       120
39.520        73
39.540       113
39.560       143
39.580       117
39.600       113
39.620       103
39.640       110
39.660       123
39.680       120
39.700       117
39.720       110
39.740        77
39.760       113
39.780        83
39.800        73
39.820        97
39.840       113
39.860        77
39.880        90
39.900        97
39.920       123
39.940        80
39.960       117
39.980        87
40.000       100
40.020       113
40.040       113
40.060       110
40.080       120
40.100       120
40.120        93
40.140       100
40.160       107
40.180       107
40.200        97
40.220       137
40.240       120
40.260        97
40.280        97
40.300       140
40.320        93
40.340        87
40.360        77
40.380       110
40.400       117
40.420        90
40.440       103
40.460       130
40.480       127
40.500        90
40.520       120
40.540       107
40.560       107
40.580       127
40.600       103
40.620        97
40.640       103
40.660        93
40.680       113
40.700       147
40.720       137
40.740       110
40.760       103
40.780       120
40.800        83
40.820       110
40.840        97
40.860        77
40.880       120
40.900        83
40.920       103
40.940       127
40.960       123
40.980       100
41.000       133
41.020       133
41.040       117
41.060       103
41.080       120
41.100       127
41.120       127
41.140       140
41.160       130
41.180       117
41.200       140
41.220       100
41.240       103
41.260       103
41.280       120
41.300        77
41.320       150
41.340       130
41.360       133
41.380       130
41.400       113
41.420       113
41.440       123
41.460       103
41.480       107
41.500       117
41.520       113
41.540       120
41.560       107
41.580       133
41.600       127
41.620       157
41.640       120
41.660       107
41.680       143
41.700       123
41.720       120
41.740        97
41.760       120
41.780       160
41.800       107
41.820       117
41.840       123
41.860       137
41.880       123
41.900       127
41.920       107
41.940       173
41.960       130
41.980       103
42.000       130
42.020       150
42.040       133
42.060       137
42.080       140
42.100       130
42.120       137
42.140       133
42.160       133
42.180       123
42.200       100
42.220       137
42.240       137
42.260       163
42.280       120
42.300        83
42.320       110
42.340       120
42.360       123
42.380       107
42.400        93
42.420        67
42.440       133
42.460       123
42.480       103
42.500       107
42.520       153
42.540       153
42.560       100
42.580       130
42.600       133
42.620       110
42.640       143
42.660       117
42.680       130
42.700       147
42.720        93
42.740       147
42.760       130
42.780       167
42.800       157
42.820       143
42.840       157
42.860       150
42.880       170
42.900       217
42.920       193
42.940       187
42.960       193
42.980       227
43.000       227
43.020       237
43.040       237
43.060       180
43.080       253
43.100       237
43.120       180
43.140       160
43.160       163
43.180       153
43.200       143
43.220       117
43.240       127
43.260       133
43.280       150
43.300       137
43.320       110
43.340       153
43.360       120
43.380       167
43.400       107
43.420       133
43.440       103
43.460        97
43.480       120
43.500       163
43.520        97
43.540       110
43.560       157
43.580       107
43.600       130
43.620       120
43.640       143
43.660       127
43.680       123
43.700       110
43.720       113
43.740       127
43.760       103
43.780       123
43.800       127
43.820       147
43.840        90
43.860       153
43.880       143
43.900       123
43.920       117
43.940       143
43.960       130
43.980       123
44.000       167
44.020       157
44.040       127
44.060       123
44.080       120
44.100       130
44.120       120
44.140        87
44.160       147
44.180       140
44.200       127
44.220        80
44.240        97
44.260       143
44.280       157
44.300        97
44.320        90
44.340       143
44.360        97
44.380       127
44.400       137
44.420       100
44.440       127
44.460       113
44.480       157
44.500       150
44.520        90
44.540       107
44.560       137
44.580       143
44.600       113
44.620       127
44.640       103
44.660       110
44.680       113
44.700       130
44.720       137
44.740       167
44.760       153
44.780       137
44.800       127
44.820       133
44.840       123
44.860       130
44.880       107
44.900       123
44.920       193
44.940       127
44.960       170
44.980       150
45.000       120
45.020       117
45.040       147
45.060       153
45.080       140
45.100       133
45.120       153
45.140       113
45.160       153
45.180       150
45.200       133
45.220        97
45.240       137
45.260       163
45.280       150
45.300       140
45.320       153
45.340       170
45.360       137
45.380       137
45.400       137
45.420       163
45.440       180
45.460       157
45.480       157
45.500       187
45.520       140
45.540       130
45.560       147
45.580       153
45.600       117
45.620       190
45.640       137
45.660       137
45.680       140
45.700       167
45.720       140
45.740       163
45.760       143
45.780       173
45.800       150
45.820       150
45.840       160
45.860       163
45.880       147
45.900       140
45.920       163
45.940       120
45.960       157
45.980       183
46.000       133
46.020       133
46.040       143
46.060       163
46.080       100
46.100       153
46.120       133
46.140        87
46.160       150
46.180       133
46.200       137
46.220       137
46.240       103
46.260       103
46.280       130
46.300       137
46.320       120
46.340       133
46.360       143
46.380       150
46.400       143
46.420       133
46.440       133
46.460       147
46.480       147
46.500       150
46.520       167
46.540       153
46.560       200
46.580       177
46.600       150
46.620       160
46.640       160
46.660       147
46.680       177
46.700       143
46.720       160
46.740       133
46.760       230
46.780       240
46.800       197
46.820       233
46.840       187
46.860       223
46.880       273
46.900       297
46.920       210
46.940       220
46.960       250
46.980       283
47.000       240
47.020       273
47.040       290
47.060       290
47.080       397
47.100       466
47.120       756
47.140      1273
47.160      1873
47.180      2579
47.200      2589
47.220      2162
47.240      1296
47.260       776
47.280       560
47.300       486
47.320       397
47.340       380
47.360       357
47.380       377
47.400       310
47.420       333
47.440       313
47.460       280
47.480       237
47.500       240
47.520       193
47.540       237
47.560       203
47.580       177
47.600       187
47.620       223
47.640       163
47.660       170
47.680       160
47.700       143
47.720       127
47.740       150
47.760       137
47.780       137
47.800       183
47.820       157
47.840       153
47.860       137
47.880       180
47.900       143
47.920       157
47.940       180
47.960       130
47.980       183
48.000       133
48.020       127
48.040       127
48.060       213
48.080       207
48.100       160
48.120       160
48.140       187
48.160       203
48.180       163
48.200       240
48.220       190
48.240       213
48.260       280
48.280       290
48.300       197
48.320       223
48.340       300
48.360       273
48.380       313
48.400       230
48.420       220
48.440       200
48.460       290
48.480       213
48.500       193
48.520       213
48.540       157
48.560       177
48.580       133
48.600       167
48.620       170
48.640       143
48.660       147
48.680       103
48.700       107
48.720       163
48.740       167
48.760       190
48.780       157
48.800       150
48.820       107
48.840       150
48.860       137
48.880       120
48.900       157
48.920       100
48.940       153
48.960       117
48.980       133
49.000       140
49.020       150
49.040       173
49.060       110
49.080        93
49.100       137
49.120       147
49.140       130
49.160       120
49.180       163
49.200       143
49.220        93
49.240       153
49.260       183
49.280       133
49.300       113
49.320       123
49.340       140
49.360       153
49.380       120
49.400       133
49.420       143
49.440       117
49.460       123
49.480       137
49.500       143
49.520        87
49.540       143
49.560       127
49.580       127
49.600       120
49.620       137
49.640        97
49.660       130
49.680       143
49.700       117
49.720       103
49.740        93
49.760       117
49.780       127
49.800       120
49.820       123
49.840       140
49.860       110
49.880       110
49.900       117
49.920       130
49.940       150
49.960       163
49.980       130
50.000       120
50.020       137
50.040       143
50.060       103
50.080       130
50.100       137
50.120       143
50.140       130
50.160       100
50.180       110
50.200       110
50.220        97
50.240       120
50.260       120
50.280       140
50.300       123
50.320        90
50.340       163
50.360       117
50.380       137
50.400       143
50.420       123
50.440       127
50.460       127
50.480       143
50.500       137
50.520       127
50.540       120
50.560       130
50.580       173
50.600       153
50.620       200
50.640       270
50.660       383
50.680       483
50.700       563
50.720       533
50.740       553
50.760       616
50.780       636
50.800       593
50.820       623
50.840       623
50.860       516
50.880       573
50.900       583
50.920       566
50.940       556
50.960       523
50.980       576
51.000       553
51.020       586
51.040       626
51.060       543
51.080       576
51.100       540
51.120       606
51.140       616
51.160       556
51.180       516
51.200       496
51.220       563
51.240       523
51.260       646
51.280       550
51.300       550
51.320       556
51.340       593
51.360       600
51.380       563
51.400       640
51.420       623
51.440       640
51.460       543
51.480       546
51.500       613
51.520       560
51.540       643
51.560       530
51.580       543
51.600       576
51.620       660
51.640       606
51.660       623
51.680       630
51.700       616
51.720       693
51.740       656
51.760       643
51.780       653
51.800       596
51.820       640
51.840       680
51.860       680
51.880       673
51.900       763
51.920       666
51.940       720
51.960       713
51.980       640
52.000       826
52.020       763
52.040       800
52.060       790
52.080       830
52.100       903
52.120       933
52.140       986
52.160      1170
52.180      1100
52.200      1193
52.220      1359
52.240      1689
52.260      1973
52.280      2366
52.300      3059
52.320      3822
52.340      4452
52.360      5395
52.380      6524
52.400      8000
52.420      9609
52.440     11632
52.460     14114
52.480     18063
52.500     26703
52.520     48517
52.540     98517
52.560    161186
52.580    193979
52.600    186429
52.620    135309
52.640     72878
52.660     49843
52.680     66587
52.700     98001
52.720    114824
52.740    108976
52.760     75037
52.780     36259
52.800     17093
52.820     10472
52.840      8053
52.860      6627
52.880      4968
52.900      3459
52.920      2702
52.940      2266
52.960      2106
52.980      1786
53.000      1589
53.020      1473
53.040      1453
53.060      1116
53.080      1133
53.100      1020
53.120      1106
53.140      1023
53.160       980
53.180       940
53.200       913
53.220       746
53.240       900
53.260       720
53.280       796
53.300       790
53.320       756
53.340       773
53.360       696
53.380       730
53.400       713
53.420       803
53.440       633
53.460       640
53.480       616
53.500       523
53.520       583
53.540       470
53.560       583
53.580       563
53.600       573
53.620       556
53.640       546
53.660       600
53.680       530
53.700       523
53.720       383
53.740       456
53.760       443
53.780       493
53.800       533
53.820       466
53.840       403
53.860       370
53.880       433
53.900       430
53.920       430
53.940       380
53.960       446
53.980       466
54.000       483
54.020       423
54.040       373
54.060       470
54.080       430
54.100       413
54.120       407
54.140       420
54.160       490
54.180       410
54.200       417
54.220       403
54.240       390
54.260       483
54.280       343
54.300       380
54.320       323
54.340       360
54.360       413
54.380       380
54.400       337
54.420       390
54.440       340
54.460       393
54.480       393
54.500       390
54.520       400
54.540       367
54.560       403
54.580       443
54.600       420
54.620       400
54.640       340
54.660       393
54.680       367
54.700       363
54.720       400
54.740       320
54.760       320
54.780       410
54.800       363
54.820       353
54.840       373
54.860       377
54.880       340
54.900       370
54.920       446
54.940       343
54.960       353
54.980       403
55.000       347
55.020       400
55.040       417
55.060       413
55.080       363
55.100       333
55.120       373
55.140       360
55.160       323
55.180       327
55.200       350
55.220       363
55.240       317
55.260       407
55.280       337
55.300       327
55.320       277
55.340       383
55.360       367
55.380       250
55.400       367
55.420       340
55.440       317
55.460       273
55.480       297
55.500       343
55.520       340
55.540       240
55.560       343
55.580       343
55.600       320
55.620       283
55.640       330
55.660       333
55.680       303
55.700       330
55.720       293
55.740       357
55.760       243
55.780       333
55.800       293
55.820       280
55.840       343
55.860       303
55.880       240
55.900       253
55.920       280
55.940       237
55.960       307
55.980       273
56.000       283
56.020       247
56.040       343
56.060       263
56.080       260
56.100       270
56.120       280
56.140       260
56.160       227
56.180       333
56.200       350
56.220       243
56.240       260
56.260       263
56.280       220
56.300       250
56.320       330
56.340       297
56.360       327
56.380       330
56.400       370
56.420       290
56.440       330
56.460       283
56.480       293
56.500       357
56.520       303
56.540       363
56.560       337
56.580       230
56.600       343
56.620       313
56.640       303
56.660       320
56.680       327
56.700       287
56.720       293
56.740       267
56.760       283
56.780       290
56.800       267
56.820       313
56.840       300
56.860       317
56.880       240
56.900       260
56.920       320
56.940       277
56.960       277
56.980       277
57.000       343
57.020       257
57.040       290
57.060       317
57.080       280
57.100       360
57.120       347
57.140       390
57.160       300
57.180       307
57.200       377
57.220       330
57.240       340
57.260       360
57.280       277
57.300       330
57.320       330
57.340       310
57.360       280
57.380       367
57.400       267
57.420       310
57.440       337
57.460       297
57.480       310
57.500       210
57.520       340
57.540       210
57.560       257
57.580       230
57.600       243
57.620       253
57.640       220
57.660       257
57.680       227
57.700       240
57.720       243
57.740       237
57.760       220
57.780       283
57.800       250
57.820       200
57.840       247
57.860       207
57.880       253
57.900       243
57.920       227
57.940       250
57.960       257
57.980       240
58.000       253
58.020       217
58.040       220
58.060       197
58.080       217
58.100       210
58.120       227
58.140       270
58.160       240
58.180       217
58.200       283
58.220       227
58.240       220
58.260       207
58.280       200
58.300       223
58.320       240
58.340       210
58.360       180
58.380       220
58.400       240
58.420       233
58.440       253
58.460       243
58.480       177
58.500       193
58.520       257
58.540       193
58.560       220
58.580       193
58.600       163
58.620       200
58.640       217
58.660       230
58.680       160
58.700       187
58.720       180
58.740       250
58.760       230
58.780       217
58.800       190
58.820       223
58.840       143
58.860       223
58.880       133
58.900       203
58.920       233
58.940       193
58.960       173
58.980       227
59.000       177
59.020       163
59.040       177
59.060       260
59.080       200
59.100       240
59.120       223
59.140       207
59.160       237
59.180       207
59.200       190
59.220       207
59.240       227
59.260       157
59.280       187
59.300       177
59.320       160
59.340       257
59.360       213
59.380       150
59.400       233
59.420       173
59.440       180
59.460       197
59.480       173
59.500       207
59.520       220
59.540       190
59.560       210
59.580       240
59.600       203
59.620       227
59.640       207
59.660       170
59.680       200
59.700       227
59.720       240
59.740       213
59.760       213
59.780       193
59.800       163
59.820         0
59.840         0
59.860         0
59.880         0
59.900         0
59.920         0
59.940         0
59.960         0
59.980         0
60.000         0
