20.000         0
20.020         0
20.040         0
20.060         0
20.080         0
20.100         3
20.120         3
20.140         0
20.160         0
20.180         0
20.200         0
20.220         0
20.240         0
20.260       173
20.280       247
20.300       273
20.320       263
20.340       187
20.360       230
20.380       280
20.400       300
20.420       287
20.440       233
20.460       293
20.480       310
20.500       267
20.520       317
20.540       227
20.560       313
20.580       290
20.600       267
20.620       273
20.640       293
20.660       277
20.680       200
20.700       307
20.720       297
20.740       290
20.760       333
20.780       260
20.800       240
20.820       300
20.840       240
20.860       283
20.880       243
20.900       293
20.920       240
20.940       293
20.960       247
20.980       230
21.000       213
21.020       253
21.040       210
21.060       270
21.080       260
21.100       283
21.120       240
21.140       223
21.160       230
21.180       230
21.200       250
21.220       277
21.240       307
21.260       267
21.280       223
21.300       217
21.320       243
21.340       203
21.360       220
21.380       290
21.400       290
21.420       287
21.440       243
21.460       213
21.480       260
21.500       243
21.520       197
21.540       250
21.560       330
21.580       210
21.600       263
21.620       247
21.640       270
21.660       227
21.680       220
21.700       313
21.720       200
21.740       210
21.760       230
21.780       187
21.800       217
21.820       243
21.840       250
21.860       237
21.880       243
21.900       197
21.920       180
21.940       253
21.960       217
21.980       207
22.000       183
22.020       247
22.040       280
22.060       247
22.080       193
22.100       297
22.120       230
22.140       230
22.160       217
22.180       243
22.200       207
22.220       243
22.240       243
22.260       217
22.280       223
22.300       200
22.320       240
22.340       243
22.360       193
22.380       227
22.400       210
22.420       233
22.440       210
22.460       233
22.480       230
22.500       220
22.520       280
22.540       237
22.560       180
22.580       220
22.600       217
22.620       200
22.640       187
22.660       213
22.680       190
22.700       243
22.720       267
22.740       170
22.760       223
22.780       200
22.800       267
22.820       227
22.840       200
22.860       237
22.880       157
22.900       197
22.920       183
22.940       237
22.960       200
22.980       223
23.000       203
23.020       170
23.040       167
23.060       203
23.080       233
23.100       223
23.120       203
23.140       243
23.160       193
23.180       223
23.200       197
23.220       200
23.240       160
23.260       207
23.280       153
23.300       213
23.320       233
23.340       147
23.360       237
23.380       257
23.400       223
23.420       233
23.440       217
23.460       287
23.480       233
23.500       260
23.520       280
23.540       237
23.560       273
23.580       343
23.600       297
23.620       230
23.640       250
23.660       243
23.680       153
23.700       200
23.720       250
23.740       243
23.760       190
23.780       240
23.800       197
23.820       190
23.840       193
23.860       193
23.880       183
23.900       167
23.920       203
23.940       230
23.960       183
23.980       193
24.000       217
24.020       180
24.040       157
24.060       200
24.080       183
24.100       220
24.120       163
24.140       180
24.160       140
24.180       200
24.200       207
24.220       200
24.240       213
24.260       150
24.280       157
24.300       147
24.320       197
24.340       147
24.360       187
24.380       173
24.400       147
24.420       173
24.440       177
24.460       197
24.480       183
24.500       203
24.520       137
24.540       263
24.560       160
24.580       143
24.600       150
24.620       190
24.640       143
24.660       223
24.680       167
24.700       210
24.720       187
24.740       167
24.760       197
24.780       197
24.800       217
24.820       190
24.840       193
24.860       250
24.880       170
24.900       203
24.920       187
24.940       180
24.960       190
24.980       173
25.000       177
25.020       173
25.040       170
25.060       180
25.080       193
25.100       143
25.120       133
25.140       177
25.160       157
25.180       170
25.200       133
25.220       177
25.240       167
25.260       157
25.280       163
25.300       160
25.320       170
25.340       133
25.360       207
25.380       140
25.400       130
25.420       157
25.440       187
25.460       167
25.480       167
25.500       100
25.520       127
25.540       147
25.560       183
25.580       180
25.600       173
25.620       190
25.640       197
25.660       163
25.680       143
25.700       173
25.720       113
25.740       163
25.760       133
25.780       153
25.800       140
25.820       173
25.840       120
25.860       140
25.880       180
25.900       133
25.920       197
25.940       157
25.960       170
25.980       167
26.000       190
26.020       127
26.040       147
26.060       167
26.080       157
26.100       167
26.120       130
26.140       167
26.160       167
26.180       123
26.200       140
26.220       147
26.240       190
26.260       100
26.280       160
26.300       157
26.320       133
26.340       137
26.360       170
26.380       130
26.400       110
26.420       160
26.440       117
26.460       187
26.480       117
26.500       157
26.520       153
26.540       137
26.560       177
26.580       127
26.600       140
26.620       157
26.640       143
26.660       160
26.680       140
26.700       133
26.720       150
26.740       150
26.760       127
26.780       123
26.800       153
26.820       110
26.840       117
26.860       160
26.880       110
26.900       140
26.920       127
26.940       153
26.960       170
26.980        93
27.000       120
27.020       127
27.040       153
27.060       100
27.080       110
27.100       133
27.120       143
27.140       123
27.160       123
27.180       147
27.200       137
27.220       127
27.240       153
27.260       113
27.280       163
27.300       120
27.320       160
27.340       103
27.360       177
27.380        83
27.400       120
27.420        93
27.440       123
27.460        90
27.480       107
27.500       120
27.520        90
27.540       207
27.560       110
27.580       113
27.600        83
27.620       150
27.640       143
27.660       140
27.680       113
27.700       123
27.720        90
27.740       117
27.760       117
27.780       133
27.800        90
27.820       127
27.840       123
27.860       110
27.880       130
27.900       137
27.920       133
27.940       147
27.960       110
27.980       127
28.000       157
28.020       120
28.040       123
28.060       147
28.080       107
28.100       103
28.120       103
28.140       100
28.160       140
28.180       140
28.200       110
28.220       117
28.240       100
28.260        73
28.280        93
28.300       120
28.320       120
28.340        97
28.360       133
28.380       130
28.400       130
28.420       163
28.440       137
28.460        97
28.480       100
28.500       100
28.520       110
28.540       113
28.560       137
28.580        97
28.600        93
28.620       153
28.640        77
28.660        80
28.680       123
28.700       127
28.720       107
28.740       113
28.760       150
28.780       117
28.800       120
28.820       113
28.840       113
28.860       133
28.880       103
28.900       130
28.920       117
28.940       160
28.960       133
28.980       127
29.000       163
29.020       113
29.040       107
29.060       133
29.080       143
29.100       150
29.120       100
29.140       123
29.160       157
29.180       153
29.200       183
29.220       197
29.240       200
29.260       167
29.280       193
29.300       230
29.320       207
29.340       223
29.360       230
29.380       200
29.400       213
29.420       233
29.440       210
29.460       147
29.480       153
29.500       150
29.520       137
29.540       167
29.560       137
29.580       113
29.600       133
29.620       167
29.640       163
29.660       167
29.680       143
29.700       120
29.720       127
29.740       123
29.760       120
29.780       133
29.800       117
29.820        80
29.840       113
29.860       103
29.880       123
29.900       120
29.920       107
29.940       110
29.960       107
29.980       123
30.000       160
30.020       130
30.040        83
30.060       107
30.080       140
30.100       127
30.120       140
30.140       147
30.160       100
30.180       107
30.200       110
30.220       117
30.240       113
30.260       127
30.280       140
30.300       120
30.320       107
30.340        93
30.360       120
30.380       120
30.400        97
30.420       127
30.440        87
30.460       147
30.480       120
30.500        77
30.520       103
30.540       113
30.560       117
30.580        97
30.600       107
30.620       100
30.640       107
30.660       127
30.680       123
30.700       107
30.720       117
30.740       133
30.760        93
30.780       117
30.800       143
30.820       137
30.840       143
30.860       107
30.880       153
30.900       137
30.920       130
30.940       117
30.960        93
30.980       117
31.000       153
31.020       130
31.040       110
31.060       103
31.080       130
31.100        97
31.120       120
31.140       140
31.160       107
31.180       120
31.200       120
31.220       127
31.240       127
31.260       120
31.280       103
31.300       153
31.320       163
31.340       133
31.360       143
31.380       157
31.400       137
31.420       110
31.440       167
31.460       207
31.480       163
31.500       143
31.520       143
31.540       170
31.560       180
31.580       177
31.600       160
31.620       207
31.640       177
31.660       223
31.680       217
31.700       250
31.720       247
31.740       287
31.760       257
31.780       250
31.800       263
31.820       297
31.840       360
31.860       377
31.880       380
31.900       300
31.920       353
31.940       313
31.960       350
31.980       367
32.000       280
32.020       323
32.040       297
32.060       273
32.080       456
32.100       730
32.120      1153
32.140      1213
32.160       936
32.180       716
32.200       483
32.220       280
32.240       317
32.260       247
32.280       210
32.300       233
32.320       260
32.340       193
32.360       187
32.380       180
32.400       140
32.420       183
32.440       150
32.460       170
32.480       140
32.500       153
32.520       160
32.540       130
32.560       140
32.580       167
32.600       193
32.620       147
32.640       147
32.660       153
32.680       137
32.700       167
32.720       120
32.740       153
32.760       143
32.780       157
32.800       143
32.820       170
32.840       170
32.860       163
32.880       167
32.900       167
32.920       153
32.940       163
32.960       153
32.980       157
33.000       133
33.020       160
33.040       160
33.060       147
33.080       117
33.100       160
33.120       143
33.140       140
33.160       153
33.180       173
33.200       153
33.220       123
33.240       123
33.260       117
33.280       150
33.300       190
33.320       133
33.340       190
33.360       143
33.380       187
33.400       137
33.420       160
33.440       153
33.460       140
33.480       147
33.500       137
33.520       147
33.540       177
33.560       133
33.580       133
33.600       127
33.620       137
33.640       180
33.660       160
33.680       153
33.700       140
33.720       137
33.740       173
33.760       150
33.780       157
33.800       153
33.820       147
33.840       143
33.860       150
33.880       170
33.900       127
33.920       163
33.940       170
33.960       190
33.980       163
34.000       190
34.020       150
34.040       130
34.060       123
34.080       107
34.100       137
34.120       170
34.140       143
34.160       170
34.180       127
34.200       143
34.220       120
34.240       133
34.260       123
34.280       143
34.300       180
34.320       170
34.340       147
34.360       187
34.380       207
34.400       287
34.420       413
34.440       533
34.460       643
34.480       643
34.500       653
34.520       683
34.540       596
34.560       666
34.580       686
34.600       683
34.620       730
34.640       686
34.660       693
34.680       783
34.700       750
34.720       680
34.740       736
34.760       713
34.780       706
34.800       746
34.820       733
34.840       720
34.860       656
34.880       723
34.900       733
34.920       726
34.940       783
34.960       753
34.980       756
35.000       696
35.020       770
35.040       763
35.060       860
35.080       760
35.100       826
35.120       883
35.140       866
35.160       860
35.180       776
35.200       866
35.220       933
35.240      1026
35.260       873
35.280       960
35.300      1066
35.320      1133
35.340      1183
35.360      1263
35.380      1446
35.400      1553
35.420      1919
35.440      2332
35.460      3132
35.480      4178
35.500      5664
35.520      6098
35.540      7257
35.560      8973
35.580     12228
35.600     21601
35.620     61315
35.640    147431
35.660    189514
35.680    183373
35.700    144089
35.720    106741
35.740    116517
35.760    122851
35.780    108543
35.800     74987
35.820     36809
35.840     20375
35.860     14574
35.880     12112
35.900      9943
35.920      6864
35.940      4678
35.960      2759
35.980      2299
36.000      1829
36.020      1706
36.040      1593
36.060      1469
36.080      1363
36.100      1369
36.120      1230
36.140      1176
36.160      1106
36.180      1030
36.200      1013
36.220       983
36.240       966
36.260       820
36.280       903
36.300       816
36.320       813
36.340       763
36.360       860
36.380       860
36.400       813
36.420       746
36.440       766
36.460       646
36.480       683
36.500       683
36.520       656
36.540       720
36.560       653
36.580       626
36.600       630
36.620       706
36.640       696
36.660       660
36.680       653
36.700       670
36.720       676
36.740       563
36.760       596
36.780       680
36.800       626
36.820       683
36.840       626
36.860       616
36.880       633
36.900       676
36.920       640
36.940       583
36.960       616
36.980       633
37.000       600
37.020       646
37.040       620
37.060       510
37.080       606
37.100       626
37.120       600
37.140       643
37.160       593
37.180       663
37.200       643
37.220       476
37.240       576
37.260       636
37.280       670
37.300       486
37.320       580
37.340       586
37.360       536
37.380       540
37.400       566
37.420       576
37.440       530
37.460       563
37.480       540
37.500       496
37.520       533
37.540       500
37.560       543
37.580       573
37.600       486
37.620       510
37.640       576
37.660       616
37.680       596
37.700       593
37.720       496
37.740       620
37.760       496
37.780       523
37.800       466
37.820       566
37.840       496
37.860       516
37.880       466
37.900       523
37.920       546
37.940       590
37.960       473
37.980       546
38.000       543
38.020       493
38.040       526
38.060       510
38.080       510
38.100       523
38.120       526
38.140       486
38.160       493
38.180       526
38.200       530
38.220       480
38.240       523
38.260       436
38.280       496
38.300       440
38.320       463
38.340       563
38.360       543
38.380       493
38.400       466
38.420       566
38.440       490
38.460       543
38.480       500
38.500       463
38.520       516
38.540       486
38.560       473
38.580       433
38.600       470
38.620       463
38.640       453
38.660       473
38.680       510
38.700       473
38.720       503
38.740       466
38.760       466
38.780       483
38.800       473
38.820       490
38.840       460
38.860       446
38.880       510
38.900       430
38.920       456
38.940       446
38.960       490
38.980       466
39.000       496
39.020       563
39.040       493
39.060       503
39.080       596
39.100       560
39.120       476
39.140       470
39.160       476
39.180       496
39.200       466
39.220       496
39.240       533
39.260       546
39.280       456
39.300       506
39.320       500
39.340       510
39.360       466
39.380       520
39.400       503
39.420       576
39.440       470
39.460       440
39.480       443
39.500       516
39.520       423
39.540       510
39.560       476
39.580       440
39.600       466
39.620       403
39.640       433
39.660       456
39.680       367
39.700       387
39.720       483
39.740       390
39.760       430
39.780       496
39.800       440
39.820       410
39.840       380
39.860       413
39.880       383
39.900       483
39.920       456
39.940       440
39.960       407
39.980       410
40.000       436
40.020       456
40.040       407
40.060       463
40.080       387
40.100       400
40.120       426
40.140       400
40.160       410
40.180       343
40.200       420
40.220       403
40.240       456
40.260       367
40.280       407
40.300       480
40.320       426
40.340       373
40.360       466
40.380       370
40.400       373
40.420       370
40.440       393
40.460       417
40.480       363
40.500       466
40.520       430
40.540       403
40.560       420
40.580       353
40.600       423
40.620       370
40.640       417
40.660       370
40.680       436
40.700       333
40.720       390
40.740       380
40.760       440
40.780       380
40.800       293
40.820       493
40.840       393
40.860       460
40.880       417
40.900       370
40.920       403
40.940       367
40.960       417
40.980       417
41.000       430
41.020       353
41.040       426
41.060       397
41.080       423
41.100       387
41.120       370
41.140       426
41.160       333
41.180       390
41.200       327
41.220       350
41.240       373
41.260       357
41.280       473
41.300       423
41.320       373
41.340       403
41.360       456
41.380       410
41.400       443
41.420       456
41.440       410
41.460       440
41.480       410
41.500       293
41.520       363
41.540       367
41.560       423
41.580       387
41.600       423
41.620       390
41.640       350
41.660       397
41.680       413
41.700       440
41.720       390
41.740       393
41.760       426
41.780       317
41.800       460
41.820       463
41.840       436
41.860       563
41.880       443
41.900       423
41.920       460
41.940       453
41.960       343
41.980       436
42.000       407
42.020       317
42.040       373
42.060       343
42.080       446
42.100       337
42.120       367
42.140       397
42.160       423
42.180       363
42.200       337
42.220       383
42.240       383
42.260       327
42.280       367
42.300       320
42.320       330
42.340       340
42.360       340
42.380       277
42.400       360
42.420       377
42.440       310
42.460       347
42.480       323
42.500       367
42.520       273
42.540       350
42.560       320
42.580       380
42.600       410
42.620       337
42.640       310
42.660       337
42.680       357
42.700       297
42.720       313
42.740       377
42.760       357
42.780       367
42.800       320
42.820       307
42.840       387
42.860       403
42.880       357
42.900       353
42.920       287
42.940       340
42.960       337
42.980       380
43.000       340
43.020       420
43.040       340
43.060       407
43.080       423
43.100       383
43.120       383
43.140       363
43.160       383
43.180       380
43.200       307
43.220       333
43.240       343
43.260       387
43.280       350
43.300       293
43.320       350
43.340       283
43.360       290
43.380       287
43.400       390
43.420       303
43.440       343
43.460       330
43.480       303
43.500       300
43.520       317
43.540       357
43.560       313
43.580       343
43.600       360
43.620       287
43.640       303
43.660       297
43.680       343
43.700       260
43.720       327
43.740       320
43.760       280
43.780       330
43.800       283
43.820       317
43.840       343
43.860       313
43.880       293
43.900       273
43.920       310
43.940       343
43.960       283
43.980       277
44.000       283
44.020       323
44.040       283
44.060       287
44.080       273
44.100       287
44.120       313
44.140       293
44.160       290
44.180       270
44.200       310
44.220       267
44.240       283
44.260       253
44.280       323
44.300       240
44.320       297
44.340       293
44.360       330
44.380       237
44.400       310
44.420       300
44.440       297
44.460       303
44.480       283
44.500       243
44.520       270
44.540       310
44.560       237
44.580       283
44.600       227
44.620       277
44.640       220
44.660       303
44.680       260
44.700       337
44.720       267
44.740       257
44.760       247
44.780       317
44.800       330
44.820       203
44.840       230
44.860       277
44.880       263
44.900       250
44.920       320
44.940       243
44.960       253
44.980       227
45.000       263
45.020       260
45.040       247
45.060       243
45.080       270
45.100       243
45.120       297
45.140       257
45.160       260
45.180       263
45.200       307
45.220       320
45.240       327
45.260       260
45.280       277
45.300       247
45.320       333
45.340       330
45.360       257
45.380       280
45.400       323
45.420       310
45.440       287
45.460       300
45.480       287
45.500       267
45.520       270
45.540       270
45.560       307
45.580       317
45.600       250
45.620       250
45.640       287
45.660       330
45.680       320
45.700       273
45.720       307
45.740       300
45.760       320
45.780       323
45.800       230
45.820       290
45.840       283
45.860       260
45.880       287
45.900       280
45.920       340
45.940       277
45.960       297
45.980       257
46.000       303
46.020       270
46.040       277
46.060       260
46.080       230
46.100       237
46.120       270
46.140       240
46.160       223
46.180       257
46.200       293
46.220       267
46.240       267
46.260       233
46.280       290
46.300       217
46.320       207
46.340       273
46.360       270
46.380       240
46.400       240
46.420       227
46.440       267
46.460       277
46.480       290
46.500       253
46.520       273
46.540       250
46.560       230
46.580       220
46.600       247
46.620       223
46.640       257
46.660       210
46.680       217
46.700       313
46.720       280
46.740       297
46.760       283
46.780       233
46.800       300
46.820       247
46.840       207
46.860       223
46.880       277
46.900       187
46.920       257
46.940       277
46.960       267
46.980       260
47.000       237
47.020       240
47.040       280
47.060       290
47.080       260
47.100       230
47.120       263
47.140       290
47.160       263
47.180       213
47.200       290
47.220       263
47.240       283
47.260       260
47.280       270
47.300       300
47.320       303
47.340       377
47.360       290
47.380       283
47.400       323
47.420       317
47.440       357
47.460       327
47.480       273
47.500       283
47.520       270
47.540       297
47.560       317
47.580       267
47.600       263
47.620       280
47.640       260
47.660       177
47.680       240
47.700       237
47.720       270
47.740       243
47.760       273
47.780       277
47.800       203
47.820       203
47.840       210
47.860       297
47.880       243
47.900       237
47.920       233
47.940       247
47.960       247
47.980       230
48.000       207
48.020       230
48.040       210
48.060       243
48.080       247
48.100       263
48.120       267
48.140       280
48.160       270
48.180       277
48.200       353
48.220       273
48.240       297
48.260       313
48.280       337
48.300       323
48.320       310
48.340       267
48.360       280
48.380       257
48.400       307
48.420       297
48.440       233
48.460       333
48.480       297
48.500       300
48.520       213
48.540       283
48.560       250
48.580       223
48.600       210
48.620       233
48.640       213
48.660       243
48.680       217
48.700       207
48.720       183
48.740       237
48.760       200
48.780       177
48.800       240
48.820       210
48.840       213
48.860       187
48.880       230
48.900       223
48.920       210
48.940       187
48.960       203
48.980       190
49.000       230
49.020       230
49.040       243
49.060       220
49.080       220
49.100       253
49.120       270
49.140       180
49.160       193
49.180       223
49.200       207
49.220       277
49.240       230
49.260       243
49.280       210
49.300       210
49.320       220
49.340       273
49.360       210
49.380       220
49.400       200
49.420       167
49.440       207
49.460       227
49.480       183
49.500       210
49.520       183
49.540       207
49.560       240
49.580       193
49.600       187
49.620       190
49.640       203
49.660       220
49.680       240
49.700       207
49.720       223
49.740       197
49.760       210
49.780       267
49.800       223
49.820       207
49.840       203
49.860       193
49.880       203
49.900       163
49.920       210
49.940       217
49.960       247
49.980       160
50.000       187
50.020       183
50.040       197
50.060       200
50.080       187
50.100       193
50.120       230
50.140       193
50.160       210
50.180       223
50.200       203
50.220       183
50.240       190
50.260       157
50.280       237
50.300       230
50.320       180
50.340       183
50.360       167
50.380       207
50.400       217
50.420       197
50.440       210
50.460       223
50.480       213
50.500       233
50.520       210
50.540       243
50.560       223
50.580       213
50.600       200
50.620       200
50.640       210
50.660       153
50.680       193
50.700       197
50.720       200
50.740       143
50.760       240
50.780       237
50.800       220
50.820       193
50.840       213
50.860       180
50.880       193
50.900       200
50.920       190
50.940       163
50.960       233
50.980       210
51.000       227
51.020       200
51.040       233
51.060       220
51.080       180
51.100       237
51.120       223
51.140       227
51.160       190
51.180       190
51.200       203
51.220       193
51.240       217
51.260       207
51.280       167
51.300       237
51.320       183
51.340       197
51.360       187
51.380       230
51.400       227
51.420       180
51.440       203
51.460       197
51.480       230
51.500       190
51.520       157
51.540       163
51.560       203
51.580       137
51.600       213
51.620       143
51.640       180
51.660       160
51.680       227
51.700       137
51.720       217
51.740       207
51.760       203
51.780       217
51.800       253
51.820       213
51.840       210
51.860       200
51.880       150
51.900       180
51.920       163
51.940       197
51.960       193
51.980       227
52.000       213
52.020       180
52.040       197
52.060       173
52.080       217
52.100       157
52.120       187
52.140       177
52.160       203
52.180       233
52.200       200
52.220       203
52.240       183
52.260       190
52.280       177
52.300       200
52.320       180
52.340       200
52.360       167
52.380       267
52.400       200
52.420       197
52.440       193
52.460       163
52.480       187
52.500       200
52.520       190
52.540       223
52.560       163
52.580       187
52.600       183
52.620       200
52.640       133
52.660       197
52.680       193
52.700       193
52.720       197
52.740       217
52.760       203
52.780       173
52.800       187
52.820       177
52.840       170
52.860       213
52.880       183
52.900       190
52.920       177
52.940       163
52.960       223
52.980       177
53.000       217
53.020       173
53.040       133
53.060       187
53.080       180
53.100       207
53.120       190
53.140       220
53.160       127
53.180       170
53.200       153
53.220       217
53.240       173
53.260       157
53.280       177
53.300       160
53.320       183
53.340       180
53.360       193
53.380       167
53.400       180
53.420       213
53.440       167
53.460       177
53.480       187
53.500       227
53.520       213
53.540       220
53.560       223
53.580       187
53.600       183
53.620       153
53.640       167
53.660       190
53.680       177
53.700       170
53.720       137
53.740       170
53.760       190
53.780       223
53.800       160
53.820       173
53.840       227
53.860       227
53.880       203
53.900       180
53.920       193
53.940       177
53.960       243
53.980       167
54.000       190
54.020       230
54.040       187
54.060       203
54.080       247
54.100       183
54.120       210
54.140       167
54.160       190
54.180       223
54.200       190
54.220       180
54.240       133
54.260       217
54.280       177
54.300       163
54.320       217
54.340       230
54.360       187
54.380       177
54.400       200
54.420       153
54.440       170
54.460       193
54.480       193
54.500       193
54.520       177
54.540       217
54.560       213
54.580       220
54.600       177
54.620       253
54.640       273
54.660       307
54.680       360
54.700       217
54.720       233
54.740       247
54.760       247
54.780       257
54.800       273
54.820       280
54.840       257
54.860       183
54.880       230
54.900       200
54.920       160
54.940       157
54.960       167
54.980       180
55.000       143
55.020       217
55.040       217
55.060       167
55.080       197
55.100       160
55.120       187
55.140       210
55.160       220
55.180       217
55.200       213
55.220       220
55.240       190
55.260       237
55.280       207
55.300       197
55.320       183
55.340       277
55.360       177
55.380       157
55.400       187
55.420       163
55.440       177
55.460       197
55.480       190
55.500       200
55.520       167
55.540       220
55.560       210
55.580       210
55.600       187
55.620       217
55.640       210
55.660       157
55.680       207
55.700       170
55.720       173
55.740       203
55.760       180
55.780       200
55.800       147
55.820       173
55.840       223
55.860       203
55.880       157
55.900       180
55.920       200
55.940       177
55.960       193
55.980       170
56.000       170
56.020       200
56.040       170
56.060       147
56.080       127
56.100       180
56.120       153
56.140       237
56.160       150
56.180       210
56.200       163
56.220       220
56.240       173
56.260       230
56.280       177
56.300       190
56.320       197
56.340       210
56.360       223
56.380       227
56.400       217
56.420       223
56.440       183
56.460       207
56.480       203
56.500       190
56.520       177
56.540       183
56.560       207
56.580       167
56.600       170
56.620       247
56.640       213
56.660       177
56.680       157
56.700       193
56.720       163
56.740       190
56.760       247
56.780       183
56.800       157
56.820       177
56.840       183
56.860       167
56.880       233
56.900       217
56.920       240
56.940       173
56.960       200
56.980       187
57.000       193
57.020       197
57.040       207
57.060       210
57.080       250
57.100       243
57.120       240
57.140       247
57.160       203
57.180       187
57.200       173
57.220       220
57.240       223
57.260       173
57.280       247
57.300       237
57.320       257
57.340       180
57.360       223
57.380       213
57.400       213
57.420       190
57.440       187
57.460       233
57.480       183
57.500       223
57.520       173
57.540       170
57.560       223
57.580       237
57.600       193
57.620       183
57.640       150
57.660       233
57.680       193
57.700       163
57.720       223
57.740       160
57.760       167
57.780       163
57.800       190
57.820       127
57.840       150
57.860       210
57.880       230
57.900       130
57.920       187
57.940       220
57.960       210
57.980       207
58.000       170
58.020       133
58.040       173
58.060       217
58.080       147
58.100       170
58.120       203
58.140       197
58.160       173
58.180       237
58.200       150
58.220       223
58.240       183
58.260       143
58.280       207
58.300       203
58.320       140
58.340       167
58.360       157
58.380       173
58.400       197
58.420       147
58.440       180
58.460       140
58.480       180
58.500       163
58.520       200
58.540       167
58.560       180
58.580       157
58.600       153
58.620       197
58.640       180
58.660       150
58.680       147
58.700       163
58.720       227
58.740       163
58.760       173
58.780       233
58.800       217
58.820       187
58.840       173
58.860       157
58.880       180
58.900       177
58.920       193
58.940       203
58.960       157
58.980       150
59.000       170
59.020       157
59.040       183
59.060       140
59.080       167
59.100       183
59.120       170
59.140       143
59.160       167
59.180       127
59.200       140
59.220       180
59.240       160
59.260       153
59.280       167
59.300       240
59.320       187
59.340       207
59.360       187
59.380       180
59.400       200
59.420       180
59.440       210
59.460       147
59.480       173
59.500       207
59.520       170
59.540       177
59.560       170
59.580       173
59.600       153
59.620       187
59.640       167
59.660       227
59.680       180
59.700       143
59.720       163
59.740       173
59.760       237
59.780       163
59.800       170
59.820       193
59.840       193
59.860       207
59.880       170
59.900       210
59.920       140
59.940       213
59.960       153
59.980       167
60.000       177
