20.000       227
20.020       187
20.040       267
20.060       213
20.080       180
20.100       193
20.120       213
20.140       173
20.160       153
20.180       253
20.200       260
20.220       247
20.240       200
20.260       213
20.280       293
20.300       307
20.320       227
20.340       193
20.360       207
20.380       167
20.400       240
20.420       220
20.440       253
20.460       193
20.480       153
20.500       240
20.520       213
20.540       173
20.560       220
20.580       207
20.600       200
20.620       260
20.640       173
20.660       193
20.680       193
20.700       227
20.720       173
20.740       253
20.760       207
20.780       260
20.800       200
20.820       200
20.840       213
20.860       167
20.880       227
20.900       220
20.920       200
20.940       253
20.960       260
20.980       240
21.000       240
21.020       147
21.040       253
21.060       200
21.080       240
21.100       220
21.120       233
21.140       167
21.160       160
21.180       167
21.200       147
21.220       247
21.240       247
21.260       247
21.280       227
21.300       273
21.320       193
21.340       233
21.360       260
21.380       187
21.400       260
21.420       207
21.440       207
21.460       193
21.480       207
21.500       180
21.520       187
21.540       273
21.560       207
21.580       247
21.600       253
21.620       287
21.640       293
21.660       213
21.680       153
21.700       200
21.720       220
21.740       227
21.760       253
21.780       160
21.800       307
21.820       173
21.840       240
21.860       260
21.880       240
21.900       193
21.920       200
21.940       247
21.960       260
21.980       273
22.000       213
22.020       207
22.040       207
22.060       180
22.080       287
22.100       273
22.120       253
22.140       213
22.160       260
22.180       253
22.200       253
22.220       307
22.240       287
22.260       253
22.280       267
22.300       320
22.320       247
22.340       273
22.360       207
22.380       313
22.400       313
22.420       360
22.440       247
22.460       253
22.480       233
22.500       213
22.520       320
22.540       227
22.560       280
22.580       253
22.600       387
22.620       333
22.640       273
22.660       327
22.680       247
22.700       267
22.720       267
22.740       360
22.760       293
22.780       387
22.800       307
22.820       340
22.840       400
22.860       367
22.880       300
22.900       280
22.920       367
22.940       340
22.960       400
22.980       426
23.000       393
23.020       473
23.040       666
23.060      1173
23.080      1559
23.100      2053
23.120      2146
23.140      1433
23.160       720
23.180       453
23.200       493
23.220       453
23.240       320
23.260       400
23.280       400
23.300       293
23.320       307
23.340       360
23.360       333
23.380       347
23.400       300
23.420       400
23.440       327
23.460       300
23.480       373
23.500       367
23.520       353
23.540       373
23.560       353
23.580       380
23.600       300
23.620       353
23.640       300
23.660       307
23.680       307
23.700       307
23.720       340
23.740       307
23.760       373
23.780       387
23.800       293
23.820       327
23.840       413
23.860       400
23.880       287
23.900       327
23.920       293
23.940       280
23.960       320
23.980       260
24.000       353
24.020       333
24.040       353
24.060       387
24.080       373
24.100       460
24.120       307
24.140       340
24.160       280
24.180       307
24.200       307
24.220       213
24.240       247
24.260       360
24.280       320
24.300       360
24.320       273
24.340       313
24.360       253
24.380       300
24.400       293
24.420       267
24.440       247
24.460       273
24.480       267
24.500       300
24.520       387
24.540       320
24.560       300
24.580       393
24.600       347
24.620       280
24.640       287
24.660       313
24.680       540
24.700       693
24.720       646
24.740       813
24.760      1013
24.780      1213
24.800      1160
24.820       946
24.840      1106
24.860      1100
24.880      1053
24.900      1020
24.920      1206
24.940      1093
24.960       953
24.980      1006
25.000       973
25.020      1053
25.040      1046
25.060       980
25.080      1053
25.100       880
25.120      1080
25.140       980
25.160      1180
25.180      1140
25.200      1319
25.220       893
25.240      1146
25.260      1033
25.280      1200
25.300      1153
25.320      1359
25.340      1373
25.360      1533
25.380      1786
25.400      2232
25.420      3039
25.440      4818
25.460      7124
25.480      9336
25.500     12168
25.520     15434
25.540     28535
25.560     87572
25.580    160609
25.600    183953
25.620    189744
25.640    166627
25.660    126569
25.680    112455
25.700     80288
25.720     33447
25.740     16107
25.760     11595
25.780      9136
25.800      6704
25.820      4885
25.840      3758
25.860      2492
25.880      1799
25.900      1753
25.920      1419
25.940      1553
25.960      1566
25.980      1293
26.000      1413
26.020      1286
26.040      1319
26.060      1186
26.080      1100
26.100      1193
26.120       973
26.140      1066
26.160      1073
26.180       973
26.200       966
26.220      1026
26.240       866
26.260       940
26.280      1126
26.300       853
26.320       806
26.340       873
26.360       893
26.380       946
26.400       900
26.420       940
26.440       993
26.460       873
26.480       826
26.500       873
26.520       706
26.540       613
26.560       940
26.580       793
26.600       893
26.620       873
26.640       820
26.660       866
26.680       773
26.700       686
26.720       606
26.740       800
26.760       760
26.780       726
26.800       766
26.820       773
26.840       686
26.860       853
26.880       746
26.900       800
26.920       733
26.940       666
26.960       720
26.980       900
27.000       706
27.020       700
27.040       826
27.060       580
27.080       666
27.100       666
27.120       720
27.140       673
27.160       613
27.180       660
27.200       626
27.220       693
27.240       600
27.260       666
27.280       546
27.300       633
27.320       600
27.340       633
27.360       733
27.380       613
27.400       626
27.420       760
27.440       646
27.460       620
27.480       660
27.500       713
27.520       593
27.540       600
27.560       760
27.580       613
27.600       640
27.620       740
27.640       566
27.660       720
27.680       733
27.700       640
27.720       566
27.740       620
27.760       593
27.780       593
27.800       566
27.820       520
27.840       580
27.860       613
27.880       606
27.900       466
27.920       666
27.940       580
27.960       593
27.980       726
28.000       573
28.020       633
28.040       513
28.060       566
28.080       553
28.100       526
28.120       606
28.140       546
28.160       546
28.180       560
28.200       513
28.220       566
28.240       540
28.260       593
28.280       453
28.300       553
28.320       513
28.340       593
28.360       653
28.380       520
28.400       513
28.420       546
28.440       560
28.460       600
28.480       526
28.500       473
28.520       506
28.540       560
28.560       500
28.580       460
28.600       473
28.620       513
28.640       560
28.660       493
28.680       526
28.700       613
28.720       560
28.740       593
28.760       433
28.780       506
28.800       473
28.820       486
28.840       546
28.860       506
28.880       553
28.900       500
28.920       473
28.940       473
28.960       480
28.980       506
29.000       446
29.020       473
29.040       433
29.060       520
29.080       586
29.100       633
29.120       520
29.140       593
29.160       400
29.180       566
29.200       526
29.220       486
29.240       506
29.260       473
29.280       407
29.300       526
29.320       407
29.340       580
29.360       493
29.380       553
29.400       560
29.420       486
29.440       500
29.460       513
29.480       513
29.500       347
29.520       480
29.540       440
29.560       466
29.580       426
29.600       573
29.620       506
29.640       526
29.660       486
29.680       433
29.700       520
29.720       360
29.740       466
29.760       480
29.780       493
29.800       520
29.820       426
29.840       493
29.860       393
29.880       360
29.900       393
29.920       506
29.940       413
29.960       500
29.980       287
30.000       440
30.020       367
30.040       453
30.060       480
30.080       413
30.100       387
30.120       426
30.140       420
30.160       593
30.180       413
30.200       300
30.220       466
30.240       380
30.260       387
30.280       460
30.300       426
30.320       407
30.340       480
30.360       453
30.380       347
30.400       347
30.420       426
30.440       333
30.460       353
30.480       400
30.500       407
30.520       327
30.540       446
30.560       313
30.580       360
30.600       420
30.620       253
30.640       446
30.660       420
30.680       300
30.700       353
30.720       240
30.740       420
30.760       333
30.780       480
30.800       333
30.820       367
30.840       333
30.860       393
30.880       453
30.900       360
30.920       293
30.940       380
30.960       433
30.980       273
31.000       367
31.020       400
31.040       247
31.060       280
31.080       280
31.100       260
31.120       367
31.140       353
31.160       347
31.180       260
31.200       347
31.220       333
31.240       320
31.260       407
31.280       260
31.300       280
31.320       273
31.340       313
31.360       387
31.380       307
31.400       347
31.420       347
31.440       293
31.460       353
31.480       267
31.500       300
31.520       340
31.540       360
31.560       287
31.580       200
31.600       287
31.620       247
31.640       333
31.660       253
31.680       293
31.700       287
31.720       307
31.740       233
31.760       327
31.780       320
31.800       287
31.820       280
31.840       247
31.860       280
31.880       287
31.900       227
31.920       207
31.940       233
31.960       313
31.980       247
32.000       253
32.020       293
32.040       227
32.060       273
32.080       267
32.100       280
32.120       413
32.140       313
32.160       233
32.180       273
32.200       400
32.220       280
32.240       333
32.260       320
32.280       340
32.300       313
32.320       253
32.340       260
32.360       213
32.380       287
32.400       207
32.420       280
32.440       200
32.460       253
32.480       300
32.500       233
32.520       260
32.540       353
32.560       187
32.580       233
32.600       253
32.620       267
32.640       267
32.660       280
32.680       207
32.700       287
32.720       200
32.740       280
32.760       253
32.780       300
32.800       280
32.820       207
32.840       227
32.860       193
32.880       220
32.900       300
32.920       240
32.940       233
32.960       140
32.980       247
33.000       233
33.020       200
33.040       213
33.060       247
33.080       220
33.100       213
33.120       227
33.140       200
33.160       147
33.180       187
33.200       193
33.220       193
33.240       180
33.260       240
33.280       227
33.300       227
33.320       207
33.340       213
33.360       253
33.380       247
33.400       233
33.420       213
33.440       213
33.460       200
33.480       193
33.500       207
33.520       187
33.540       240
33.560       220
33.580       240
33.600       213
33.620       227
33.640       213
33.660       193
33.680       187
33.700       227
33.720       193
33.740       167
33.760       267
33.780       213
33.800       207
33.820       160
33.840       207
33.860       267
33.880       193
33.900       187
33.920       213
33.940       200
33.960       207
33.980       147
34.000       240
34.020       187
34.040       240
34.060       213
34.080       173
34.100       187
34.120       180
34.140       147
34.160       160
34.180       167
34.200       167
34.220       213
34.240       207
34.260       193
34.280       200
34.300       193
34.320       193
34.340       187
34.360       187
34.380       133
34.400       213
34.420       120
34.440       100
34.460       193
34.480       127
34.500       140
34.520       180
34.540       160
34.560       180
34.580       140
34.600       160
34.620       127
34.640       207
34.660       160
34.680       240
34.700       147
34.720       167
34.740       213
34.760       187
34.780       207
34.800        93
34.820       167
34.840       207
34.860       207
34.880       113
34.900       200
34.920       207
34.940       167
34.960       180
34.980       133
35.000       180
35.020       140
35.040       153
35.060        93
35.080       147
35.100       147
35.120       160
35.140       213
35.160       160
35.180       173
35.200       113
35.220       133
35.240       113
35.260       120
35.280       127
35.300       113
35.320       147
35.340       160
35.360       167
35.380       120
35.400       127
35.420       167
35.440       153
35.460       107
35.480       127
35.500       193
35.520       133
35.540       153
35.560       127
35.580       127
35.600        93
35.620       140
35.640       147
35.660       200
35.680       147
35.700       193
35.720       153
35.740       140
35.760       180
35.780       180
35.800       193
35.820       173
35.840       153
35.860       133
35.880       160
35.900       187
35.920       133
35.940        93
35.960       113
35.980       107
36.000       153
36.020       120
36.040       167
36.060       227
36.080       113
36.100        53
36.120       140
36.140       127
36.160       153
36.180        93
36.200       140
36.220       133
36.240       173
36.260       160
36.280       107
36.300       107
36.320       113
36.340       140
36.360       107
36.380       113
36.400       127
36.420        87
36.440       153
36.460       147
36.480       107
36.500       113
36.520       140
36.540       147
36.560       100
36.580        33
36.600       153
36.620       100
36.640        80
36.660       133
36.680       113
36.700       153
36.720       140
36.740       133
36.760        80
36.780       107
36.800       127
36.820       100
36.840        93
36.860       100
36.880       107
36.900        93
36.920       173
36.940       127
36.960       100
36.980        93
37.000       107
37.020       127
37.040       160
37.060       133
37.080        80
37.100       107
37.120       127
37.140       100
37.160       133
37.180       107
37.200       113
37.220        80
37.240       113
37.260        93
37.280       133
37.300       147
37.320        67
37.340        93
37.360       113
37.380        87
37.400        87
37.420        73
37.440       153
37.460       133
37.480       100
37.500       107
37.520       113
37.540       100
37.560       120
37.580       120
37.600       100
37.620        80
37.640        87
37.660       147
37.680       120
37.700       100
37.720       127
37.740       100
37.760       113
37.780       113
37.800        60
37.820        60
37.840       120
37.860        87
37.880        53
37.900        93
37.920       100
37.940       113
37.960       133
37.980       167
38.000       100
38.020        80
38.040        80
38.060       127
38.080       133
38.100        73
38.120        93
38.140       113
38.160        73
38.180       127
38.200        87
38.220        47
38.240        87
38.260        67
38.280        80
38.300       120
38.320        93
38.340       100
38.360        93
38.380        87
38.400        73
38.420        87
38.440       127
38.460       133
38.480        93
38.500        87
38.520        67
38.540       140
38.560       100
38.580        93
38.600        80
38.620       160
38.640        60
38.660       100
38.680        93
38.700        93
38.720        80
38.740        87
38.760       100
38.780       127
38.800       100
38.820       127
38.840       100
38.860        67
38.880       100
38.900        87
38.920       120
38.940        73
38.960        47
38.980       120
39.000       100
39.020        87
39.040        67
39.060        93
39.080        87
39.100        93
39.120       113
39.140       113
39.160       100
39.180        60
39.200       113
39.220       113
39.240       133
39.260        87
39.280       107
39.300        60
39.320       113
39.340        87
39.360        80
39.380       107
39.400       140
39.420       107
39.440       107
39.460       107
39.480        80
39.500       187
39.520       107
39.540       200
39.560       273
39.580       313
39.600       400
39.620       480
39.640       700
39.660       946
39.680      1053
39.700      1126
39.720      1033
39.740      1086
39.760       740
39.780       826
39.800       786
39.820       640
39.840       633
39.860       380
39.880       280
39.900       233
39.920       200
39.940       173
39.960       133
39.980       107
40.000       133
40.020        47
40.040       127
40.060       100
40.080        80
40.100       100
40.120       113
40.140       100
40.160        67
40.180       113
40.200        33
40.220       107
40.240        53
40.260        73
40.280       113
40.300        67
40.320        73
40.340       100
40.360        67
40.380        53
40.400        47
40.420        67
40.440        40
40.460        73
40.480        60
40.500        67
40.520        73
40.540        73
40.560        47
40.580        73
40.600        87
40.620        80
40.640        47
40.660        53
40.680       120
40.700        53
40.720        93
40.740       100
40.760        40
40.780        93
40.800        53
40.820       113
40.840        60
40.860        60
40.880        67
40.900        60
40.920        87
40.940        93
40.960        80
40.980        67
41.000       133
41.020       167
41.040       100
41.060       107
41.080       160
41.100       113
41.120       160
41.140       200
41.160       173
41.180       180
41.200       213
41.220       213
41.240       187
41.260       127
41.280       160
41.300       160
41.320       207
41.340       120
41.360       200
41.380       120
41.400       107
41.420       147
41.440       100
41.460       100
41.480        80
41.500        93
41.520       100
41.540        87
41.560        93
41.580        67
41.600        87
41.620       153
41.640        93
41.660        87
41.680        93
41.700        73
41.720        47
41.740        60
41.760        93
41.780        80
41.800        53
41.820        47
41.840        40
41.860        73
41.880        80
41.900        80
41.920        73
41.940        80
41.960        47
41.980        53
42.000        67
42.020        60
42.040        67
42.060        67
42.080        87
42.100        40
42.120        40
42.140        20
42.160        87
42.180        53
42.200        53
42.220        33
42.240       100
42.260        60
42.280        40
42.300        67
42.320        80
42.340        67
42.360        73
42.380        47
42.400       107
42.420        33
42.440        47
42.460        73
42.480        47
42.500        60
42.520       107
42.540        53
42.560        53
42.580        60
42.600        60
42.620        47
42.640        87
42.660        60
42.680        73
42.700        33
42.720        73
42.740        60
42.760        60
42.780       100
42.800        87
42.820        47
42.840        73
42.860        53
42.880        80
42.900        47
42.920        67
42.940        67
42.960        40
42.980        67
43.000        93
43.020        53
43.040        73
43.060        73
43.080        53
43.100        80
43.120        40
43.140        40
43.160        60
43.180        40
43.200        27
43.220        40
43.240        60
43.260        47
43.280        60
43.300         7
43.320        33
43.340        73
43.360        40
43.380        27
43.400        60
43.420        67
43.440        67
43.460        33
43.480        53
43.500        60
43.520        47
43.540        93
43.560        67
43.580        47
43.600        67
43.620        47
43.640        60
43.660        60
43.680        33
43.700        40
43.720        67
43.740        93
43.760        73
43.780        13
43.800       107
43.820        47
43.840        53
43.860        60
43.880        80
43.900        40
43.920        60
43.940        40
43.960        33
43.980        27
44.000        67
44.020        53
44.040        73
44.060        67
44.080        47
44.100        40
44.120        40
44.140        47
44.160        73
44.180        53
44.200         7
44.220        67
44.240        53
44.260        20
44.280        27
44.300        47
44.320        47
44.340        80
44.360        33
44.380        73
44.400        73
44.420        53
44.440        40
44.460        53
44.480        33
44.500        60
44.520        27
44.540        33
44.560        67
44.580        47
44.600        40
44.620        33
44.640       100
44.660        93
44.680        73
44.700        53
44.720        53
44.740        40
44.760        47
44.780        33
44.800        73
44.820        47
44.840        73
44.860        73
44.880        80
44.900        60
44.920        87
44.940        33
44.960        53
44.980        40
45.000        67
45.020        33
45.040        60
45.060        93
45.080        53
45.100        73
45.120        47
45.140        67
45.160       100
45.180        53
45.200       100
45.220        87
45.240        33
45.260        40
45.280        80
45.300        67
45.320        60
45.340        60
45.360        67
45.380        40
45.400        53
45.420       133
45.440        40
45.460        47
45.480       113
45.500        73
45.520        47
45.540        33
45.560        40
45.580        87
45.600        53
45.620        47
45.640        20
45.660        27
45.680        47
45.700        27
45.720        67
45.740        67
45.760       100
45.780        60
45.800       107
45.820        93
45.840        67
45.860        33
45.880        53
45.900        73
45.920        67
45.940        73
45.960       100
45.980       120
46.000       167
46.020       133
46.040       107
46.060       140
46.080       100
46.100       107
46.120       127
46.140       113
46.160       107
46.180       100
46.200       100
46.220        93
46.240        67
46.260       113
46.280        67
46.300        60
46.320        73
46.340       100
46.360        53
46.380       113
46.400        53
46.420        40
46.440        27
46.460        60
46.480        40
46.500        73
46.520        87
46.540        73
46.560        27
46.580        73
46.600        60
46.620        80
46.640        60
46.660        73
46.680        60
46.700        40
46.720       100
46.740       107
46.760        67
46.780        93
46.800       213
46.820       140
46.840        93
46.860       133
46.880       127
46.900       133
46.920       127
46.940       100
46.960        60
46.980       120
47.000       153
47.020       127
47.040       167
47.060       180
47.080       213
47.100       320
47.120       446
47.140       913
47.160      1426
47.180      1766
47.200      1939
47.220      1473
47.240       920
47.260       546
47.280       446
47.300       300
47.320       153
47.340       187
47.360       100
47.380       160
47.400       140
47.420        87
47.440       133
47.460        80
47.480       113
47.500        60
47.520        87
47.540        87
47.560       133
47.580       120
47.600        80
47.620        60
47.640        87
47.660       120
47.680        67
47.700        47
47.720        80
47.740        40
47.760        80
47.780        60
47.800        80
47.820        47
47.840        93
47.860       113
47.880        60
47.900        33
47.920        67
47.940        73
47.960        60
47.980        87
48.000        53
48.020        60
48.040        60
48.060        53
48.080        20
48.100       113
48.120        93
48.140        87
48.160        67
48.180        80
48.200        87
48.220        73
48.240        53
48.260        80
48.280        60
48.300        80
48.320        53
48.340        53
48.360        73
48.380        73
48.400        60
48.420        40
48.440        67
48.460        40
48.480        13
48.500        53
48.520        47
48.540        80
48.560        67
48.580        40
48.600        67
48.620        40
48.640        67
48.660        60
48.680        47
48.700        33
48.720        33
48.740        47
48.760        80
48.780        60
48.800        40
48.820        80
48.840        60
48.860       100
48.880        60
48.900        67
48.920        27
48.940        80
48.960        67
48.980        87
49.000        47
49.020        60
49.040        27
49.060        60
49.080        33
49.100         7
49.120        40
49.140        47
49.160        53
49.180        73
49.200        67
49.220        73
49.240        47
49.260        73
49.280        80
49.300        53
49.320        33
49.340        47
49.360        60
49.380        40
49.400        47
49.420        80
49.440        33
49.460        67
49.480        87
49.500        67
49.520        67
49.540        53
49.560        87
49.580        67
49.600        40
49.620        67
49.640        40
49.660        53
49.680        73
49.700        47
49.720        53
49.740        53
49.760        53
49.780        33
49.800        33
49.820        80
49.840        60
49.860        67
49.880        40
49.900        73
49.920        40
49.940        33
49.960        80
49.980        67
50.000        53
50.020        40
50.040        87
50.060        67
50.080        60
50.100        87
50.120        87
50.140        33
50.160        60
50.180        67
50.200        53
50.220        53
50.240        47
50.260        67
50.280        47
50.300        80
50.320        53
50.340        33
50.360        80
50.380        53
50.400        73
50.420        80
50.440        53
50.460        93
50.480        53
50.500        87
50.520        47
50.540        67
50.560        53
50.580        87
50.600       100
50.620       133
50.640       200
50.660       227
50.680       407
50.700       486
50.720       466
50.740       500
50.760       453
50.780       520
50.800       520
50.820       440
50.840       426
50.860       500
50.880       493
50.900       553
50.920       466
50.940       460
50.960       573
50.980       533
51.000       466
51.020       560
51.040       413
51.060       433
51.080       533
51.100       546
51.120       486
51.140       533
51.160       546
51.180       486
51.200       500
51.220       613
51.240       480
51.260       460
51.280       453
51.300       473
51.320       566
51.340       460
51.360       586
51.380       446
51.400       380
51.420       533
51.440       560
51.460       573
51.480       540
51.500       407
51.520       506
51.540       593
51.560       466
51.580       506
51.600       580
51.620       593
51.640       700
51.660       540
51.680       533
51.700       553
51.720       666
51.740       673
51.760       606
51.780       573
51.800       640
51.820       726
51.840       680
51.860       586
51.880       646
51.900       633
51.920       820
51.940       793
51.960       613
51.980       800
52.000       740
52.020       633
52.040       793
52.060       826
52.080       873
52.100       760
52.120       946
52.140       860
52.160       973
52.180      1066
52.200      1100
52.220      1113
52.240      1233
52.260      1806
52.280      2139
52.300      2406
52.320      3365
52.340      3985
52.360      4345
52.380      4638
52.400      5591
52.420      6957
52.440      8730
52.460     12148
52.480     17160
52.500     25410
52.520     45235
52.540     99207
52.560    165034
52.580    196308
52.600    195735
52.620    150360
52.640     88838
52.660     57350
52.680     69186
52.700    103825
52.720    122078
52.740    119266
52.760     86232
52.780     46421
52.800     22491
52.820     13128
52.840      9829
52.860      7930
52.880      6178
52.900      4651
52.920      3179
52.940      2566
52.960      1979
52.980      1893
53.000      1599
53.020      1566
53.040      1399
53.060      1379
53.080      1333
53.100      1180
53.120      1020
53.140      1046
53.160       926
53.180      1160
53.200      1100
53.220       966
53.240       733
53.260       786
53.280       820
53.300       526
53.320       800
53.340       706
53.360       646
53.380       686
53.400       553
53.420       660
53.440       553
53.460       593
53.480       673
53.500       553
53.520       680
53.540       580
53.560       540
53.580       533
53.600       526
53.620       540
53.640       566
53.660       526
53.680       460
53.700       553
53.720       526
53.740       593
53.760       480
53.780       493
53.800       473
53.820       513
53.840       426
53.860       413
53.880       506
53.900       453
53.920       380
53.940       513
53.960       373
53.980       446
54.000       413
54.020       560
54.040       407
54.060       413
54.080       393
54.100       393
54.120       380
54.140       380
54.160       407
54.180       413
54.200       407
54.220       387
54.240       380
54.260       353
54.280       347
54.300       453
54.320       446
54.340       380
54.360       313
54.380       453
54.400       380
54.420       400
54.440       287
54.460       373
54.480       320
54.500       353
54.520       307
54.540       320
54.560       347
54.580       293
54.600       367
54.620       347
54.640       313
54.660       340
54.680       393
54.700       347
54.720       347
54.740       340
54.760       313
54.780       333
54.800       413
54.820       393
54.840       320
54.860       307
54.880       333
54.900       380
54.920       333
54.940       347
54.960       187
54.980       247
55.000       340
55.020       387
55.040       373
55.060       347
55.080       433
55.100       340
55.120       280
55.140       400
55.160       347
55.180       373
55.200       400
55.220       293
55.240       320
55.260       260
55.280       220
55.300       293
55.320       260
55.340       300
55.360       253
55.380       327
55.400       280
55.420       400
55.440       293
55.460       347
55.480       300
55.500       300
55.520       320
55.540       300
55.560       300
55.580       340
55.600       300
55.620       300
55.640       320
55.660       247
55.680       333
55.700       287
55.720       307
55.740       340
55.760       293
55.780       373
55.800       333
55.820       287
55.840       253
55.860       233
55.880       280
55.900       307
55.920       227
55.940       233
55.960       187
55.980       300
56.000       327
56.020       293
56.040       173
56.060       267
56.080       267
56.100       300
56.120       260
56.140       267
56.160       227
56.180       313
56.200       360
56.220       227
56.240       400
56.260       267
56.280       220
56.300       280
56.320       327
56.340       307
56.360       273
56.380       227
56.400       193
56.420       173
56.440       253
56.460       220
56.480       287
56.500       300
56.520       253
56.540       207
56.560       207
56.580       187
56.600       227
56.620       213
56.640       280
56.660       320
56.680       253
56.700       280
56.720       273
56.740       260
56.760       193
56.780       273
56.800       213
56.820       360
56.840       280
56.860       193
56.880       233
56.900       233
56.920       207
56.940       207
56.960       260
56.980       300
57.000       220
57.020       173
57.040       253
57.060       220
57.080       227
57.100       227
57.120       220
57.140       260
57.160       293
57.180       253
57.200       213
57.220       247
57.240       220
57.260       200
57.280       307
57.300       253
57.320       253
57.340       347
57.360       347
57.380       227
57.400       340
57.420       327
57.440       393
57.460       267
57.480       240
57.500       333
57.520       327
57.540       287
57.560       247
57.580       287
57.600       267
57.620       180
57.640       253
57.660       247
57.680       247
57.700       233
57.720       173
57.740       273
57.760       253
57.780       207
57.800       247
57.820       173
57.840       220
57.860       160
57.880       147
57.900       207
57.920       213
57.940       220
57.960       127
57.980       247
58.000       180
58.020       187
58.040       213
58.060       233
58.080       167
58.100       200
58.120       140
58.140       187
58.160       207
58.180       167
58.200       247
58.220       187
58.240       207
58.260       293
58.280       180
58.300       233
58.320       207
58.340       180
58.360       167
58.380       233
58.400       173
58.420       180
58.440       167
58.460       220
58.480       213
58.500       200
58.520       167
58.540       193
58.560       153
58.580       180
58.600       180
58.620       140
58.640       173
58.660       240
58.680       133
58.700       220
58.720       227
58.740       173
58.760       227
58.780       193
58.800       180
58.820       187
58.840       193
58.860       173
58.880       167
58.900       193
58.920       200
58.940       187
58.960       173
58.980       207
59.000       147
59.020       193
59.040       140
59.060       167
59.080       133
59.100       160
59.120       147
59.140       167
59.160       113
59.180       160
59.200       213
59.220       100
59.240       140
59.260       227
59.280       207
59.300       127
59.320       200
59.340       107
59.360       187
59.380       207
59.400       167
59.420       173
59.440       147
59.460       240
59.480       147
59.500       167
59.520       167
59.540       167
59.560       187
59.580       133
59.600       147
59.620       113
59.640       173
59.660       113
59.680       180
59.700       153
59.720        60
59.740         0
59.760         0
59.780         0
59.800         0
59.820         0
59.840         0
59.860         0
59.880         0
59.900         0
59.920         0
59.940         0
59.960         0
59.980         0
60.000         0
