20.000         0
20.020         0
20.040         0
20.060         0
20.080         0
20.100         0
20.120         0
20.140         0
20.160         0
20.180         0
20.200         0
20.220         0
20.240         0
20.260         0
20.280         0
20.300         0
20.320         0
20.340         0
20.360        73
20.380       133
20.400       120
20.420        53
20.440        87
20.460       133
20.480       107
20.500       127
20.520       133
20.540        87
20.560       113
20.580       113
20.600       113
20.620        93
20.640       153
20.660       113
20.680        87
20.700        73
20.720       100
20.740       100
20.760        73
20.780        60
20.800        80
20.820        73
20.840        80
20.860        80
20.880        87
20.900       107
20.920        53
20.940       100
20.960        73
20.980        80
21.000        73
21.020        73
21.040        87
21.060        73
21.080       100
21.100       113
21.120       107
21.140        87
21.160        73
21.180        87
21.200       127
21.220       113
21.240        60
21.260        73
21.280       133
21.300       153
21.320        87
21.340       107
21.360        60
21.380        67
21.400        53
21.420       100
21.440       120
21.460        93
21.480       127
21.500        73
21.520        93
21.540       127
21.560        53
21.580       120
21.600        60
21.620       120
21.640       113
21.660        93
21.680       113
21.700       113
21.720       113
21.740        93
21.760       100
21.780       100
21.800       120
21.820       140
21.840       127
21.860       127
21.880       107
21.900        73
21.920        87
21.940       107
21.960        93
21.980       113
22.000        93
22.020       160
22.040       140
22.060       107
22.080       133
22.100       120
22.120       113
22.140        93
22.160       153
22.180       153
22.200       153
22.220       120
22.240       147
22.260       113
22.280       187
22.300       173
22.320       207
22.340       153
22.360       173
22.380       180
22.400        87
22.420       113
22.440        93
22.460       133
22.480       100
22.500       180
22.520        93
22.540       113
22.560       153
22.580       107
22.600       100
22.620        73
22.640       147
22.660        87
22.680        87
22.700       120
22.720       187
22.740        93
22.760       113
22.780       187
22.800       127
22.820       180
22.840       167
22.860       140
22.880       153
22.900       153
22.920        87
22.940       167
22.960       220
22.980       147
23.000       180
23.020       193
23.040       140
23.060       247
23.080       446
23.100       926
23.120       866
23.140       833
23.160       526
23.180       320
23.200       233
23.220       180
23.240       133
23.260       153
23.280       220
23.300       173
23.320       200
23.340       180
23.360       120
23.380       133
23.400       133
23.420       220
23.440       180
23.460       113
23.480       127
23.500       160
23.520       207
23.540       187
23.560       147
23.580       160
23.600        80
23.620        87
23.640       180
23.660       140
23.680       153
23.700       113
23.720       113
23.740       133
23.760        93
23.780       127
23.800       167
23.820       160
23.840       147
23.860       153
23.880       167
23.900       133
23.920       127
23.940       180
23.960       147
23.980       140
24.000       160
24.020        93
24.040        80
24.060       147
24.080       140
24.100       147
24.120       220
24.140       153
24.160       127
24.180       167
24.200       173
24.220       133
24.240       160
24.260       133
24.280       107
24.300       133
24.320       147
24.340       107
24.360       187
24.380       113
24.400       140
24.420       153
24.440       140
24.460       113
24.480       127
24.500       113
24.520       133
24.540       160
24.560       107
24.580       140
24.600       187
24.620       147
24.640       153
24.660       200
24.680       140
24.700       220
24.720       207
24.740       300
24.760       373
24.780       426
24.800       460
24.820       486
24.840       606
24.860       513
24.880       420
24.900       560
24.920       526
24.940       486
24.960       493
24.980       473
25.000       486
25.020       440
25.040       506
25.060       566
25.080       460
25.100       573
25.120       513
25.140       580
25.160       506
25.180       520
25.200       540
25.220       606
25.240       593
25.260       573
25.280       626
25.300       613
25.320       713
25.340       673
25.360       706
25.380       733
25.400       893
25.420      1319
25.440      1739
25.460      2906
25.480      4238
25.500      5791
25.520      6604
25.540      7764
25.560     11975
25.580     42077
25.600     87225
25.620    107024
25.640    112042
25.660     95862
25.680     69306
25.700     62002
25.720     44675
25.740     17340
25.760      8123
25.780      6238
25.800      4618
25.820      3212
25.840      2319
25.860      2026
25.880      1160
25.900       900
25.920       740
25.940       773
25.960       780
25.980       666
26.000       633
26.020       713
26.040       720
26.060       533
26.080       546
26.100       580
26.120       453
26.140       526
26.160       526
26.180       553
26.200       426
26.220       440
26.240       440
26.260       533
26.280       460
26.300       446
26.320       453
26.340       426
26.360       506
26.380       440
26.400       353
26.420       387
26.440       373
26.460       287
26.480       426
26.500       493
26.520       426
26.540       413
26.560       460
26.580       413
26.600       353
26.620       307
26.640       420
26.660       440
26.680       333
26.700       413
26.720       453
26.740       327
26.760       393
26.780       393
26.800       313
26.820       253
26.840       407
26.860       407
26.880       387
26.900       373
26.920       273
26.940       387
26.960       233
26.980       320
27.000       307
27.020       287
27.040       320
27.060       307
27.080       313
27.100       333
27.120       373
27.140       267
27.160       300
27.180       313
27.200       473
27.220       340
27.240       293
27.260       353
27.280       267
27.300       347
27.320       267
27.340       340
27.360       293
27.380       387
27.400       300
27.420       307
27.440       313
27.460       313
27.480       353
27.500       307
27.520       320
27.540       213
27.560       333
27.580       253
27.600       227
27.620       353
27.640       287
27.660       287
27.680       200
27.700       193
27.720       313
27.740       267
27.760       307
27.780       273
27.800       240
27.820       220
27.840       340
27.860       207
27.880       260
27.900       260
27.920       287
27.940       453
27.960       400
27.980       253
28.000       200
28.020       240
28.040       307
28.060       247
28.080       287
28.100       220
28.120       313
28.140       180
28.160       280
28.180       253
28.200       273
28.220       253
28.240       233
28.260       233
28.280       200
28.300       213
28.320       267
28.340       247
28.360       273
28.380       233
28.400       200
28.420       233
28.440       247
28.460       267
28.480       273
28.500       287
28.520       233
28.540       273
28.560       293
28.580       307
28.600       273
28.620       253
28.640       253
28.660       320
28.680       247
28.700       253
28.720       220
28.740       273
28.760       187
28.780       307
28.800       240
28.820       253
28.840       207
28.860       220
28.880       253
28.900       180
28.920       220
28.940       227
28.960       273
28.980       280
29.000       193
29.020       240
29.040       213
29.060       220
29.080       280
29.100       280
29.120       220
29.140       193
29.160       280
29.180       287
29.200       240
29.220       173
29.240       293
29.260       227
29.280       173
29.300       273
29.320       227
29.340       260
29.360       233
29.380       267
29.400       220
29.420       180
29.440       307
29.460       233
29.480       193
29.500       240
29.520       233
29.540       160
29.560       193
29.580       280
29.600       313
29.620       227
29.640       260
29.660       167
29.680       280
29.700       167
29.720       173
29.740       227
29.760       247
29.780       267
29.800       233
29.820       193
29.840       280
29.860       207
29.880       193
29.900       227
29.920       260
29.940       227
29.960       253
29.980       193
30.000       273
30.020       167
30.040       193
30.060       220
30.080       247
30.100       200
30.120       167
30.140       187
30.160       160
30.180       193
30.200       213
30.220       207
30.240       127
30.260       167
30.280       180
30.300       280
30.320       153
30.340       180
30.360       160
30.380       160
30.400       167
30.420       167
30.440       213
30.460       167
30.480       193
30.500       227
30.520       127
30.540       147
30.560       133
30.580       100
30.600       200
30.620       153
30.640       173
30.660       213
30.680       240
30.700       207
30.720       147
30.740       220
30.760       180
30.780       147
30.800       153
30.820       220
30.840       193
30.860       160
30.880       247
30.900       160
30.920       147
30.940       193
30.960       180
30.980       153
31.000       153
31.020       133
31.040       167
31.060       180
31.080       160
31.100       187
31.120       147
31.140       167
31.160       187
31.180       180
31.200       173
31.220       173
31.240       100
31.260       140
31.280       173
31.300       180
31.320       127
31.340       207
31.360       180
31.380       247
31.400       187
31.420       227
31.440       160
31.460       180
31.480       213
31.500       167
31.520       267
31.540       260
31.560       333
31.580       220
31.600       387
31.620       340
31.640       287
31.660       327
31.680       526
31.700       347
31.720       387
31.740       420
31.760       446
31.780       453
31.800       380
31.820       393
31.840       486
31.860       446
31.880       393
31.900       320
31.920       367
31.940       360
31.960       267
31.980       300
32.000       280
32.020       173
32.040       300
32.060       213
32.080       180
32.100       173
32.120       160
32.140       153
32.160       193
32.180       207
32.200       120
32.220       153
32.240       107
32.260       153
32.280       173
32.300        87
32.320       207
32.340       167
32.360       140
32.380       187
32.400       180
32.420       127
32.440       113
32.460       180
32.480       113
32.500       127
32.520       180
32.540       140
32.560       100
32.580       100
32.600       213
32.620       140
32.640       100
32.660       120
32.680       140
32.700       120
32.720       147
32.740        93
32.760       153
32.780       153
32.800       193
32.820       107
32.840       100
32.860       127
32.880       187
32.900       113
32.920       127
32.940        87
32.960       140
32.980       127
33.000        93
33.020       113
33.040        53
33.060       100
33.080       120
33.100       100
33.120       107
33.140        93
33.160       173
33.180       113
33.200        80
33.220        93
33.240        80
33.260       107
33.280       133
33.300       140
33.320       133
33.340        93
33.360       113
33.380        93
33.400        60
33.420        93
33.440       100
33.460       113
33.480       140
33.500       167
33.520        93
33.540       140
33.560       120
33.580        87
33.600        80
33.620       127
33.640        93
33.660        40
33.680       107
33.700       153
33.720       120
33.740        67
33.760       120
33.780       127
33.800        67
33.820       113
33.840        93
33.860        73
33.880       113
33.900        60
33.920        53
33.940        87
33.960       100
33.980       107
34.000        87
34.020        73
34.040       107
34.060       100
34.080       100
34.100        87
34.120       153
34.140       107
34.160        80
34.180       107
34.200       100
34.220       100
34.240       127
34.260       100
34.280        67
34.300        93
34.320        67
34.340       120
34.360        53
34.380       127
34.400        87
34.420        93
34.440       107
34.460        87
34.480        80
34.500        93
34.520       107
34.540        93
34.560       133
34.580       100
34.600       113
34.620       127
34.640        73
34.660        60
34.680        87
34.700        53
34.720       107
34.740        80
34.760        93
34.780       107
34.800        93
34.820        60
34.840        87
34.860       107
34.880        87
34.900        93
34.920        73
34.940        87
34.960       107
34.980        47
35.000        80
35.020        87
35.040        73
35.060        87
35.080       100
35.100        80
35.120        73
35.140        47
35.160        80
35.180        73
35.200       107
35.220        40
35.240        87
35.260       127
35.280        80
35.300       100
35.320        80
35.340        87
35.360        73
35.380        60
35.400        80
35.420        53
35.440        60
35.460       100
35.480        40
35.500        60
35.520        47
35.540        53
35.560        87
35.580       120
35.600        40
35.620        60
35.640        87
35.660        40
35.680        40
35.700       100
35.720        80
35.740        40
35.760        80
35.780       120
35.800        93
35.820        67
35.840       100
35.860        67
35.880        87
35.900        73
35.920        67
35.940        67
35.960       127
35.980        73
36.000        73
36.020        60
36.040        47
36.060       133
36.080        73
36.100       100
36.120        67
36.140        80
36.160        40
36.180        80
36.200        53
36.220        67
36.240        73
36.260        40
36.280        60
36.300       107
36.320        47
36.340        87
36.360        47
36.380        47
36.400        73
36.420        73
36.440        87
36.460        67
36.480        93
36.500        53
36.520        67
36.540        60
36.560        60
36.580        67
36.600        67
36.620        47
36.640        73
36.660        47
36.680        60
36.700        73
36.720        53
36.740        67
36.760        67
36.780        53
36.800        67
36.820        53
36.840        73
36.860        93
36.880        53
36.900        53
36.920        80
36.940        47
36.960        47
36.980        33
37.000        53
37.020        27
37.040        53
37.060        67
37.080        93
37.100        20
37.120        53
37.140        87
37.160        93
37.180        80
37.200        93
37.220        87
37.240        60
37.260        47
37.280        53
37.300        87
37.320        53
37.340        60
37.360        67
37.380        60
37.400        27
37.420        60
37.440       100
37.460        60
37.480        40
37.500        40
37.520        27
37.540        60
37.560        60
37.580        80
37.600        47
37.620        80
37.640        53
37.660        60
37.680        80
37.700        67
37.720        40
37.740        67
37.760        27
37.780        47
37.800        40
37.820        73
37.840        60
37.860        40
37.880        60
37.900        53
37.920        67
37.940        73
37.960        60
37.980        40
38.000        47
38.020        47
38.040        47
38.060        87
38.080        33
38.100        67
38.120        73
38.140        20
38.160        53
38.180        87
38.200        53
38.220        33
38.240        67
38.260        47
38.280        40
38.300        40
38.320        53
38.340        47
38.360        40
38.380        33
38.400        67
38.420        40
38.440        40
38.460        67
38.480        33
38.500        67
38.520        47
38.540        40
38.560        20
38.580        60
38.600        47
38.620        47
38.640        33
38.660        47
38.680        47
38.700        27
38.720        53
38.740        53
38.760        67
38.780        40
38.800        67
38.820        67
38.840        60
38.860        20
38.880        60
38.900        60
38.920        40
38.940        53
38.960        60
38.980        47
39.000        60
39.020       100
39.040        60
39.060        53
39.080        20
39.100        20
39.120        67
39.140        47
39.160        47
39.180       100
39.200        40
39.220        93
39.240       120
39.260       107
39.280        73
39.300       153
39.320       127
39.340       147
39.360       113
39.380       187
39.400       127
39.420       127
39.440       133
39.460        93
39.480        87
39.500        80
39.520        73
39.540        53
39.560        80
39.580       113
39.600        67
39.620        33
39.640        47
39.660        93
39.680        53
39.700        47
39.720        60
39.740        47
39.760        53
39.780        60
39.800        93
39.820        60
39.840        33
39.860         7
39.880        47
39.900        53
39.920        27
39.940        40
39.960        47
39.980        60
40.000        67
40.020        93
40.040        47
40.060        87
40.080        73
40.100        27
40.120        53
40.140        33
40.160        80
40.180        73
40.200        47
40.220        47
40.240        47
40.260        80
40.280        40
40.300        40
40.320        67
40.340        73
40.360        47
40.380        47
40.400        27
40.420        40
40.440        20
40.460        40
40.480        47
40.500        40
40.520        53
40.540        20
40.560        47
40.580        73
40.600        53
40.620        40
40.640        67
40.660        53
40.680        20
40.700        60
40.720        53
40.740        40
40.760        60
40.780        20
40.800        60
40.820        47
40.840        60
40.860        20
40.880        67
40.900        60
40.920        33
40.940        47
40.960        47
40.980        20
41.000        20
41.020        33
41.040        40
41.060        33
41.080        53
41.100        60
41.120        73
41.140        27
41.160        33
41.180        13
41.200        20
41.220        40
41.240        60
41.260        40
41.280        27
41.300        33
41.320        33
41.340        80
41.360        20
41.380        33
41.400        27
41.420        27
41.440         7
41.460        27
41.480        73
41.500        27
41.520        47
41.540        27
41.560        73
41.580        47
41.600        53
41.620        60
41.640        20
41.660        47
41.680        33
41.700        27
41.720        67
41.740        27
41.760        53
41.780        27
41.800        53
41.820        33
41.840        27
41.860        47
41.880        47
41.900         7
41.920        20
41.940        27
41.960        20
41.980        53
42.000        27
42.020        13
42.040        13
42.060        27
42.080        53
42.100        33
42.120        20
42.140        33
42.160         7
42.180        27
42.200        47
42.220        33
42.240        47
42.260        80
42.280        20
42.300        27
42.320        33
42.340        47
42.360        60
42.380        27
42.400        20
42.420        33
42.440        47
42.460        47
42.480        33
42.500        53
42.520        27
42.540        27
42.560         7
42.580        13
42.600        40
42.620        33
42.640        60
42.660        47
42.680        47
42.700        27
42.720        47
42.740        73
42.760        33
42.780        40
42.800        67
42.820        20
42.840        33
42.860        47
42.880        40
42.900        47
42.920        27
42.940        40
42.960        53
42.980        40
43.000        13
43.020        47
43.040        33
43.060        53
43.080        33
43.100        20
43.120        60
43.140        13
43.160        40
43.180        33
43.200        80
43.220        47
43.240        53
43.260        40
43.280        13
43.300        13
43.320        40
43.340        20
43.360         7
43.380        40
43.400        33
43.420        20
43.440        53
43.460        20
43.480        40
43.500        40
43.520        60
43.540        13
43.560        40
43.580        27
43.600        27
43.620        33
43.640        13
43.660        27
43.680        40
43.700        20
43.720        60
43.740        40
43.760        20
43.780        20
43.800        27
43.820        47
43.840        27
43.860        80
43.880        13
43.900        33
43.920        33
43.940        27
43.960        53
43.980        53
44.000        27
44.020        73
44.040        13
44.060        27
44.080        40
44.100        27
44.120        53
44.140        20
44.160        33
44.180        40
44.200        27
44.220        27
44.240        33
44.260        27
44.280        60
44.300        40
44.320        20
44.340        33
44.360        47
44.380         7
44.400        53
44.420        80
44.440        53
44.460        87
44.480        20
44.500        47
44.520        27
44.540        40
44.560        40
44.580        40
44.600        53
44.620        60
44.640        20
44.660        27
44.680        60
44.700        33
44.720        33
44.740        47
44.760        47
44.780        13
44.800        53
44.820        47
44.840        27
44.860        40
44.880        60
44.900        67
44.920        40
44.940        40
44.960        33
44.980        67
45.000        47
45.020        60
45.040        60
45.060        47
45.080        73
45.100        53
45.120        40
45.140        33
45.160        20
45.180        40
45.200        53
45.220        13
45.240        80
45.260        20
45.280        47
45.300        40
45.320        67
45.340        33
45.360        73
45.380        60
45.400        87
45.420        53
45.440        60
45.460        80
45.480        47
45.500        67
45.520        80
45.540        87
45.560        80
45.580        27
45.600        73
45.620        47
45.640        87
45.660        67
45.680        73
45.700        80
45.720        60
45.740        40
45.760        87
45.780        13
45.800        60
45.820        60
45.840        73
45.860        73
45.880        40
45.900        60
45.920        40
45.940        60
45.960        27
45.980        40
46.000        87
46.020        47
46.040        53
46.060        33
46.080        33
46.100        20
46.120        53
46.140        40
46.160        27
46.180        47
46.200        47
46.220        47
46.240        33
46.260        13
46.280         7
46.300        40
46.320        47
46.340        53
46.360        33
46.380        60
46.400        40
46.420        53
46.440        47
46.460        33
46.480        93
46.500        87
46.520        40
46.540        27
46.560        27
46.580        40
46.600        67
46.620        40
46.640        20
46.660        60
46.680        53
46.700        47
46.720        27
46.740        27
46.760        60
46.780        67
46.800        73
46.820        40
46.840        53
46.860        73
46.880        80
46.900        53
46.920        67
46.940        47
46.960        47
46.980        87
47.000        53
47.020        73
47.040       107
47.060        93
47.080        87
47.100        87
47.120       100
47.140       187
47.160       387
47.180       760
47.200       760
47.220       806
47.240       713
47.260       520
47.280       307
47.300       160
47.320       127
47.340       167
47.360        40
47.380       107
47.400        47
47.420        67
47.440        40
47.460        40
47.480        53
47.500        67
47.520        60
47.540        67
47.560        53
47.580        80
47.600        40
47.620        53
47.640        27
47.660        27
47.680        60
47.700       107
47.720        60
47.740        60
47.760        40
47.780        47
47.800        87
47.820        73
47.840        20
47.860        53
47.880        40
47.900        27
47.920        53
47.940        47
47.960        40
47.980        33
48.000        20
48.020        40
48.040        47
48.060        27
48.080        40
48.100        67
48.120        20
48.140        47
48.160        47
48.180        33
48.200        33
48.220        27
48.240        47
48.260        33
48.280         7
48.300        73
48.320        47
48.340        53
48.360        53
48.380        53
48.400        33
48.420        40
48.440        27
48.460        67
48.480        80
48.500        33
48.520        20
48.540        47
48.560        33
48.580        73
48.600        33
48.620        53
48.640        20
48.660        20
48.680        40
48.700        40
48.720        47
48.740        40
48.760        20
48.780        33
48.800        33
48.820        47
48.840        47
48.860        47
48.880        47
48.900        27
48.920        47
48.940        47
48.960        20
48.980        33
49.000        47
49.020        40
49.040        53
49.060        73
49.080        27
49.100        33
49.120        20
49.140        33
49.160        33
49.180         7
49.200        47
49.220        33
49.240        47
49.260        33
49.280        67
49.300        40
49.320         7
49.340        20
49.360        60
49.380        40
49.400        27
49.420        33
49.440        20
49.460        47
49.480         7
49.500        33
49.520        13
49.540        53
49.560        27
49.580        67
49.600        20
49.620        27
49.640        53
49.660        27
49.680        73
49.700        40
49.720        27
49.740        47
49.760        60
49.780        40
49.800         7
49.820        60
49.840        47
49.860        47
49.880        13
49.900        13
49.920        33
49.940        33
49.960        40
49.980        20
50.000        93
50.020        27
50.040        33
50.060        27
50.080        33
50.100        27
50.120        47
50.140        40
50.160        67
50.180        40
50.200        27
50.220        33
50.240        33
50.260        40
50.280        33
50.300        33
50.320        27
50.340        80
50.360        60
50.380        60
50.400        60
50.420        27
50.440        40
50.460        40
50.480        60
50.500        53
50.520        27
50.540        80
50.560        53
50.580        53
50.600        80
50.620        53
50.640        73
50.660        87
50.680        87
50.700       193
50.720       207
50.740       233
50.760       220
50.780       247
50.800       187
50.820       280
50.840       220
50.860       207
50.880       220
50.900       227
50.920       287
50.940       280
50.960       300
50.980       147
51.000       313
51.020       247
51.040       280
51.060       233
51.080       280
51.100       227
51.120       273
51.140       253
51.160       260
51.180       220
51.200       307
51.220       213
51.240       280
51.260       247
51.280       293
51.300       273
51.320       233
51.340       153
51.360       307
51.380       307
51.400       373
51.420       240
51.440       233
51.460       267
51.480       240
51.500       220
51.520       300
51.540       307
51.560       193
51.580       253
51.600       313
51.620       227
51.640       293
51.660       207
51.680       240
51.700       273
51.720       300
51.740       240
51.760       240
51.780       260
51.800       313
51.820       287
51.840       387
51.860       327
51.880       347
51.900       446
51.920       280
51.940       367
51.960       293
51.980       347
52.000       367
52.020       273
52.040       380
52.060       353
52.080       407
52.100       473
52.120       407
52.140       493
52.160       600
52.180       453
52.200       500
52.220       686
52.240       573
52.260       600
52.280       793
52.300       960
52.320      1173
52.340      1813
52.360      2006
52.380      1993
52.400      2352
52.420      3059
52.440      4072
52.460      4512
52.480      5731
52.500      7124
52.520     10003
52.540     16167
52.560     45375
52.580     89458
52.600    115900
52.620    114821
52.640     84873
52.660     40950
52.680     23644
52.700     30794
52.720     51866
52.740     64714
52.760     66000
52.780     45975
52.800     21291
52.820      9769
52.840      5964
52.860      4365
52.880      3758
52.900      3112
52.920      2246
52.940      1653
52.960      1406
52.980      1046
53.000       906
53.020       866
53.040       766
53.060       760
53.080       600
53.100       673
53.120       673
53.140       446
53.160       553
53.180       466
53.200       460
53.220       460
53.240       446
53.260       540
53.280       387
53.300       500
53.320       393
53.340       327
53.360       387
53.380       420
53.400       373
53.420       353
53.440       307
53.460       313
53.480       393
53.500       300
53.520       353
53.540       367
53.560       320
53.580       313
53.600       307
53.620       293
53.640       313
53.660       260
53.680       273
53.700       213
53.720       247
53.740       307
53.760       233
53.780       247
53.800       240
53.820       247
53.840       253
53.860       193
53.880       233
53.900       173
53.920       247
53.940       220
53.960       280
53.980       280
54.000       293
54.020       207
54.040       213
54.060       207
54.080       193
54.100       307
54.120       287
54.140       253
54.160       267
54.180       213
54.200       247
54.220       187
54.240       233
54.260       220
54.280       207
54.300       213
54.320       207
54.340       200
54.360       253
54.380       187
54.400       187
54.420       207
54.440       167
54.460       213
54.480       220
54.500       247
54.520       187
54.540       193
54.560       187
54.580       180
54.600       200
54.620       167
54.640       267
54.660       227
54.680       160
54.700       193
54.720       167
54.740       153
54.760       187
54.780       280
54.800       153
54.820       187
54.840       207
54.860       200
54.880       133
54.900       160
54.920       133
54.940       240
54.960       173
54.980       233
55.000       133
55.020       173
55.040       180
55.060       173
55.080       233
55.100       240
55.120       167
55.140       180
55.160       273
55.180       167
55.200       287
55.220       193
55.240       140
55.260       200
55.280       127
55.300       140
55.320       167
55.340       113
55.360       127
55.380       200
55.400       160
55.420       187
55.440       167
55.460       167
55.480       173
55.500       133
55.520       107
55.540       127
55.560       153
55.580       200
55.600        93
55.620       173
55.640       140
55.660       140
55.680       187
55.700       213
55.720       127
55.740       167
55.760       173
55.780       160
55.800       140
55.820       167
55.840       113
55.860       180
55.880       113
55.900       113
55.920       173
55.940       167
55.960       140
55.980       167
56.000       127
56.020       180
56.040       100
56.060       140
56.080       193
56.100       180
56.120       147
56.140       173
56.160       147
56.180       160
56.200       153
56.220       113
56.240       160
56.260        93
56.280       133
56.300       140
56.320       133
56.340       107
56.360       153
56.380       127
56.400       107
56.420       127
56.440       133
56.460       127
56.480       173
56.500       100
56.520       147
56.540       140
56.560       173
56.580       100
56.600       193
56.620       153
56.640       187
56.660       133
56.680       193
56.700       247
56.720       173
56.740       147
56.760       160
56.780       167
56.800       187
56.820       187
56.840       147
56.860       133
56.880       160
56.900       120
56.920       107
56.940       113
56.960       153
56.980       187
57.000       127
57.020       153
57.040       140
57.060       133
57.080       120
57.100       160
57.120       107
57.140       153
57.160       127
57.180        60
57.200        93
57.220       107
57.240       147
57.260       107
57.280       173
57.300       107
57.320       127
57.340       100
57.360       147
57.380       107
57.400       200
57.420        93
57.440       167
57.460       100
57.480       100
57.500        60
57.520       133
57.540       127
57.560       167
57.580       160
57.600       153
57.620       140
57.640       100
57.660        87
57.680       120
57.700       133
57.720       113
57.740       180
57.760        87
57.780       107
57.800        87
57.820       127
57.840        93
57.860       127
57.880       167
57.900       113
57.920       107
57.940       133
57.960        93
57.980       173
58.000       107
58.020       120
58.040       120
58.060        87
58.080       133
58.100       173
58.120       147
58.140       113
58.160       107
58.180        73
58.200       160
58.220       147
58.240       100
58.260       113
58.280        93
58.300        73
58.320        87
58.340       140
58.360        80
58.380        93
58.400        67
58.420        93
58.440       140
58.460       127
58.480        93
58.500       100
58.520       147
58.540        80
58.560        80
58.580       113
58.600       113
58.620       153
58.640       113
58.660        87
58.680       100
58.700       107
58.720       107
58.740       127
58.760       147
58.780        80
58.800        80
58.820       100
58.840       140
58.860        53
58.880       107
58.900        47
58.920       120
58.940        73
58.960       107
58.980        80
59.000       133
59.020       127
59.040       100
59.060        60
59.080       140
59.100       120
59.120       120
59.140       127
59.160       100
59.180        73
59.200        60
59.220       127
59.240        87
59.260       127
59.280        93
59.300       113
59.320       127
59.340       100
59.360        60
59.380       100
59.400        80
59.420        87
59.440        33
59.460       113
59.480        93
59.500        93
59.520       120
59.540        80
59.560        67
59.580        73
59.600       113
59.620        80
59.640       107
59.660        87
59.680       100
59.700        60
59.720       127
59.740       113
59.760        87
59.780        60
59.800        93
59.820       140
59.840        47
59.860        80
59.880        73
59.900        93
59.920        73
59.940        73
59.960        87
59.980       113
60.000       107
