20.000        63
20.020        63
20.040        73
20.060        63
20.080        70
20.100        83
20.120        70
20.140        87
20.160        67
20.180        60
20.200        87
20.220        57
20.240        67
20.260        87
20.280        53
20.300        37
20.320        67
20.340        63
20.360        57
20.380       100
20.400        70
20.420        70
20.440        60
20.460        73
20.480        57
20.500        43
20.520        97
20.540        87
20.560        63
20.580        63
20.600        57
20.620        80
20.640        63
20.660        60
20.680        67
20.700        83
20.720        57
20.740        87
20.760        37
20.780        40
20.800        60
20.820        90
20.840        63
20.860        50
20.880        53
20.900        53
20.920        63
20.940        63
20.960        57
20.980        77
21.000        57
21.020        50
21.040        63
21.060        60
21.080       100
21.100        60
21.120        63
21.140       113
21.160        70
21.180       117
21.200        60
21.220        90
21.240       100
21.260        90
21.280        87
21.300        77
21.320        90
21.340        97
21.360        77
21.380        63
21.400        60
21.420        60
21.440        60
21.460        67
21.480        93
21.500        57
21.520        53
21.540        77
21.560        77
21.580        47
21.600        43
21.620        50
21.640        40
21.660        77
21.680        70
21.700        73
21.720        57
21.740        47
21.760        77
21.780        63
21.800        57
21.820        60
21.840        70
21.860        50
21.880        47
21.900        93
21.920        67
21.940        37
21.960        67
21.980        63
22.000        83
22.020        43
22.040        60
22.060        67
22.080        63
22.100        67
22.120        77
22.140        50
22.160        73
22.180        57
22.200        47
22.220        73
22.240        60
22.260        50
22.280        53
22.300        83
22.320       120
22.340        87
22.360        83
22.380        70
22.400       160
22.420       130
22.440       227
22.460       243
22.480       207
22.500       217
22.520       213
22.540       163
22.560       183
22.580       130
22.600       110
22.620       120
22.640        97
22.660       123
22.680        60
22.700        87
22.720        73
22.740        83
22.760        53
22.780        57
22.800        57
22.820        60
22.840        70
22.860        57
22.880        50
22.900        57
22.920        53
22.940        53
22.960        70
22.980        50
23.000        80
23.020        77
23.040        37
23.060        40
23.080        60
23.100        53
23.120        30
23.140        57
23.160        60
23.180        50
23.200        53
23.220        63
23.240        37
23.260        50
23.280        53
23.300        70
23.320        50
23.340        60
23.360        80
23.380        93
23.400        67
23.420        30
23.440        57
23.460        77
23.480        70
23.500        67
23.520        60
23.540        87
23.560        60
23.580        80
23.600        57
23.620        80
23.640       100
23.660        63
23.680        73
23.700        43
23.720       100
23.740        67
23.760        70
23.780        57
23.800        43
23.820        57
23.840        50
23.860        53
23.880        63
23.900        50
23.920        60
23.940        57
23.960        57
23.980        57
24.000        80
24.020        33
24.040        53
24.060        50
24.080        47
24.100        53
24.120        77
24.140        63
24.160        43
24.180        60
24.200        73
24.220        63
24.240        77
24.260        63
24.280        63
24.300        87
24.320        63
24.340        53
24.360        50
24.380        53
24.400        70
24.420        63
24.440        67
24.460        50
24.480        70
24.500        57
24.520        50
24.540        57
24.560        63
24.580        33
24.600        80
24.620        53
24.640        70
24.660        70
24.680        57
24.700        67
24.720        60
24.740        70
24.760        60
24.780        73
24.800        80
24.820        57
24.840        63
24.860        43
24.880        73
24.900        60
24.920        63
24.940        43
24.960        40
24.980        70
25.000        50
25.020        67
25.040        43
25.060        50
25.080        57
25.100        50
25.120        57
25.140        50
25.160        37
25.180        27
25.200        73
25.220        67
25.240        67
25.260        40
25.280        77
25.300        40
25.320        67
25.340        60
25.360        30
25.380        70
25.400        37
25.420        67
25.440        47
25.460        57
25.480        57
25.500        60
25.520        70
25.540        37
25.560        57
25.580        53
25.600        37
25.620        40
25.640        30
25.660        43
25.680        43
25.700        50
25.720        40
25.740        30
25.760        43
25.780        37
25.800        43
25.820        43
25.840        63
25.860        30
25.880        57
25.900        30
25.920        53
25.940        37
25.960        47
25.980        33
26.000        50
26.020        50
26.040        43
26.060        30
26.080        57
26.100        50
26.120        40
26.140        70
26.160        43
26.180        47
26.200        33
26.220        43
26.240        60
26.260        30
26.280        47
26.300        53
26.320        30
26.340        47
26.360        57
26.380        53
26.400        53
26.420        47
26.440        50
26.460        57
26.480        17
26.500        37
26.520        53
26.540        53
26.560        27
26.580        53
26.600        63
26.620        37
26.640        37
26.660        43
26.680        67
26.700        27
26.720        60
26.740        20
26.760        47
26.780        67
26.800        20
26.820        53
26.840        47
26.860        90
26.880        37
26.900        53
26.920        57
26.940        47
26.960        73
26.980        43
27.000        23
27.020        47
27.040        57
27.060        67
27.080        37
27.100        50
27.120        53
27.140        27
27.160        43
27.180        27
27.200        30
27.220        50
27.240        40
27.260        50
27.280        60
27.300        53
27.320        73
27.340        50
27.360        20
27.380        60
27.400        33
27.420        63
27.440        37
27.460        53
27.480        40
27.500        30
27.520        63
27.540        40
27.560        50
27.580        47
27.600        63
27.620        57
27.640        23
27.660        47
27.680        33
27.700        53
27.720        50
27.740        53
27.760        50
27.780        40
27.800        43
27.820        30
27.840        43
27.860        43
27.880        47
27.900        43
27.920        50
27.940        37
27.960        33
27.980        43
28.000        37
28.020        27
28.040        53
28.060        50
28.080        47
28.100        47
28.120        30
28.140        43
28.160        33
28.180        70
28.200        43
28.220        37
28.240        23
28.260        40
28.280        43
28.300        40
28.320        53
28.340        50
28.360        33
28.380        30
28.400        57
28.420        50
28.440        33
28.460        33
28.480        27
28.500        57
28.520        53
28.540        37
28.560        37
28.580        37
28.600        20
28.620        60
28.640        53
28.660        47
28.680        57
28.700        17
28.720        40
28.740        50
28.760        47
28.780        57
28.800        30
28.820        53
28.840        47
28.860        33
28.880        37
28.900        50
28.920        53
28.940        43
28.960        27
28.980        33
29.000        40
29.020        47
29.040        63
29.060        63
29.080        30
29.100        57
29.120        50
29.140        47
29.160        47
29.180        63
29.200        80
29.220       107
29.240        90
29.260        97
29.280        97
29.300       123
29.320       133
29.340       107
29.360       120
29.380        97
29.400        93
29.420        67
29.440        70
29.460        60
29.480        67
29.500        53
29.520        43
29.540        33
29.560        20
29.580        43
29.600        23
29.620        63
29.640        43
29.660        40
29.680        37
29.700        30
29.720        40
29.740        47
29.760        53
29.780        30
29.800        23
29.820        40
29.840        60
29.860        27
29.880        40
29.900        50
29.920        40
29.940        37
29.960        37
29.980        37
30.000        33
30.020        43
30.040        33
30.060        47
30.080        60
30.100        37
30.120        40
30.140        37
30.160        33
30.180        23
30.200        40
30.220        47
30.240        20
30.260        27
30.280        40
30.300        30
30.320        40
30.340        30
30.360        33
30.380        37
30.400        37
30.420        33
30.440        37
30.460        53
30.480        37
30.500        40
30.520        60
30.540        53
30.560        40
30.580        43
30.600        53
30.620        47
30.640        60
30.660        23
30.680        40
30.700        77
30.720        20
30.740        63
30.760        37
30.780        43
30.800        40
30.820        53
30.840        70
30.860        60
30.880        37
30.900        37
30.920        37
30.940        53
30.960        50
30.980        43
31.000        40
31.020        37
31.040        37
31.060        47
31.080        97
31.100        43
31.120        43
31.140        53
31.160        37
31.180        70
31.200        70
31.220        53
31.240        17
31.260        57
31.280        70
31.300        73
31.320        57
31.340        43
31.360        53
31.380        73
31.400        60
31.420        63
31.440        50
31.460        50
31.480        30
31.500        57
31.520        43
31.540        70
31.560        53
31.580        73
31.600        43
31.620        80
31.640        87
31.660        97
31.680        67
31.700        70
31.720        73
31.740        80
31.760        73
31.780       100
31.800       107
31.820        93
31.840       133
31.860       103
31.880       153
31.900       190
31.920       253
31.940       273
31.960       217
31.980       307
32.000       210
32.020       247
32.040       237
32.060       260
32.080       340
32.100       397
32.120       713
32.140      1100
32.160      1446
32.180      1186
32.200       696
32.220       390
32.240       193
32.260       147
32.280       127
32.300       167
32.320       157
32.340       120
32.360       127
32.380       133
32.400       107
32.420       130
32.440        87
32.460       103
32.480        93
32.500        83
32.520        73
32.540       113
32.560       100
32.580       123
32.600        97
32.620       133
32.640       117
32.660       117
32.680        80
32.700       100
32.720        97
32.740       107
32.760        93
32.780        60
32.800       100
32.820        73
32.840        73
32.860        63
32.880        47
32.900       103
32.920        80
32.940       100
32.960        73
32.980        63
33.000        57
33.020        70
33.040        80
33.060        63
33.080        70
33.100        90
33.120        80
33.140        93
33.160        80
33.180        70
33.200       123
33.220        83
33.240        73
33.260        57
33.280        80
33.300        77
33.320        63
33.340        57
33.360        73
33.380       100
33.400        93
33.420        70
33.440        87
33.460        80
33.480        80
33.500        90
33.520        37
33.540        83
33.560        47
33.580       107
33.600        67
33.620        80
33.640        87
33.660        97
33.680        70
33.700        77
33.720        67
33.740        70
33.760        60
33.780        83
33.800        83
33.820        87
33.840        63
33.860        57
33.880        80
33.900        90
33.920        70
33.940        70
33.960        70
33.980        80
34.000        87
34.020        50
34.040       103
34.060        90
34.080       120
34.100        60
34.120        77
34.140        83
34.160        87
34.180        87
34.200       100
34.220       107
34.240        97
34.260        87
34.280        70
34.300       107
34.320       120
34.340       113
34.360       133
34.380       173
34.400       153
34.420       230
34.440       297
34.460       380
34.480       510
34.500       570
34.520       486
34.540       526
34.560       496
34.580       510
34.600       466
34.620       560
34.640       496
34.660       533
34.680       536
34.700       493
34.720       516
34.740       520
34.760       526
34.780       583
34.800       653
34.820       503
34.840       560
34.860       546
34.880       623
34.900       573
34.920       676
34.940       623
34.960       550
34.980       520
35.000       623
35.020       596
35.040       723
35.060       570
35.080       533
35.100       623
35.120       670
35.140       596
35.160       696
35.180       676
35.200       710
35.220       793
35.240       720
35.260       776
35.280       850
35.300       843
35.320       970
35.340      1060
35.360      1143
35.380      1709
35.400      2396
35.420      3742
35.440      5454
35.460      7730
35.480      9673
35.500     11862
35.520     13894
35.540     13961
35.560     14971
35.580     15724
35.600     18822
35.620     32704
35.640     81407
35.660    143926
35.680    178102
35.700    181507
35.720    131208
35.740     86842
35.760     97618
35.780    109913
35.800     96338
35.820     47448
35.840     14554
35.860      6631
35.880      4651
35.900      3409
35.920      2756
35.940      2306
35.960      1939
35.980      1599
36.000      1563
36.020      1266
36.040      1286
36.060      1186
36.080      1170
36.100      1116
36.120      1076
36.140       950
36.160       930
36.180       973
36.200       850
36.220       853
36.240       893
36.260       846
36.280       820
36.300       773
36.320       726
36.340       700
36.360       673
36.380       683
36.400       646
36.420       706
36.440       690
36.460       596
36.480       623
36.500       610
36.520       583
36.540       646
36.560       650
36.580       543
36.600       560
36.620       536
36.640       693
36.660       640
36.680       550
36.700       573
36.720       630
36.740       563
36.760       476
36.780       466
36.800       550
36.820       583
36.840       500
36.860       596
36.880       603
36.900       583
36.920       510
36.940       590
36.960       476
36.980       486
37.000       556
37.020       473
37.040       443
37.060       516
37.080       456
37.100       466
37.120       440
37.140       367
37.160       413
37.180       460
37.200       476
37.220       443
37.240       423
37.260       476
37.280       423
37.300       456
37.320       450
37.340       420
37.360       433
37.380       446
37.400       426
37.420       480
37.440       383
37.460       390
37.480       370
37.500       390
37.520       450
37.540       413
37.560       476
37.580       453
37.600       433
37.620       440
37.640       426
37.660       430
37.680       360
37.700       433
37.720       340
37.740       446
37.760       347
37.780       320
37.800       403
37.820       430
37.840       327
37.860       360
37.880       370
37.900       407
37.920       397
37.940       357
37.960       390
37.980       347
38.000       377
38.020       426
38.040       380
38.060       343
38.080       367
38.100       340
38.120       380
38.140       367
38.160       367
38.180       313
38.200       387
38.220       357
38.240       413
38.260       363
38.280       367
38.300       387
38.320       340
38.340       400
38.360       350
38.380       397
38.400       373
38.420       360
38.440       413
38.460       350
38.480       333
38.500       343
38.520       387
38.540       337
38.560       340
38.580       360
38.600       320
38.620       327
38.640       403
38.660       317
38.680       383
38.700       350
38.720       323
38.740       397
38.760       340
38.780       353
38.800       383
38.820       347
38.840       343
38.860       320
38.880       340
38.900       263
38.920       320
38.940       307
38.960       337
38.980       387
39.000       293
39.020       413
39.040       340
39.060       300
39.080       343
39.100       267
39.120       330
39.140       320
39.160       330
39.180       297
39.200       317
39.220       323
39.240       347
39.260       327
39.280       343
39.300       330
39.320       310
39.340       363
39.360       310
39.380       333
39.400       330
39.420       293
39.440       327
39.460       347
39.480       333
39.500       343
39.520       303
39.540       353
39.560       310
39.580       280
39.600       380
39.620       263
39.640       287
39.660       367
39.680       333
39.700       293
39.720       327
39.740       353
39.760       240
39.780       340
39.800       333
39.820       333
39.840       303
39.860       300
39.880       303
39.900       297
39.920       317
39.940       257
39.960       267
39.980       230
40.000       253
40.020       287
40.040       270
40.060       263
40.080       253
40.100       347
40.120       220
40.140       300
40.160       277
40.180       247
40.200       297
40.220       270
40.240       310
40.260       290
40.280       287
40.300       273
40.320       297
40.340       310
40.360       257
40.380       297
40.400       237
40.420       273
40.440       270
40.460       287
40.480       357
40.500       250
40.520       300
40.540       257
40.560       297
40.580       283
40.600       237
40.620       300
40.640       293
40.660       247
40.680       273
40.700       227
40.720       217
40.740       247
40.760       303
40.780       297
40.800       310
40.820       257
40.840       240
40.860       227
40.880       253
40.900       297
40.920       307
40.940       263
40.960       267
40.980       227
41.000       253
41.020       250
41.040       250
41.060       250
41.080       240
41.100       260
41.120       280
41.140       233
41.160       230
41.180       260
41.200       250
41.220       227
41.240       273
41.260       263
41.280       250
41.300       250
41.320       240
41.340       203
41.360       263
41.380       263
41.400       240
41.420       243
41.440       217
41.460       267
41.480       233
41.500       273
41.520       217
41.540       263
41.560       240
41.580       250
41.600       260
41.620       287
41.640       263
41.660       217
41.680       263
41.700       250
41.720       217
41.740       243
41.760       237
41.780       277
41.800       217
41.820       180
41.840       197
41.860       223
41.880       273
41.900       223
41.920       220
41.940       260
41.960       253
41.980       213
42.000       213
42.020       230
42.040       203
42.060       223
42.080       173
42.100       213
42.120       223
42.140       213
42.160       233
42.180       253
42.200       170
42.220       233
42.240       203
42.260       233
42.280       233
42.300       193
42.320       203
42.340       253
42.360       187
42.380       223
42.400       267
42.420       213
42.440       233
42.460       207
42.480       217
42.500       200
42.520       227
42.540       200
42.560       173
42.580       183
42.600       200
42.620       147
42.640       203
42.660       247
42.680       167
42.700       213
42.720       187
42.740       173
42.760       240
42.780       213
42.800       173
42.820       183
42.840       197
42.860       233
42.880       213
42.900       207
42.920       173
42.940       223
42.960       200
42.980       200
43.000       270
43.020       177
43.040       227
43.060       223
43.080       173
43.100       213
43.120       210
43.140       227
43.160       213
43.180       217
43.200       173
43.220       243
43.240       210
43.260       180
43.280       187
43.300       207
43.320       210
43.340       187
43.360       207
43.380       190
43.400       187
43.420       183
43.440       193
43.460       140
43.480       197
43.500       163
43.520       180
43.540       237
43.560       173
43.580       157
43.600       170
43.620       213
43.640       207
43.660       223
43.680       190
43.700       213
43.720       203
43.740       190
43.760       167
43.780       143
43.800       210
43.820       217
43.840       133
43.860       237
43.880       190
43.900       173
43.920       160
43.940       140
43.960       147
43.980       160
44.000       173
44.020       157
44.040       163
44.060       150
44.080       137
44.100       173
44.120       173
44.140       163
44.160       153
44.180       210
44.200       160
44.220       207
44.240       200
44.260       170
44.280       153
44.300       210
44.320       177
44.340       183
44.360       183
44.380       147
44.400       187
44.420       193
44.440       187
44.460       187
44.480       220
44.500       160
44.520       143
44.540       170
44.560       133
44.580       157
44.600       160
44.620       120
44.640       127
44.660       207
44.680       190
44.700       180
44.720       187
44.740       220
44.760       243
44.780       150
44.800       160
44.820       133
44.840       190
44.860       173
44.880       133
44.900       180
44.920       117
44.940       180
44.960       183
44.980       173
45.000       187
45.020       177
45.040       153
45.060       200
45.080       153
45.100       163
45.120       183
45.140       147
45.160       160
45.180       147
45.200       167
45.220       187
45.240       177
45.260       190
45.280       173
45.300       190
45.320       170
45.340       147
45.360       150
45.380       220
45.400       223
45.420       163
45.440       193
45.460       193
45.480       177
45.500       210
45.520       253
45.540       220
45.560       203
45.580       220
45.600       287
45.620       237
45.640       340
45.660       340
45.680       407
45.700       440
45.720       470
45.740       446
45.760       483
45.780       576
45.800       643
45.820       553
45.840       720
45.860       736
45.880       716
45.900       676
45.920       640
45.940       533
45.960       590
45.980       540
46.000       576
46.020       530
46.040       503
46.060       463
46.080       417
46.100       436
46.120       290
46.140       327
46.160       257
46.180       313
46.200       270
46.220       253
46.240       193
46.260       220
46.280       227
46.300       253
46.320       193
46.340       170
46.360       207
46.380       160
46.400       190
46.420       143
46.440       140
46.460       180
46.480       177
46.500       140
46.520       147
46.540       150
46.560       127
46.580       163
46.600       140
46.620       163
46.640       120
46.660       167
46.680       157
46.700       160
46.720       157
46.740       173
46.760       187
46.780       150
46.800       143
46.820       130
46.840       150
46.860       157
46.880       153
46.900       100
46.920       140
46.940       130
46.960       137
46.980       180
47.000        83
47.020       173
47.040       163
47.060       137
47.080       127
47.100       153
47.120       143
47.140        90
47.160       167
47.180       147
47.200        77
47.220       130
47.240       117
47.260       160
47.280       120
47.300       203
47.320       123
47.340       147
47.360       133
47.380       153
47.400       160
47.420       170
47.440       150
47.460       127
47.480       153
47.500       163
47.520       137
47.540       190
47.560       153
47.580       143
47.600       150
47.620       163
47.640       123
47.660       127
47.680       127
47.700       110
47.720       120
47.740       120
47.760       113
47.780       127
47.800       110
47.820       153
47.840       140
47.860       120
47.880       100
47.900       117
47.920       113
47.940       120
47.960       130
47.980       130
48.000       117
48.020       123
48.040       120
48.060       127
48.080       117
48.100       163
48.120        97
48.140       137
48.160       200
48.180       200
48.200       180
48.220       187
48.240       123
48.260       130
48.280       150
48.300       140
48.320       167
48.340       123
48.360       190
48.380       140
48.400       173
48.420       107
48.440       170
48.460       107
48.480       120
48.500       170
48.520       157
48.540       130
48.560       147
48.580       117
48.600       120
48.620        90
48.640        80
48.660        97
48.680       107
48.700       107
48.720       117
48.740       123
48.760       107
48.780       103
48.800       133
48.820       103
48.840       100
48.860       100
48.880        77
48.900        97
48.920        97
48.940        87
48.960        83
48.980        73
49.000        87
49.020        90
49.040        90
49.060       100
49.080        90
49.100       113
49.120        97
49.140       110
49.160        87
49.180       110
49.200        67
49.220        77
49.240        93
49.260       110
49.280        97
49.300       107
49.320        87
49.340       107
49.360        97
49.380       110
49.400        73
49.420       137
49.440       107
49.460       137
49.480        90
49.500        97
49.520        70
49.540        93
49.560       127
49.580       117
49.600        57
49.620        93
49.640        93
49.660       110
49.680       120
49.700       110
49.720        83
49.740        83
49.760       100
49.780        97
49.800        83
49.820       117
49.840        90
49.860        97
49.880        97
49.900        77
49.920        53
49.940        83
49.960        83
49.980        93
50.000       130
50.020       140
50.040        97
50.060        97
50.080       120
50.100       100
50.120        97
50.140        93
50.160       100
50.180       110
50.200        70
50.220       100
50.240       107
50.260       103
50.280        80
50.300        60
50.320       113
50.340       103
50.360        73
50.380       100
50.400        87
50.420        70
50.440        73
50.460        93
50.480        93
50.500        87
50.520       100
50.540        80
50.560       100
50.580       123
50.600        83
50.620       110
50.640        97
50.660        80
50.680        90
50.700        93
50.720        70
50.740        87
50.760        70
50.780       130
50.800        83
50.820        90
50.840        87
50.860        87
50.880        50
50.900        97
50.920        83
50.940        83
50.960        80
50.980        93
51.000       103
51.020        87
51.040        80
51.060        57
51.080        77
51.100        97
51.120        93
51.140       100
51.160        80
51.180        60
51.200        73
51.220       113
51.240       107
51.260        87
51.280       113
51.300       103
51.320        70
51.340        70
51.360       120
51.380        93
51.400       100
51.420        70
51.440       100
51.460        90
51.480       117
51.500        80
51.520        83
51.540        67
51.560        77
51.580        73
51.600        73
51.620        90
51.640        83
51.660        93
51.680       103
51.700        57
51.720        73
51.740        87
51.760       110
51.780       113
51.800        93
51.820        80
51.840        93
51.860        80
51.880        80
51.900        67
51.920        67
51.940        93
51.960        97
51.980        70
52.000       113
52.020        47
52.040       100
52.060        93
52.080        63
52.100        87
52.120        87
52.140        73
52.160        70
52.180        83
52.200        70
52.220        97
52.240        83
52.260        73
52.280        67
52.300        67
52.320       107
52.340        80
52.360        93
52.380        80
52.400        93
52.420        77
52.440       117
52.460       110
52.480        83
52.500        80
52.520        67
52.540        87
52.560        97
52.580        57
52.600        70
52.620        87
52.640        60
52.660        97
52.680        53
52.700        93
52.720       100
52.740        47
52.760        70
52.780        90
52.800        73
52.820        90
52.840        53
52.860        70
52.880        90
52.900        73
52.920        70
52.940        87
52.960        73
52.980       103
53.000        70
53.020        93
53.040        67
53.060        93
53.080        63
53.100        83
53.120        60
53.140        60
53.160        73
53.180        90
53.200        60
53.220        63
53.240        87
53.260        70
53.280        70
53.300        90
53.320       107
53.340        87
53.360        70
53.380        90
53.400        63
53.420        70
53.440        77
53.460        97
53.480        80
53.500        70
53.520        97
53.540        70
53.560        87
53.580        67
53.600        53
53.620        70
53.640        87
53.660        67
53.680        83
53.700        77
53.720        93
53.740        83
53.760        83
53.780        83
53.800        50
53.820        73
53.840        53
53.860        80
53.880        63
53.900        77
53.920        77
53.940        70
53.960        53
53.980        73
54.000        67
54.020        43
54.040        97
54.060        63
54.080        90
54.100        57
54.120       100
54.140        53
54.160        67
54.180        70
54.200        77
54.220        77
54.240        90
54.260        73
54.280        93
54.300        83
54.320       107
54.340       103
54.360        97
54.380        90
54.400        77
54.420        57
54.440        90
54.460        53
54.480        83
54.500       103
54.520        90
54.540        70
54.560        93
54.580        90
54.600        90
54.620        97
54.640        67
54.660       123
54.680       103
54.700        83
54.720        93
54.740       100
54.760       100
54.780       133
54.800        90
54.820       123
54.840       130
54.860        70
54.880        90
54.900       110
54.920        97
54.940       123
54.960        60
54.980        77
55.000        70
55.020        73
55.040        50
55.060        67
55.080        73
55.100        47
55.120        80
55.140        80
55.160        77
55.180       120
55.200        63
55.220        83
55.240        90
55.260        93
55.280        77
55.300        83
55.320        70
55.340        83
55.360        63
55.380        83
55.400        83
55.420        83
55.440        93
55.460        57
55.480        73
55.500        67
55.520        57
55.540        50
55.560        90
55.580        83
55.600        53
55.620        73
55.640        83
55.660        90
55.680        73
55.700       100
55.720        63
55.740        97
55.760        67
55.780        93
55.800        70
55.820        53
55.840        57
55.860        83
55.880        77
55.900        60
55.920        77
55.940        60
55.960        47
55.980        67
56.000        80
56.020        70
56.040        77
56.060        43
56.080        70
56.100        80
56.120        57
56.140        83
56.160        63
56.180        53
56.200        90
56.220        60
56.240        70
56.260        80
56.280        80
56.300        60
56.320        57
56.340        50
56.360        67
56.380        77
56.400        83
56.420        70
56.440        70
56.460        93
56.480        87
56.500        90
56.520        87
56.540       103
56.560       107
56.580       107
56.600        90
56.620        87
56.640       100
56.660        80
56.680        60
56.700       107
56.720        83
56.740        63
56.760        57
56.780        47
56.800        67
56.820        73
56.840        57
56.860        70
56.880       127
56.900        93
56.920        50
56.940        80
56.960        87
56.980        77
57.000        83
57.020        80
57.040        77
57.060       113
57.080        43
57.100        90
57.120        77
57.140       100
57.160       110
57.180       100
57.200       103
57.220        97
57.240       120
57.260        80
57.280        73
57.300        93
57.320       100
57.340        90
57.360       113
57.380        83
57.400        83
57.420       103
57.440        73
57.460        90
57.480        80
57.500        73
57.520        57
57.540        83
57.560        53
57.580        73
57.600        70
57.620       107
57.640        73
57.660        83
57.680        80
57.700        73
57.720        93
57.740        63
57.760        70
57.780        93
57.800        60
57.820        70
57.840        80
57.860        67
57.880        60
57.900        97
57.920        70
57.940        80
57.960        90
57.980        73
58.000        70
58.020        87
58.040        83
58.060        87
58.080        67
58.100       103
58.120        80
58.140        90
58.160        73
58.180        63
58.200        63
58.220        63
58.240        63
58.260        63
58.280        87
58.300        53
58.320        60
58.340        73
58.360        70
58.380        50
58.400        63
58.420        70
58.440        83
58.460        60
58.480        43
58.500        53
58.520        40
58.540        77
58.560        73
58.580        67
58.600        67
58.620        77
58.640        83
58.660        73
58.680        83
58.700        97
58.720        73
58.740        70
58.760        80
58.780        90
58.800        67
58.820        77
58.840        47
58.860        50
58.880        73
58.900        90
58.920        93
58.940        90
58.960        73
58.980        60
59.000        70
59.020        63
59.040        47
59.060        37
59.080        73
59.100        40
59.120        80
59.140        73
59.160        80
59.180        87
59.200        53
59.220        70
59.240        87
59.260        70
59.280        50
59.300        90
59.320        80
59.340        67
59.360        50
59.380        87
59.400        53
59.420        73
59.440        87
59.460        93
59.480        93
59.500        73
59.520        80
59.540        90
59.560        53
59.580        63
59.600        63
59.620        70
59.640        97
59.660        40
59.680        67
59.700        70
59.720        73
59.740        73
59.760        73
59.780        57
59.800        70
59.820        60
59.840        47
59.860        80
59.880        60
59.900        77
59.920        53
59.940        80
59.960        67
59.980        53
60.000        70
