20.000       123
20.020       120
20.040        83
20.060       103
20.080       137
20.100       113
20.120       120
20.140       120
20.160       113
20.180        97
20.200       117
20.220       130
20.240        77
20.260        97
20.280       130
20.300       103
20.320       110
20.340       140
20.360       103
20.380       100
20.400       117
20.420       137
20.440       127
20.460       113
20.480       100
20.500       117
20.520       123
20.540       110
20.560       140
20.580       123
20.600       113
20.620       117
20.640       117
20.660       130
20.680       103
20.700       143
20.720       107
20.740       147
20.760       100
20.780        90
20.800       150
20.820       147
20.840       137
20.860       103
20.880       103
20.900       117
20.920       120
20.940       103
20.960       137
20.980       123
21.000       110
21.020       137
21.040        97
21.060        90
21.080       107
21.100        90
21.120       113
21.140       113
21.160       150
21.180       103
21.200       133
21.220       110
21.240       113
21.260       117
21.280       113
21.300       117
21.320       120
21.340       107
21.360       143
21.380       110
21.400        97
21.420       133
21.440       127
21.460        87
21.480       140
21.500       133
21.520        87
21.540       127
21.560       110
21.580        90
21.600        87
21.620       117
21.640        90
21.660       100
21.680       100
21.700       107
21.720       110
21.740        77
21.760       113
21.780       117
21.800       103
21.820        97
21.840        77
21.860       113
21.880       147
21.900       123
21.920        93
21.940       110
21.960       110
21.980       120
22.000        77
22.020       103
22.040        93
22.060       127
22.080       110
22.100        97
22.120        87
22.140        93
22.160       127
22.180       113
22.200       113
22.220        80
22.240        90
22.260        90
22.280       113
22.300       127
22.320       127
22.340        83
22.360       123
22.380       123
22.400       100
22.420        90
22.440       103
22.460        93
22.480        90
22.500       100
22.520       113
22.540       107
22.560       113
22.580       100
22.600        90
22.620       113
22.640        83
22.660        83
22.680        67
22.700       113
22.720       110
22.740       103
22.760        93
22.780        97
22.800        83
22.820       107
22.840        97
22.860       107
22.880       113
22.900        83
22.920        90
22.940        93
22.960       137
22.980        67
23.000       110
23.020       103
23.040       120
23.060        93
23.080       127
23.100        90
23.120       100
23.140        90
23.160       103
23.180       103
23.200       107
23.220       110
23.240       103
23.260        90
23.280       107
23.300        93
23.320       137
23.340        70
23.360       113
23.380        87
23.400        83
23.420        93
23.440        80
23.460        63
23.480        97
23.500        93
23.520       127
23.540        97
23.560        87
23.580       110
23.600       113
23.620       107
23.640       157
23.660        83
23.680        90
23.700        97
23.720       103
23.740       113
23.760       110
23.780        97
23.800        87
23.820       100
23.840        83
23.860        77
23.880        87
23.900       123
23.920        77
23.940       150
23.960        87
23.980       107
24.000        93
24.020        97
24.040       123
24.060       120
24.080        93
24.100        77
24.120        93
24.140       107
24.160        77
24.180        83
24.200       143
24.220        93
24.240        90
24.260        97
24.280       107
24.300       110
24.320        97
24.340        83
24.360       120
24.380        70
24.400       100
24.420       103
24.440       117
24.460       103
24.480       100
24.500        90
24.520        67
24.540        73
24.560        73
24.580       113
24.600       110
24.620       120
24.640        87
24.660        97
24.680       117
24.700        90
24.720       127
24.740        73
24.760       133
24.780        77
24.800       127
24.820        90
24.840        90
24.860       107
24.880        73
24.900       133
24.920        90
24.940       100
24.960       117
24.980       103
25.000       110
25.020        97
25.040       110
25.060        97
25.080       100
25.100        63
25.120        93
25.140        80
25.160        43
25.180        77
25.200        87
25.220       103
25.240        70
25.260        73
25.280        90
25.300        63
25.320        63
25.340        80
25.360        90
25.380        87
25.400        77
25.420        70
25.440        87
25.460        67
25.480        73
25.500        87
25.520        80
25.540        77
25.560        77
25.580        37
25.600        83
25.620        57
25.640        73
25.660        43
25.680        43
25.700        43
25.720        77
25.740        47
25.760        87
25.780        87
25.800        70
25.820        83
25.840        60
25.860        73
25.880        83
25.900        63
25.920        83
25.940        23
25.960        70
25.980        60
26.000        73
26.020        80
26.040        63
26.060        83
26.080        67
26.100        80
26.120        50
26.140        97
26.160        67
26.180        57
26.200        67
26.220        57
26.240        67
26.260        63
26.280        80
26.300        53
26.320        53
26.340       103
26.360        53
26.380        67
26.400        70
26.420        70
26.440        73
26.460        73
26.480        77
26.500        97
26.520        57
26.540        57
26.560        47
26.580        37
26.600        43
26.620        63
26.640        50
26.660        77
26.680        80
26.700        67
26.720        40
26.740        53
26.760        27
26.780        57
26.800        53
26.820        43
26.840        53
26.860        40
26.880        43
26.900        40
26.920        70
26.940        60
26.960        70
26.980        47
27.000        50
27.020        60
27.040        37
27.060        73
27.080        57
27.100        50
27.120        70
27.140        60
27.160        50
27.180        70
27.200        57
27.220        37
27.240        57
27.260        57
27.280        40
27.300        53
27.320        47
27.340        73
27.360        80
27.380        70
27.400        53
27.420        40
27.440        83
27.460        67
27.480        77
27.500        50
27.520        50
27.540        50
27.560        47
27.580        70
27.600        47
27.620        70
27.640        57
27.660        50
27.680        47
27.700        37
27.720        60
27.740        83
27.760        67
27.780        60
27.800        33
27.820        70
27.840        70
27.860        47
27.880        60
27.900        60
27.920        67
27.940        57
27.960        53
27.980        50
28.000        53
28.020        43
28.040        47
28.060        57
28.080        57
28.100        50
28.120        53
28.140        50
28.160        57
28.180        50
28.200        53
28.220        47
28.240        77
28.260        53
28.280        53
28.300        63
28.320        40
28.340        77
28.360        57
28.380        47
28.400        47
28.420        67
28.440        37
28.460        40
28.480        60
28.500        53
28.520        33
28.540        37
28.560        57
28.580        60
28.600        77
28.620        47
28.640        40
28.660        57
28.680        43
28.700        53
28.720        50
28.740        50
28.760        47
28.780        67
28.800        60
28.820        50
28.840        60
28.860        47
28.880        60
28.900        63
28.920        70
28.940        67
28.960        47
28.980        73
29.000        47
29.020        50
29.040        53
29.060        63
29.080        53
29.100        67
29.120        53
29.140        87
29.160        97
29.180       120
29.200       120
29.220       150
29.240       107
29.260       120
29.280       150
29.300       100
29.320       140
29.340       147
29.360       130
29.380       133
29.400       110
29.420       100
29.440       107
29.460        50
29.480        73
29.500        77
29.520        80
29.540        47
29.560        57
29.580        30
29.600        40
29.620        50
29.640        43
29.660        60
29.680        57
29.700        57
29.720        57
29.740        47
29.760        40
29.780        47
29.800        47
29.820        57
29.840        57
29.860        60
29.880        33
29.900        87
29.920        73
29.940        40
29.960        40
29.980        27
30.000        63
30.020        47
30.040        43
30.060        37
30.080        50
30.100        43
30.120        37
30.140        77
30.160        43
30.180        57
30.200        50
30.220        47
30.240        47
30.260        47
30.280        77
30.300        90
30.320        53
30.340        77
30.360        60
30.380        47
30.400        60
30.420        30
30.440        43
30.460        43
30.480        43
30.500        57
30.520        30
30.540        37
30.560        73
30.580        37
30.600        57
30.620        83
30.640        63
30.660        67
30.680        57
30.700        37
30.720        47
30.740        60
30.760        60
30.780        73
30.800        77
30.820        57
30.840        57
30.860        53
30.880        80
30.900        60
30.920        53
30.940        37
30.960        80
30.980        57
31.000        60
31.020        70
31.040        70
31.060        53
31.080        50
31.100        43
31.120        53
31.140        63
31.160        67
31.180        70
31.200        30
31.220        50
31.240        40
31.260        73
31.280        53
31.300        53
31.320        63
31.340        93
31.360        87
31.380        73
31.400        43
31.420        90
31.440        47
31.460        87
31.480        73
31.500        63
31.520        90
31.540        77
31.560        70
31.580        97
31.600        80
31.620        63
31.640        57
31.660        63
31.680        67
31.700        73
31.720        67
31.740        67
31.760        60
31.780        83
31.800       117
31.820        97
31.840        80
31.860       113
31.880        87
31.900       137
31.920       137
31.940       120
31.960       113
31.980       153
32.000       150
32.020       170
32.040       203
32.060       237
32.080       490
32.100       920
32.120      1276
32.140      1263
32.160      1006
32.180       513
32.200       247
32.220       213
32.240       183
32.260       143
32.280       147
32.300       103
32.320       120
32.340       150
32.360       147
32.380        90
32.400        90
32.420       113
32.440       140
32.460        97
32.480       130
32.500        77
32.520       130
32.540       113
32.560       107
32.580        93
32.600       143
32.620       147
32.640       107
32.660       143
32.680       120
32.700        93
32.720        93
32.740        87
32.760        87
32.780        90
32.800       113
32.820        70
32.840       103
32.860        83
32.880        80
32.900        97
32.920        77
32.940        63
32.960        93
32.980        70
33.000        70
33.020       103
33.040        90
33.060       100
33.080       103
33.100        83
33.120        67
33.140        73
33.160        93
33.180       110
33.200        93
33.220        53
33.240        90
33.260        97
33.280       107
33.300        77
33.320        77
33.340        70
33.360       107
33.380       103
33.400        87
33.420        53
33.440        60
33.460        63
33.480       110
33.500        63
33.520        67
33.540       117
33.560        60
33.580        87
33.600       107
33.620        70
33.640        73
33.660        80
33.680       113
33.700        73
33.720        90
33.740       103
33.760        90
33.780        63
33.800       103
33.820        90
33.840        40
33.860        50
33.880        83
33.900        70
33.920        83
33.940        53
33.960        87
33.980        77
34.000        97
34.020       107
34.040        83
34.060        77
34.080       110
34.100       110
34.120       107
34.140        83
34.160        80
34.180        83
34.200        67
34.220       113
34.240        97
34.260       137
34.280       100
34.300        87
34.320        60
34.340        73
34.360       127
34.380       207
34.400       307
34.420       393
34.440       430
34.460       476
34.480       536
34.500       503
34.520       536
34.540       503
34.560       496
34.580       466
34.600       533
34.620       436
34.640       500
34.660       526
34.680       513
34.700       543
34.720       493
34.740       476
34.760       573
34.780       513
34.800       590
34.820       590
34.840       540
34.860       490
34.880       523
34.900       533
34.920       596
34.940       596
34.960       546
34.980       510
35.000       590
35.020       600
35.040       623
35.060       563
35.080       626
35.100       606
35.120       566
35.140       683
35.160       603
35.180       680
35.200       666
35.220       706
35.240       733
35.260       786
35.280       930
35.300       933
35.320       980
35.340      1070
35.360      1289
35.380      1649
35.400      2406
35.420      3905
35.440      5664
35.460      7857
35.480      9566
35.500     10762
35.520     11295
35.540     12318
35.560     15077
35.580     23081
35.600     50020
35.620    106371
35.640    151176
35.660    160029
35.680    146228
35.700    102482
35.720     85449
35.740     93676
35.760     90467
35.780     70155
35.800     30451
35.820      9979
35.840      5604
35.860      3988
35.880      3062
35.900      2452
35.920      2076
35.940      1616
35.960      1579
35.980      1506
36.000      1299
36.020      1106
36.040      1043
36.060      1103
36.080       980
36.100       903
36.120       903
36.140       853
36.160       756
36.180       866
36.200       720
36.220       706
36.240       743
36.260       686
36.280       650
36.300       606
36.320       746
36.340       590
36.360       640
36.380       576
36.400       613
36.420       536
36.440       563
36.460       573
36.480       510
36.500       570
36.520       546
36.540       566
36.560       560
36.580       506
36.600       520
36.620       450
36.640       496
36.660       466
36.680       500
36.700       626
36.720       460
36.740       553
36.760       443
36.780       476
36.800       490
36.820       473
36.840       407
36.860       440
36.880       423
36.900       403
36.920       453
36.940       453
36.960       473
36.980       460
37.000       367
37.020       470
37.040       480
37.060       413
37.080       387
37.100       390
37.120       426
37.140       387
37.160       350
37.180       440
37.200       333
37.220       413
37.240       350
37.260       350
37.280       403
37.300       380
37.320       347
37.340       390
37.360       340
37.380       403
37.400       380
37.420       337
37.440       387
37.460       393
37.480       370
37.500       353
37.520       377
37.540       387
37.560       367
37.580       360
37.600       377
37.620       377
37.640       380
37.660       463
37.680       377
37.700       380
37.720       370
37.740       323
37.760       287
37.780       360
37.800       340
37.820       343
37.840       320
37.860       363
37.880       317
37.900       370
37.920       310
37.940       320
37.960       347
37.980       410
38.000       307
38.020       300
38.040       237
38.060       283
38.080       347
38.100       363
38.120       370
38.140       323
38.160       287
38.180       300
38.200       280
38.220       303
38.240       343
38.260       290
38.280       233
38.300       263
38.320       333
38.340       323
38.360       343
38.380       320
38.400       237
38.420       330
38.440       337
38.460       347
38.480       310
38.500       327
38.520       310
38.540       317
38.560       287
38.580       307
38.600       340
38.620       307
38.640       303
38.660       330
38.680       353
38.700       287
38.720       317
38.740       277
38.760       300
38.780       283
38.800       353
38.820       303
38.840       337
38.860       280
38.880       233
38.900       263
38.920       297
38.940       337
38.960       320
38.980       257
39.000       357
39.020       313
39.040       343
39.060       270
39.080       287
39.100       273
39.120       337
39.140       310
39.160       270
39.180       350
39.200       293
39.220       343
39.240       293
39.260       340
39.280       360
39.300       303
39.320       267
39.340       347
39.360       290
39.380       253
39.400       287
39.420       293
39.440       310
39.460       290
39.480       270
39.500       290
39.520       287
39.540       267
39.560       303
39.580       290
39.600       260
39.620       277
39.640       323
39.660       297
39.680       210
39.700       297
39.720       273
39.740       253
39.760       240
39.780       273
39.800       233
39.820       247
39.840       250
39.860       293
39.880       260
39.900       207
39.920       267
39.940       270
39.960       290
39.980       263
40.000       267
40.020       270
40.040       247
40.060       263
40.080       303
40.100       277
40.120       297
40.140       273
40.160       220
40.180       313
40.200       257
40.220       230
40.240       270
40.260       230
40.280       263
40.300       263
40.320       243
40.340       277
40.360       233
40.380       243
40.400       263
40.420       277
40.440       260
40.460       210
40.480       227
40.500       257
40.520       243
40.540       287
40.560       233
40.580       230
40.600       247
40.620       303
40.640       203
40.660       257
40.680       213
40.700       283
40.720       243
40.740       240
40.760       193
40.780       253
40.800       177
40.820       197
40.840       213
40.860       217
40.880       257
40.900       223
40.920       203
40.940       280
40.960       203
40.980       227
41.000       213
41.020       230
41.040       233
41.060       250
41.080       240
41.100       287
41.120       210
41.140       237
41.160       210
41.180       263
41.200       240
41.220       250
41.240       127
41.260       167
41.280       230
41.300       193
41.320       250
41.340       233
41.360       180
41.380       190
41.400       217
41.420       220
41.440       210
41.460       193
41.480       207
41.500       190
41.520       163
41.540       230
41.560       227
41.580       237
41.600       210
41.620       290
41.640       237
41.660       210
41.680       193
41.700       183
41.720       153
41.740       180
41.760       247
41.780       227
41.800       203
41.820       200
41.840       250
41.860       220
41.880       230
41.900       210
41.920       180
41.940       160
41.960       207
41.980       210
42.000       150
42.020       197
42.040       210
42.060       173
42.080       257
42.100       257
42.120       197
42.140       163
42.160       207
42.180       183
42.200       237
42.220       210
42.240       223
42.260       147
42.280       213
42.300       210
42.320       153
42.340       173
42.360       213
42.380       270
42.400       167
42.420       233
42.440       180
42.460       207
42.480       163
42.500       187
42.520       203
42.540       177
42.560       147
42.580       177
42.600       173
42.620       173
42.640       160
42.660       200
42.680       200
42.700       207
42.720       173
42.740       210
42.760       237
42.780       213
42.800       183
42.820       217
42.840       170
42.860       187
42.880       173
42.900       140
42.920       180
42.940       227
42.960       233
42.980       197
43.000       203
43.020       150
43.040       213
43.060       197
43.080       173
43.100       260
43.120       197
43.140       163
43.160       237
43.180       213
43.200       163
43.220       180
43.240       177
43.260       177
43.280       190
43.300       153
43.320       190
43.340       180
43.360       173
43.380       187
43.400       140
43.420       203
43.440       120
43.460       167
43.480       140
43.500       143
43.520       133
43.540       153
43.560       193
43.580       210
43.600       157
43.620       150
43.640       170
43.660       213
43.680       183
43.700       177
43.720       177
43.740       180
43.760       120
43.780       173
43.800       187
43.820       183
43.840       147
43.860       120
43.880       170
43.900       187
43.920       150
43.940       130
43.960       207
43.980       150
44.000       140
44.020       190
44.040       147
44.060       160
44.080       170
44.100       167
44.120       163
44.140       147
44.160       187
44.180       147
44.200       133
44.220       197
44.240       157
44.260       160
44.280       137
44.300       133
44.320       187
44.340       183
44.360       127
44.380       150
44.400       190
44.420       147
44.440        93
44.460       140
44.480       167
44.500       173
44.520       127
44.540       120
44.560       140
44.580       163
44.600       177
44.620       153
44.640       140
44.660       170
44.680       127
44.700       130
44.720       157
44.740       147
44.760       130
44.780       140
44.800       130
44.820       117
44.840       160
44.860        93
44.880       117
44.900       160
44.920       150
44.940       160
44.960       140
44.980       127
45.000       150
45.020       170
45.040       153
45.060       130
45.080       187
45.100       143
45.120       147
45.140       120
45.160       113
45.180       173
45.200       143
45.220       147
45.240       157
45.260       133
45.280       147
45.300       103
45.320       147
45.340       150
45.360       160
45.380       127
45.400       120
45.420        90
45.440       147
45.460       170
45.480       130
45.500       130
45.520       143
45.540       190
45.560       133
45.580       147
45.600       143
45.620        93
45.640        93
45.660       133
45.680       140
45.700       120
45.720       130
45.740       160
45.760       100
45.780       157
45.800       123
45.820       143
45.840       153
45.860        97
45.880       140
45.900       163
45.920       103
45.940       133
45.960       140
45.980       153
46.000       130
46.020       177
46.040       103
46.060       103
46.080       103
46.100       133
46.120       100
46.140       113
46.160       110
46.180       123
46.200       103
46.220       120
46.240       160
46.260       103
46.280       120
46.300       123
46.320       110
46.340       130
46.360       127
46.380       107
46.400       133
46.420       160
46.440       143
46.460       107
46.480       107
46.500       113
46.520       113
46.540        87
46.560       177
46.580       130
46.600       120
46.620       127
46.640        97
46.660       120
46.680       143
46.700       147
46.720        90
46.740       133
46.760       147
46.780        90
46.800       107
46.820       113
46.840        97
46.860       117
46.880       133
46.900       130
46.920       150
46.940       133
46.960       110
46.980       127
47.000       167
47.020       127
47.040       123
47.060       103
47.080       110
47.100       107
47.120       113
47.140       133
47.160       123
47.180       100
47.200       130
47.220       137
47.240       123
47.260        93
47.280       117
47.300       133
47.320       130
47.340       103
47.360       133
47.380       120
47.400       147
47.420       117
47.440       137
47.460       187
47.480       157
47.500       177
47.520       163
47.540       133
47.560       137
47.580       100
47.600       140
47.620       103
47.640       100
47.660       117
47.680       130
47.700       137
47.720       117
47.740       127
47.760        97
47.780       113
47.800        97
47.820        93
47.840        93
47.860       117
47.880       137
47.900        93
47.920        93
47.940       113
47.960       100
47.980       123
48.000        83
48.020       113
48.040       133
48.060       100
48.080       100
48.100        70
48.120       107
48.140       130
48.160        87
48.180       150
48.200       107
48.220       117
48.240        97
48.260       110
48.280       130
48.300        83
48.320       120
48.340       140
48.360       117
48.380       120
48.400       130
48.420       130
48.440       157
48.460       137
48.480       157
48.500       137
48.520        97
48.540       107
48.560        90
48.580       127
48.600       133
48.620       130
48.640        77
48.660       110
48.680       107
48.700       123
48.720        87
48.740        93
48.760        97
48.780        87
48.800       110
48.820        83
48.840       103
48.860        97
48.880        80
48.900       137
48.920       113
48.940        87
48.960        90
48.980       120
49.000        93
49.020       110
49.040        87
49.060       120
49.080       137
49.100        83
49.120        93
49.140        97
49.160        97
49.180       120
49.200        67
49.220        97
49.240       113
49.260        90
49.280        83
49.300        87
49.320       120
49.340       117
49.360        73
49.380        73
49.400        83
49.420        93
49.440        87
49.460       107
49.480       107
49.500       100
49.520        77
49.540       120
49.560       110
49.580        90
49.600       113
49.620        90
49.640       120
49.660        57
49.680        70
49.700       103
49.720        90
49.740       103
49.760        97
49.780        83
49.800        70
49.820       100
49.840        77
49.860        83
49.880       113
49.900        93
49.920       113
49.940        83
49.960        67
49.980        90
50.000       110
50.020        70
50.040        83
50.060       103
50.080       120
50.100        93
50.120        83
50.140       103
50.160       107
50.180        77
50.200       110
50.220        87
50.240        87
50.260        87
50.280        97
50.300        73
50.320        90
50.340        87
50.360        67
50.380       107
50.400        73
50.420        90
50.440        60
50.460        90
50.480        77
50.500        97
50.520        67
50.540        77
50.560        63
50.580        93
50.600        70
50.620        77
50.640        97
50.660        77
50.680        73
50.700       110
50.720        87
50.740        53
50.760        73
50.780        80
50.800       100
50.820        83
50.840        90
50.860        83
50.880        77
50.900        87
50.920        50
50.940        63
50.960        90
50.980       107
51.000        83
51.020        93
51.040        73
51.060        87
51.080        70
51.100       107
51.120        70
51.140        63
51.160        67
51.180       107
51.200        90
51.220        80
51.240        70
51.260        90
51.280        77
51.300        70
51.320        83
51.340        77
51.360        90
51.380        67
51.400        80
51.420        70
51.440        97
51.460        80
51.480        97
51.500        80
51.520        83
51.540        60
51.560        67
51.580        63
51.600        67
51.620        90
51.640        70
51.660        70
51.680        80
51.700        63
51.720        83
51.740       107
51.760        77
51.780        80
51.800        70
51.820        87
51.840        77
51.860        60
51.880        97
51.900        97
51.920        57
51.940       113
51.960        77
51.980        70
52.000        60
52.020       110
52.040        40
52.060        93
52.080       113
52.100        60
52.120       107
52.140        57
52.160       103
52.180       120
52.200        77
52.220        47
52.240        87
52.260        77
52.280        83
52.300        60
52.320        77
52.340        73
52.360        67
52.380        93
52.400        97
52.420        50
52.440        57
52.460        77
52.480        70
52.500        73
52.520        47
52.540        97
52.560        60
52.580        53
52.600        67
52.620       103
52.640        83
52.660        77
52.680        63
52.700        93
52.720        73
52.740        83
52.760        80
52.780        57
52.800        63
52.820        67
52.840        63
52.860        77
52.880        80
52.900        83
52.920        73
52.940        63
52.960        90
52.980        87
53.000        67
53.020        80
53.040        73
53.060        90
53.080        67
53.100        77
53.120        87
53.140        73
53.160        70
53.180        70
53.200        90
53.220        93
53.240       103
53.260        77
53.280        43
53.300        73
53.320        67
53.340        43
53.360        70
53.380        70
53.400        90
53.420        40
53.440        80
53.460        83
53.480        87
53.500        57
53.520        67
53.540        73
53.560        63
53.580        67
53.600        83
53.620        60
53.640        60
53.660        63
53.680        57
53.700        47
53.720        80
53.740        90
53.760        80
53.780       100
53.800        70
53.820        60
53.840        83
53.860        63
53.880        73
53.900        70
53.920       110
53.940        70
53.960        97
53.980        63
54.000        70
54.020        67
54.040        40
54.060        63
54.080        87
54.100        87
54.120        70
54.140        83
54.160        73
54.180        67
54.200        57
54.220        80
54.240        87
54.260        77
54.280        87
54.300        97
54.320        63
54.340        77
54.360        87
54.380        60
54.400        73
54.420        63
54.440        90
54.460        70
54.480        60
54.500        73
54.520       110
54.540        47
54.560        73
54.580        53
54.600        73
54.620       103
54.640        90
54.660        93
54.680        60
54.700       100
54.720        97
54.740        90
54.760       100
54.780        77
54.800        63
54.820        77
54.840        87
54.860        47
54.880        77
54.900       103
54.920        77
54.940        60
54.960        73
54.980        63
55.000        73
55.020        90
55.040        77
55.060        60
55.080        67
55.100        63
55.120       113
55.140        73
55.160        80
55.180        50
55.200        43
55.220        77
55.240        73
55.260        77
55.280        90
55.300        50
55.320        77
55.340        60
55.360        67
55.380        73
55.400        57
55.420        77
55.440        37
55.460        83
55.480        57
55.500        97
55.520        70
55.540        67
55.560        43
55.580        57
55.600        70
55.620        93
55.640        93
55.660        93
55.680        70
55.700        93
55.720        87
55.740        63
55.760        63
55.780        60
55.800        67
55.820        63
55.840        60
55.860        73
55.880        53
55.900        93
55.920        53
55.940        83
55.960        90
55.980        80
56.000        60
56.020        57
56.040        53
56.060        60
56.080        67
56.100        67
56.120        80
56.140       103
56.160        53
56.180        70
56.200        63
56.220        63
56.240        57
56.260        63
56.280        73
56.300        67
56.320        87
56.340        50
56.360        57
56.380        80
56.400        60
56.420       107
56.440        70
56.460        70
56.480        67
56.500        90
56.520        77
56.540       100
56.560        57
56.580        70
56.600        73
56.620        77
56.640        77
56.660        77
56.680        70
56.700        83
56.720        83
56.740        73
56.760        57
56.780        57
56.800        60
56.820        47
56.840        70
56.860        50
56.880        60
56.900        40
56.920        63
56.940        77
56.960        70
56.980        83
57.000        73
57.020        63
57.040        73
57.060        70
57.080        67
57.100        70
57.120        37
57.140        70
57.160        43
57.180        53
57.200        67
57.220        53
57.240        50
57.260        67
57.280        73
57.300        73
57.320        87
57.340        80
57.360        87
57.380        73
57.400        93
57.420        53
57.440        57
57.460        73
57.480        47
57.500        43
57.520        93
57.540        70
57.560        60
57.580        63
57.600        40
57.620        47
57.640        50
57.660        67
57.680        57
57.700        87
57.720       123
57.740        67
57.760        47
57.780        70
57.800        63
57.820        40
57.840        80
57.860        53
57.880        77
57.900        67
57.920        57
57.940        67
57.960        50
57.980        63
58.000        63
58.020        70
58.040        43
58.060        83
58.080        50
58.100        77
58.120        33
58.140        53
58.160        73
58.180       110
58.200        37
58.220        80
58.240        70
58.260        53
58.280        70
58.300        40
58.320        53
58.340        67
58.360        73
58.380        70
58.400        53
58.420        63
58.440        70
58.460        53
58.480        53
58.500        67
58.520        67
58.540        53
58.560        63
58.580        57
58.600        70
58.620        90
58.640        33
58.660        57
58.680        60
58.700        40
58.720        77
58.740        53
58.760        83
58.780        67
58.800        57
58.820        67
58.840        33
58.860        67
58.880        50
58.900        33
58.920        57
58.940        67
58.960        50
58.980        70
59.000        40
59.020        70
59.040        83
59.060        50
59.080        57
59.100        60
59.120        50
59.140        67
59.160        57
59.180        73
59.200        53
59.220        87
59.240        53
59.260        53
59.280        47
59.300        53
59.320        83
59.340        37
59.360        53
59.380        90
59.400        57
59.420        77
59.440        60
59.460        70
59.480        40
59.500        50
59.520        63
59.540        63
59.560        83
59.580        57
59.600        47
59.620        40
59.640        90
59.660        50
59.680        53
59.700        53
59.720        50
59.740        63
59.760        63
59.780        60
59.800        37
59.820        60
59.840        70
59.860        50
59.880        50
59.900        67
59.920        63
59.940        47
59.960        63
59.980        47
60.000        47
