20.000      1180
20.020      1066
20.040      1126
20.060      1213
20.080       913
20.100      1106
20.120      1060
20.140      1026
20.160      1200
20.180       920
20.200      1053
20.220      1140
20.240      1100
20.260       980
20.280      1106
20.300      1153
20.320      1173
20.340      1060
20.360      1053
20.380      1053
20.400      1126
20.420       946
20.440       966
20.460      1120
20.480       960
20.500      1100
20.520      1120
20.540      1000
20.560       960
20.580       920
20.600       933
20.620      1020
20.640       886
20.660       953
20.680      1033
20.700      1026
20.720       866
20.740       993
20.760       846
20.780       980
20.800      1066
20.820       960
20.840       980
20.860       940
20.880       880
20.900       980
20.920       886
20.940      1060
20.960       706
20.980      1040
21.000      1020
21.020      1033
21.040      1053
21.060       940
21.080       940
21.100      1000
21.120       980
21.140      1000
21.160       906
21.180       920
21.200       900
21.220       993
21.240       893
21.260       773
21.280       833
21.300      1006
21.320       906
21.340       746
21.360       866
21.380       853
21.400       766
21.420       853
21.440       873
21.460       820
21.480       800
21.500       826
21.520       966
21.540       800
21.560       773
21.580       820
21.600       720
21.620       833
21.640       806
21.660       906
21.680       806
21.700       800
21.720       800
21.740       860
21.760       800
21.780       666
21.800       766
21.820       680
21.840       686
21.860       840
21.880       806
21.900       866
21.920       673
21.940       700
21.960       806
21.980       740
22.000       686
22.020       693
22.040       833
22.060       826
22.080       840
22.100       726
22.120       906
22.140       893
22.160       786
22.180       740
22.200       733
22.220       720
22.240       706
22.260       746
22.280       973
22.300       906
22.320       806
22.340       900
22.360       953
22.380       913
22.400      1093
22.420      1073
22.440      1220
22.460      1240
22.480      1200
22.500      1253
22.520      1080
22.540      1026
22.560       980
22.580       986
22.600       900
22.620       740
22.640       766
22.660       660
22.680       793
22.700       713
22.720       593
22.740       706
22.760       686
22.780       620
22.800       660
22.820       626
22.840       626
22.860       780
22.880       580
22.900       573
22.920       693
22.940       540
22.960       633
22.980       553
23.000       580
23.020       586
23.040       560
23.060       593
23.080       580
23.100       620
23.120       513
23.140       653
23.160       640
23.180       586
23.200       693
23.220       546
23.240       500
23.260       566
23.280       540
23.300       620
23.320       566
23.340       593
23.360       440
23.380       573
23.400       560
23.420       573
23.440       613
23.460       680
23.480       553
23.500       566
23.520       533
23.540       693
23.560       506
23.580       686
23.600       580
23.620       553
23.640       520
23.660       573
23.680       593
23.700       606
23.720       566
23.740       566
23.760       626
23.780       566
23.800       546
23.820       393
23.840       500
23.860       546
23.880       533
23.900       506
23.920       440
23.940       453
23.960       460
23.980       573
24.000       480
24.020       446
24.040       606
24.060       546
24.080       460
24.100       533
24.120       613
24.140       520
24.160       540
24.180       613
24.200       500
24.220       506
24.240       486
24.260       433
24.280       540
24.300       446
24.320       520
24.340       480
24.360       480
24.380       407
24.400       360
24.420       493
24.440       513
24.460       520
24.480       460
24.500       420
24.520       400
24.540       400
24.560       446
24.580       506
24.600       480
24.620       353
24.640       433
24.660       413
24.680       473
24.700       407
24.720       593
24.740       500
24.760       440
24.780       426
24.800       393
24.820       486
24.840       473
24.860       473
24.880       367
24.900       440
24.920       387
24.940       373
24.960       393
24.980       440
25.000       320
25.020       393
25.040       407
25.060       426
25.080       393
25.100       393
25.120       300
25.140       453
25.160       287
25.180       320
25.200       433
25.220       480
25.240       373
25.260       307
25.280       360
25.300       426
25.320       333
25.340       287
25.360       420
25.380       340
25.400       247
25.420       320
25.440       393
25.460       420
25.480       347
25.500       287
25.520       367
25.540       253
25.560       293
25.580       300
25.600       353
25.620       320
25.640       320
25.660       327
25.680       340
25.700       280
25.720       253
25.740       320
25.760       240
25.780       247
25.800       293
25.820       233
25.840       287
25.860       293
25.880       327
25.900       320
25.920       260
25.940       173
25.960       227
25.980       253
26.000       373
26.020       260
26.040       233
26.060       227
26.080       320
26.100       260
26.120       333
26.140       247
26.160       267
26.180       193
26.200       347
26.220       247
26.240       307
26.260       200
26.280       227
26.300       260
26.320       240
26.340       287
26.360       247
26.380       233
26.400       213
26.420       233
26.440       273
26.460       253
26.480       247
26.500       153
26.520       247
26.540       333
26.560       307
26.580       173
26.600       213
26.620       227
26.640       253
26.660       247
26.680       220
26.700       200
26.720       220
26.740       280
26.760       213
26.780       213
26.800       227
26.820       260
26.840       173
26.860       233
26.880       307
26.900       293
26.920       173
26.940       213
26.960       240
26.980       240
27.000       240
27.020       233
27.040       233
27.060       287
27.080       280
27.100       227
27.120       200
27.140       200
27.160       327
27.180       180
27.200       167
27.220       280
27.240       180
27.260       227
27.280       213
27.300       173
27.320       260
27.340       160
27.360       200
27.380       160
27.400       227
27.420       213
27.440       200
27.460       213
27.480       193
27.500       153
27.520       227
27.540       173
27.560       220
27.580       193
27.600       227
27.620       287
27.640       133
27.660       307
27.680       167
27.700       293
27.720       220
27.740       227
27.760       213
27.780       267
27.800       200
27.820       307
27.840       207
27.860       193
27.880       253
27.900       213
27.920       213
27.940       240
27.960       240
27.980       247
28.000       213
28.020       200
28.040       180
28.060       247
28.080       220
28.100       240
28.120       247
28.140       173
28.160       193
28.180       127
28.200       200
28.220       200
28.240       180
28.260       153
28.280       193
28.300       240
28.320       153
28.340       273
28.360       207
28.380       173
28.400       247
28.420       207
28.440       193
28.460       207
28.480       253
28.500       287
28.520       280
28.540       167
28.560       240
28.580       167
28.600       233
28.620       247
28.640       173
28.660       127
28.680       227
28.700       233
28.720       207
28.740       273
28.760       200
28.780       220
28.800       240
28.820       173
28.840       253
28.860       167
28.880       233
28.900       193
28.920       227
28.940       213
28.960       227
28.980       200
29.000       180
29.020       187
29.040       207
29.060       267
29.080       147
29.100       173
29.120       227
29.140       233
29.160       180
29.180       160
29.200       233
29.220       247
29.240       213
29.260       180
29.280       213
29.300       173
29.320       220
29.340       153
29.360       207
29.380       160
29.400       207
29.420       227
29.440       280
29.460       173
29.480       220
29.500       267
29.520       260
29.540       327
29.560       327
29.580       307
29.600       293
29.620       387
29.640       260
29.660       273
29.680       247
29.700       247
29.720       213
29.740       173
29.760       173
29.780       233
29.800       193
29.820       227
29.840       167
29.860       200
29.880       200
29.900       207
29.920       273
29.940       220
29.960       227
29.980       200
30.000       147
30.020       173
30.040       233
30.060       260
30.080       227
30.100       253
30.120       233
30.140       280
30.160       287
30.180       233
30.200       227
30.220       267
30.240       187
30.260       187
30.280       180
30.300       220
30.320       253
30.340       160
30.360       253
30.380       233
30.400       233
30.420       253
30.440       220
30.460       180
30.480       187
30.500       187
30.520       213
30.540       207
30.560       240
30.580       273
30.600       240
30.620       227
30.640       207
30.660       247
30.680       247
30.700       213
30.720       207
30.740       247
30.760       280
30.780       253
30.800       240
30.820       253
30.840       267
30.860       193
30.880       220
30.900       187
30.920       213
30.940       313
30.960       240
30.980       233
31.000       247
31.020       293
31.040       213
31.060       240
31.080       273
31.100       293
31.120       227
31.140       247
31.160       293
31.180       260
31.200       247
31.220       260
31.240       260
31.260       200
31.280       220
31.300       227
31.320       307
31.340       293
31.360       167
31.380       347
31.400       287
31.420       300
31.440       307
31.460       287
31.480       327
31.500       267
31.520       233
31.540       293
31.560       387
31.580       260
31.600       313
31.620       313
31.640       293
31.660       307
31.680       407
31.700       273
31.720       327
31.740       420
31.760       400
31.780       387
31.800       500
31.820       486
31.840       560
31.860       586
31.880       666
31.900       666
31.920       660
31.940       933
31.960       746
31.980      1006
32.000       973
32.020       960
32.040      1186
32.060      1853
32.080      3385
32.100      4725
32.120      4545
32.140      3585
32.160      2006
32.180      1053
32.200       780
32.220       713
32.240       526
32.260       553
32.280       586
32.300       493
32.320       400
32.340       513
32.360       420
32.380       440
32.400       373
32.420       393
32.440       340
32.460       313
32.480       400
32.500       493
32.520       353
32.540       313
32.560       400
32.580       373
32.600       460
32.620       267
32.640       360
32.660       360
32.680       347
32.700       307
32.720       293
32.740       313
32.760       340
32.780       300
32.800       293
32.820       233
32.840       293
32.860       300
32.880       280
32.900       287
32.920       340
32.940       333
32.960       320
32.980       367
33.000       260
33.020       313
33.040       260
33.060       280
33.080       280
33.100       287
33.120       273
33.140       247
33.160       300
33.180       293
33.200       360
33.220       280
33.240       340
33.260       280
33.280       307
33.300       267
33.320       267
33.340       293
33.360       327
33.380       220
33.400       287
33.420       320
33.440       227
33.460       280
33.480       400
33.500       267
33.520       300
33.540       247
33.560       367
33.580       260
33.600       360
33.620       273
33.640       260
33.660       287
33.680       267
33.700       273
33.720       293
33.740       253
33.760       313
33.780       227
33.800       307
33.820       387
33.840       247
33.860       307
33.880       233
33.900       273
33.920       293
33.940       280
33.960       280
33.980       193
34.000       260
34.020       320
34.040       287
34.060       280
34.080       327
34.100       253
34.120       233
34.140       327
34.160       240
34.180       327
34.200       253
34.220       293
34.240       280
34.260       280
34.280       293
34.300       280
34.320       340
34.340       380
34.360       580
34.380       773
34.400      1213
34.420      1506
34.440      1359
34.460      1479
34.480      1713
34.500      1426
34.520      1546
34.540      1639
34.560      1346
34.580      1739
34.600      1606
34.620      1519
34.640      1399
34.660      1379
34.680      1479
34.700      1406
34.720      1646
34.740      1579
34.760      1659
34.780      1626
34.800      1479
34.820      1606
34.840      1513
34.860      1426
34.880      1526
34.900      1533
34.920      1653
34.940      1799
34.960      1646
34.980      1526
35.000      1753
35.020      1706
35.040      1633
35.060      1919
35.080      1806
35.100      1966
35.120      1879
35.140      1833
35.160      1686
35.180      1939
35.200      1846
35.220      1939
35.240      2252
35.260      2346
35.280      2206
35.300      2519
35.320      2472
35.340      3059
35.360      3192
35.380      3699
35.400      5065
35.420      8097
35.440     12408
35.460     17939
35.480     21338
35.500     25243
35.520     28029
35.540     31307
35.560     43409
35.580     97641
35.600    212062
35.620    268679
35.640    277816
35.660    265547
35.680    205584
35.700    193509
35.720    208283
35.740    205538
35.760    162928
35.780     81101
35.800     36359
35.820     23637
35.840     16433
35.860     13421
35.880     11415
35.900      8310
35.920      5731
35.940      4218
35.960      3712
35.980      3585
36.000      2852
36.020      2672
36.040      2459
36.060      2766
36.080      2446
36.100      2392
36.120      2192
36.140      2172
36.160      1973
36.180      1999
36.200      1959
36.220      1886
36.240      1699
36.260      1733
36.280      1819
36.300      1639
36.320      1693
36.340      1593
36.360      1619
36.380      1366
36.400      1653
36.420      1573
36.440      1359
36.460      1513
36.480      1499
36.500      1279
36.520      1206
36.540      1473
36.560      1240
36.580      1313
36.600      1373
36.620      1326
36.640      1339
36.660      1339
36.680      1359
36.700      1333
36.720      1246
36.740      1146
36.760      1106
36.780      1266
36.800      1193
36.820      1173
36.840      1060
36.860      1293
36.880      1213
36.900      1093
36.920      1046
36.940      1100
36.960      1066
36.980      1040
37.000      1240
37.020       980
37.040       973
37.060      1040
37.080       953
37.100       913
37.120      1093
37.140      1113
37.160      1053
37.180      1093
37.200      1013
37.220       886
37.240      1186
37.260      1073
37.280       946
37.300       886
37.320      1060
37.340       940
37.360       826
37.380       873
37.400       886
37.420      1073
37.440       960
37.460      1026
37.480       973
37.500      1000
37.520      1066
37.540      1040
37.560       973
37.580       806
37.600       880
37.620       960
37.640       913
37.660       940
37.680       880
37.700       813
37.720       980
37.740       906
37.760       766
37.780       806
37.800       880
37.820       873
37.840       893
37.860       826
37.880       946
37.900       893
37.920       826
37.940       813
37.960       853
37.980       960
38.000       853
38.020       766
38.040       846
38.060       680
38.080       946
38.100       806
38.120       813
38.140       860
38.160       860
38.180       933
38.200       853
38.220       806
38.240       773
38.260       746
38.280       840
38.300       720
38.320       866
38.340       773
38.360       773
38.380       760
38.400       820
38.420       833
38.440       733
38.460       840
38.480       826
38.500       653
38.520       813
38.540       646
38.560       886
38.580       806
38.600       700
38.620       713
38.640       653
38.660       773
38.680       766
38.700       713
38.720       746
38.740       740
38.760       860
38.780       720
38.800       686
38.820       740
38.840       813
38.860       760
38.880       713
38.900       680
38.920       626
38.940       660
38.960       586
38.980       646
39.000       740
39.020       706
39.040       626
39.060       813
39.080       653
39.100       686
39.120       706
39.140       740
39.160       726
39.180       760
39.200       673
39.220       720
39.240       533
39.260       620
39.280       740
39.300       626
39.320       640
39.340       733
39.360       640
39.380       760
39.400       633
39.420       660
39.440       633
39.460       613
39.480       813
39.500       786
39.520       693
39.540       666
39.560       640
39.580       580
39.600       633
39.620       673
39.640       526
39.660       646
39.680       673
39.700       640
39.720       566
39.740       600
39.760       580
39.780       660
39.800       633
39.820       460
39.840       680
39.860       540
39.880       626
39.900       593
39.920       573
39.940       540
39.960       546
39.980       520
40.000       686
40.020       573
40.040       486
40.060       686
40.080       726
40.100       546
40.120       626
40.140       520
40.160       540
40.180       586
40.200       500
40.220       593
40.240       506
40.260       593
40.280       586
40.300       606
40.320       473
40.340       626
40.360       706
40.380       666
40.400       526
40.420       546
40.440       553
40.460       593
40.480       553
40.500       513
40.520       433
40.540       446
40.560       560
40.580       600
40.600       553
40.620       640
40.640       533
40.660       460
40.680       500
40.700       440
40.720       493
40.740       453
40.760       440
40.780       420
40.800       500
40.820       533
40.840       420
40.860       526
40.880       620
40.900       520
40.920       546
40.940       573
40.960       460
40.980       546
41.000       513
41.020       506
41.040       460
41.060       466
41.080       533
41.100       400
41.120       486
41.140       473
41.160       440
41.180       533
41.200       453
41.220       426
41.240       453
41.260       600
41.280       440
41.300       473
41.320       600
41.340       533
41.360       413
41.380       453
41.400       407
41.420       420
41.440       500
41.460       586
41.480       540
41.500       546
41.520       420
41.540       440
41.560       540
41.580       413
41.600       473
41.620       473
41.640       340
41.660       493
41.680       466
41.700       420
41.720       393
41.740       526
41.760       387
41.780       586
41.800       560
41.820       466
41.840       613
41.860       433
41.880       480
41.900       480
41.920       480
41.940       480
41.960       473
41.980       460
42.000       400
42.020       513
42.040       460
42.060       373
42.080       393
42.100       327
42.120       413
42.140       453
42.160       380
42.180       446
42.200       433
42.220       420
42.240       360
42.260       400
42.280       413
42.300       453
42.320       453
42.340       353
42.360       400
42.380       393
42.400       353
42.420       340
42.440       466
42.460       333
42.480       373
42.500       320
42.520       420
42.540       380
42.560       307
42.580       387
42.600       387
42.620       387
42.640       407
42.660       466
42.680       320
42.700       400
42.720       453
42.740       413
42.760       373
42.780       407
42.800       360
42.820       373
42.840       353
42.860       307
42.880       347
42.900       433
42.920       387
42.940       300
42.960       420
42.980       360
43.000       293
43.020       453
43.040       320
43.060       380
43.080       340
43.100       247
43.120       446
43.140       307
43.160       353
43.180       280
43.200       393
43.220       420
43.240       380
43.260       313
43.280       380
43.300       360
43.320       353
43.340       387
43.360       460
43.380       367
43.400       293
43.420       287
43.440       307
43.460       313
43.480       333
43.500       407
43.520       327
43.540       340
43.560       293
43.580       307
43.600       380
43.620       426
43.640       320
43.660       333
43.680       327
43.700       347
43.720       327
43.740       347
43.760       307
43.780       353
43.800       300
43.820       360
43.840       347
43.860       340
43.880       267
43.900       327
43.920       393
43.940       313
43.960       260
43.980       333
44.000       300
44.020       293
44.040       420
44.060       327
44.080       320
44.100       240
44.120       340
44.140       293
44.160       380
44.180       380
44.200       233
44.220       300
44.240       227
44.260       380
44.280       380
44.300       273
44.320       333
44.340       300
44.360       313
44.380       280
44.400       313
44.420       287
44.440       340
44.460       300
44.480       293
44.500       273
44.520       320
44.540       400
44.560       220
44.580       253
44.600       267
44.620       253
44.640       247
44.660       293
44.680       360
44.700       400
44.720       247
44.740       360
44.760       273
44.780       267
44.800       220
44.820       320
44.840       393
44.860       247
44.880       347
44.900       353
44.920       360
44.940       287
44.960       333
44.980       327
45.000       213
45.020       307
45.040       307
45.060       360
45.080       227
45.100       313
45.120       333
45.140       293
45.160       400
45.180       320
45.200       353
45.220       407
45.240       327
45.260       380
45.280       347
45.300       340
45.320       340
45.340       273
45.360       333
45.380       380
45.400       380
45.420       307
45.440       353
45.460       453
45.480       420
45.500       533
45.520       413
45.540       480
45.560       560
45.580       493
45.600       573
45.620       666
45.640       640
45.660       786
45.680       720
45.700       700
45.720       713
45.740      1013
45.760      1020
45.780      1220
45.800      1339
45.820      1419
45.840      1193
45.860      1479
45.880      1513
45.900      1406
45.920      1546
45.940      1566
45.960      1499
45.980      1339
46.000      1259
46.020      1173
46.040      1073
46.060       960
46.080       933
46.100       866
46.120       820
46.140       746
46.160       520
46.180       606
46.200       626
46.220       540
46.240       493
46.260       513
46.280       500
46.300       506
46.320       340
46.340       367
46.360       300
46.380       287
46.400       353
46.420       420
46.440       340
46.460       313
46.480       380
46.500       300
46.520       313
46.540       260
46.560       240
46.580       280
46.600       327
46.620       173
46.640       267
46.660       240
46.680       233
46.700       220
46.720       320
46.740       353
46.760       280
46.780       207
46.800       227
46.820       227
46.840       253
46.860       253
46.880       320
46.900       293
46.920       267
46.940       293
46.960       227
46.980       213
47.000       233
47.020       267
47.040       193
47.060       200
47.080       227
47.100       327
47.120       200
47.140       267
47.160       233
47.180       273
47.200       213
47.220       207
47.240       187
47.260       260
47.280       280
47.300       273
47.320       253
47.340       233
47.360       187
47.380       233
47.400       253
47.420       287
47.440       300
47.460       167
47.480       280
47.500       260
47.520       240
47.540       293
47.560       253
47.580       140
47.600       213
47.620       120
47.640       253
47.660       180
47.680       240
47.700       200
47.720       307
47.740       273
47.760       193
47.780       260
47.800       247
47.820       200
47.840       213
47.860       233
47.880       227
47.900       207
47.920       193
47.940       160
47.960       247
47.980       187
48.000       173
48.020       187
48.040       207
48.060       220
48.080       233
48.100       260
48.120       247
48.140       207
48.160       280
48.180       260
48.200       147
48.220       180
48.240       260
48.260       213
48.280       233
48.300       247
48.320       127
48.340       233
48.360       247
48.380       173
48.400       247
48.420       227
48.440       213
48.460       227
48.480       193
48.500       167
48.520       220
48.540        93
48.560       167
48.580       153
48.600       153
48.620       200
48.640       200
48.660       200
48.680       220
48.700       167
48.720       220
48.740       200
48.760       193
48.780       167
48.800       200
48.820       273
48.840       213
48.860       180
48.880       160
48.900       253
48.920       233
48.940       220
48.960       227
48.980       153
49.000       173
49.020       187
49.040       187
49.060       120
49.080       160
49.100       220
49.120       240
49.140       167
49.160       140
49.180       193
49.200       167
49.220       200
49.240       200
49.260       107
49.280       220
49.300       147
49.320       200
49.340       173
49.360       180
49.380       213
49.400       260
49.420       167
49.440       227
49.460       160
49.480       187
49.500       127
49.520       107
49.540       187
49.560       193
49.580       193
49.600       173
49.620       213
49.640       200
49.660       120
49.680       160
49.700       173
49.720       127
49.740       127
49.760       173
49.780       100
49.800       220
49.820       127
49.840       153
49.860       180
49.880       140
49.900       160
49.920       180
49.940       247
49.960       240
49.980       207
50.000       207
50.020       173
50.040       233
50.060       173
50.080       100
50.100       180
50.120       147
50.140       140
50.160       193
50.180       180
50.200       180
50.220       220
50.240       200
50.260       160
50.280       127
50.300       140
50.320       153
50.340       187
50.360       200
50.380        93
50.400       133
50.420       207
50.440        67
50.460       107
50.480       160
50.500       213
50.520       187
50.540       200
50.560       127
50.580       147
50.600       167
50.620       127
50.640       187
50.660       207
50.680       167
50.700       160
50.720       140
50.740       200
50.760       233
50.780       213
50.800       160
50.820       160
50.840       153
50.860       147
50.880       193
50.900       180
50.920       147
50.940       173
50.960       160
50.980       153
51.000       147
51.020       233
51.040       153
51.060       187
51.080       133
51.100       127
51.120       167
51.140       120
51.160       173
51.180       107
51.200       140
51.220       180
51.240       140
51.260       160
51.280       153
51.300       100
51.320       173
51.340       213
51.360       173
51.380       193
51.400       193
51.420       127
51.440       153
51.460       187
51.480       147
51.500       140
51.520       120
51.540       153
51.560       173
51.580       147
51.600       120
51.620       140
51.640       153
51.660       193
51.680       113
51.700       127
51.720       113
51.740       187
51.760       160
51.780       160
51.800       213
51.820       167
51.840       127
51.860       200
51.880       140
51.900       220
51.920       207
51.940       133
51.960       153
51.980       133
52.000       113
52.020       140
52.040       180
52.060        73
52.080       193
52.100       187
52.120       167
52.140       127
52.160       133
52.180       120
52.200       127
52.220        87
52.240       120
52.260       153
52.280       133
52.300       180
52.320       180
52.340       187
52.360       167
52.380       120
52.400       180
52.420       193
52.440       127
52.460       193
52.480       173
52.500       187
52.520       127
52.540       140
52.560       233
52.580       167
52.600       133
52.620       140
52.640       173
52.660       193
52.680        87
52.700       113
52.720       140
52.740       127
52.760       113
52.780       127
52.800       193
52.820       120
52.840       187
52.860       100
52.880       153
52.900       193
52.920       100
52.940       133
52.960       120
52.980       153
53.000       140
53.020       133
53.040       173
53.060       187
53.080       140
53.100       113
53.120       147
53.140       120
53.160       127
53.180       147
53.200       120
53.220       173
53.240       120
53.260        93
53.280       140
53.300       140
53.320       153
53.340       140
53.360       167
53.380       173
53.400        60
53.420       127
53.440       127
53.460       120
53.480        73
53.500       167
53.520       167
53.540       147
53.560       200
53.580       173
53.600       187
53.620       100
53.640        93
53.660       133
53.680        87
53.700       173
53.720       153
53.740       167
53.760       167
53.780       173
53.800       113
53.820       133
53.840       187
53.860       180
53.880       120
53.900       173
53.920       173
53.940       153
53.960       113
53.980       187
54.000       153
54.020       140
54.040       107
54.060       120
54.080       193
54.100       127
54.120        93
54.140       140
54.160        93
54.180       153
54.200       140
54.220        87
54.240       113
54.260       120
54.280       147
54.300       120
54.320       147
54.340       107
54.360       107
54.380       213
54.400        93
54.420       113
54.440        73
54.460       107
54.480       140
54.500       167
54.520       140
54.540       147
54.560       160
54.580       133
54.600       140
54.620       113
54.640       187
54.660       140
54.680       153
54.700       107
54.720       107
54.740       113
54.760       107
54.780       147
54.800       180
54.820       127
54.840       107
54.860       180
54.880        93
54.900       100
54.920       127
54.940        93
54.960       147
54.980       127
55.000       133
55.020       187
55.040       100
55.060       153
55.080       140
55.100       140
55.120       127
55.140       120
55.160       207
55.180        53
55.200       113
55.220       160
55.240       100
55.260       193
55.280       127
55.300       160
55.320       120
55.340       187
55.360       113
55.380       160
55.400       127
55.420       127
55.440       127
55.460       167
55.480       120
55.500       100
55.520       113
55.540       133
55.560       140
55.580       140
55.600       133
55.620       133
55.640       100
55.660       160
55.680       100
55.700        93
55.720       107
55.740       107
55.760        80
55.780       133
55.800       100
55.820       113
55.840       167
55.860       153
55.880       147
55.900       120
55.920        73
55.940       127
55.960       213
55.980       140
56.000       100
56.020        53
56.040       133
56.060       113
56.080       100
56.100       147
56.120       120
56.140       107
56.160       133
56.180       127
56.200       147
56.220       120
56.240       173
56.260       127
56.280        60
56.300        67
56.320        87
56.340       113
56.360        73
56.380       107
56.400       133
56.420       100
56.440        87
56.460       113
56.480       153
56.500       140
56.520       167
56.540       100
56.560        87
56.580       113
56.600       100
56.620        93
56.640       107
56.660       120
56.680        73
56.700       140
56.720       140
56.740       107
56.760       140
56.780       113
56.800       167
56.820       140
56.840       120
56.860       133
56.880       147
56.900       133
56.920       133
56.940       107
56.960        93
56.980        60
57.000       127
57.020       120
57.040       167
57.060       160
57.080       147
57.100       120
57.120        93
57.140       100
57.160       180
57.180       147
57.200       100
57.220       153
57.240       193
57.260        93
57.280       180
57.300       167
57.320       133
57.340       127
57.360       153
57.380       180
57.400       113
57.420       140
57.440       113
57.460       133
57.480       160
57.500        73
57.520       147
57.540       120
57.560       107
57.580       113
57.600       127
57.620       187
57.640       120
57.660       133
57.680        67
57.700        87
57.720       167
57.740        60
57.760       107
57.780       100
57.800       113
57.820       127
57.840       140
57.860        93
57.880       127
57.900        93
57.920       140
57.940        93
57.960        67
57.980        93
58.000       120
58.020       147
58.040       100
58.060       140
58.080        93
58.100       107
58.120       133
58.140       153
58.160       133
58.180       173
58.200        67
58.220       127
58.240        53
58.260       120
58.280       107
58.300       120
58.320       120
58.340        67
58.360       100
58.380        93
58.400       100
58.420       133
58.440        73
58.460        40
58.480       107
58.500       133
58.520        87
58.540       107
58.560       100
58.580        73
58.600       107
58.620        67
58.640       113
58.660       120
58.680       113
58.700        80
58.720        80
58.740       113
58.760       120
58.780       107
58.800       140
58.820        80
58.840       127
58.860       107
58.880        67
58.900       127
58.920        93
58.940        80
58.960       100
58.980       173
59.000       107
59.020        87
59.040       153
59.060       120
59.080       113
59.100        67
59.120       100
59.140        87
59.160        93
59.180       107
59.200       100
59.220       100
59.240       107
59.260        87
59.280       120
59.300        93
59.320        73
59.340       127
59.360        93
59.380       100
59.400        53
59.420        67
59.440       100
59.460       120
59.480        87
59.500        87
59.520        93
59.540        73
59.560        67
59.580        40
59.600       153
59.620       120
59.640        67
59.660       127
59.680       107
59.700       147
59.720       100
59.740       140
59.760       113
59.780        73
59.800        87
59.820       147
59.840        67
59.860         0
59.880         0
59.900         0
59.920         0
59.940         0
59.960         0
59.980         0
60.000         0
