20.000        33
20.020        50
20.040        43
20.060        43
20.080        37
20.100        47
20.120        67
20.140        33
20.160        37
20.180        57
20.200        30
20.220        60
20.240        50
20.260        37
20.280        47
20.300        40
20.320        37
20.340        30
20.360        40
20.380        50
20.400        53
20.420        37
20.440        40
20.460        23
20.480        63
20.500        37
20.520        30
20.540        53
20.560        37
20.580        60
20.600        27
20.620        47
20.640        37
20.660        40
20.680        27
20.700        23
20.720        37
20.740        47
20.760        40
20.780        53
20.800        47
20.820        57
20.840        40
20.860        53
20.880        47
20.900        30
20.920        53
20.940        53
20.960        43
20.980        30
21.000        37
21.020        47
21.040        33
21.060        33
21.080        17
21.100        30
21.120        33
21.140        40
21.160        40
21.180        40
21.200        17
21.220        33
21.240        30
21.260        37
21.280        13
21.300        17
21.320        30
21.340        53
21.360        37
21.380        50
21.400        37
21.420        47
21.440        37
21.460        30
21.480        20
21.500        30
21.520        20
21.540        43
21.560        50
21.580        53
21.600        37
21.620        23
21.640        20
21.660        37
21.680        23
21.700        27
21.720        30
21.740        33
21.760        40
21.780        37
21.800        40
21.820        43
21.840        43
21.860        37
21.880        37
21.900        47
21.920        37
21.940        40
21.960        43
21.980        40
22.000        37
22.020        23
22.040        33
22.060        47
22.080        33
22.100        37
22.120        47
22.140        23
22.160        53
22.180        50
22.200        20
22.220        67
22.240        47
22.260        53
22.280        50
22.300        37
22.320        57
22.340        60
22.360        40
22.380        60
22.400        43
22.420        60
22.440        57
22.460        67
22.480        47
22.500        43
22.520        73
22.540        43
22.560        53
22.580        63
22.600        87
22.620        60
22.640        47
22.660        57
22.680        40
22.700        27
22.720        30
22.740        43
22.760        40
22.780        37
22.800        43
22.820        40
22.840        13
22.860        43
22.880        27
22.900        27
22.920        40
22.940        47
22.960        40
22.980        40
23.000        27
23.020        17
23.040         7
23.060        37
23.080        40
23.100        40
23.120        33
23.140        43
23.160        47
23.180        33
23.200        27
23.220        30
23.240        27
23.260        40
23.280        30
23.300        33
23.320        37
23.340        37
23.360        30
23.380        27
23.400        43
23.420        27
23.440        43
23.460        33
23.480        40
23.500        10
23.520        40
23.540        17
23.560        27
23.580        47
23.600        27
23.620        33
23.640        40
23.660        17
23.680        23
23.700        40
23.720        13
23.740        37
23.760        27
23.780        30
23.800        40
23.820        23
23.840        43
23.860        27
23.880        40
23.900        47
23.920        27
23.940        43
23.960        10
23.980        27
24.000        10
24.020        23
24.040        47
24.060        13
24.080        33
24.100        33
24.120        27
24.140        23
24.160        40
24.180        30
24.200        17
24.220        53
24.240        40
24.260        20
24.280        20
24.300        20
24.320        27
24.340        33
24.360        30
24.380        43
24.400        43
24.420        17
24.440        27
24.460        23
24.480        33
24.500        30
24.520        27
24.540        27
24.560        17
24.580        30
24.600        23
24.620        30
24.640        53
24.660        23
24.680        30
24.700        23
24.720        40
24.740        13
24.760        30
24.780        43
24.800        23
24.820        37
24.840        30
24.860        27
24.880        33
24.900        30
24.920        20
24.940        30
24.960        47
24.980        37
25.000        30
25.020        17
25.040        27
25.060        20
25.080        30
25.100        13
25.120        43
25.140        27
25.160        33
25.180        43
25.200        37
25.220        27
25.240        20
25.260        37
25.280        17
25.300        17
25.320        33
25.340        30
25.360        40
25.380        47
25.400        37
25.420        27
25.440        40
25.460        20
25.480        33
25.500        30
25.520        27
25.540        40
25.560        60
25.580        77
25.600       140
25.620        83
25.640       137
25.660        77
25.680        63
25.700        70
25.720        47
25.740        30
25.760        47
25.780        47
25.800        30
25.820        33
25.840        43
25.860        20
25.880        50
25.900        30
25.920        13
25.940        40
25.960        23
25.980        37
26.000        23
26.020        40
26.040        17
26.060        23
26.080        40
26.100        37
26.120        23
26.140        43
26.160        27
26.180        30
26.200        37
26.220        30
26.240        17
26.260        23
26.280        20
26.300        40
26.320        23
26.340        30
26.360        20
26.380        47
26.400        23
26.420        27
26.440        30
26.460        30
26.480        27
26.500        27
26.520        27
26.540        20
26.560        23
26.580        37
26.600        17
26.620        30
26.640        27
26.660        40
26.680        13
26.700        27
26.720        37
26.740        17
26.760        20
26.780        40
26.800        27
26.820        27
26.840        23
26.860        23
26.880        33
26.900        23
26.920        40
26.940        30
26.960        17
26.980        47
27.000        27
27.020        37
27.040        20
27.060        27
27.080        33
27.100        37
27.120        10
27.140        30
27.160        20
27.180        27
27.200        43
27.220        30
27.240        23
27.260         7
27.280        33
27.300        27
27.320        37
27.340        37
27.360        17
27.380        33
27.400        40
27.420        37
27.440        33
27.460        30
27.480        10
27.500        17
27.520        27
27.540        23
27.560        37
27.580        37
27.600        10
27.620        27
27.640        17
27.660        20
27.680        33
27.700        10
27.720        33
27.740        23
27.760        27
27.780        50
27.800        13
27.820        27
27.840        30
27.860        47
27.880        23
27.900        20
27.920        33
27.940        33
27.960         7
27.980        13
28.000        17
28.020        20
28.040        23
28.060        33
28.080        27
28.100        30
28.120        33
28.140        17
28.160         7
28.180        33
28.200        27
28.220        30
28.240        23
28.260        40
28.280        10
28.300        30
28.320        20
28.340        23
28.360        33
28.380        13
28.400        23
28.420        30
28.440        13
28.460        17
28.480        13
28.500        13
28.520        27
28.540        20
28.560        17
28.580        10
28.600        23
28.620        23
28.640        33
28.660        17
28.680        23
28.700        37
28.720        27
28.740        20
28.760        17
28.780        20
28.800        27
28.820        23
28.840        23
28.860        20
28.880        20
28.900        20
28.920        40
28.940        27
28.960        33
28.980        23
29.000        33
29.020        50
29.040        20
29.060        17
29.080        17
29.100        13
29.120        23
29.140        33
29.160        27
29.180        27
29.200        37
29.220        50
29.240        23
29.260        10
29.280        33
29.300        23
29.320        23
29.340        33
29.360        17
29.380        13
29.400        37
29.420        20
29.440        17
29.460        13
29.480        10
29.500        20
29.520        33
29.540        33
29.560        30
29.580        10
29.600        23
29.620        20
29.640        13
29.660        27
29.680        17
29.700        27
29.720        23
29.740        23
29.760        30
29.780        27
29.800        27
29.820        10
29.840        37
29.860        13
29.880        20
29.900        13
29.920         3
29.940        10
29.960        23
29.980        23
30.000        17
30.020        30
30.040        33
30.060        40
30.080        33
30.100        30
30.120        10
30.140        23
30.160        10
30.180        10
30.200        10
30.220        43
30.240        23
30.260        17
30.280        13
30.300        10
30.320        27
30.340        20
30.360        17
30.380        10
30.400        20
30.420        23
30.440        27
30.460        27
30.480        10
30.500        27
30.520        30
30.540        20
30.560         7
30.580        27
30.600        27
30.620        20
30.640        30
30.660        20
30.680        13
30.700        40
30.720        27
30.740        23
30.760        27
30.780        37
30.800        23
30.820        30
30.840        23
30.860        20
30.880        33
30.900        27
30.920        20
30.940        23
30.960        17
30.980        23
31.000        33
31.020        20
31.040        17
31.060        20
31.080        37
31.100        27
31.120        33
31.140        27
31.160        17
31.180        27
31.200        10
31.220        23
31.240        20
31.260        53
31.280        23
31.300        37
31.320        13
31.340        20
31.360        33
31.380        27
31.400        40
31.420        33
31.440        20
31.460        23
31.480        43
31.500        37
31.520        33
31.540        33
31.560        30
31.580        40
31.600        57
31.620        37
31.640        70
31.660        50
31.680        60
31.700        50
31.720        73
31.740        77
31.760        87
31.780       123
31.800        97
31.820       110
31.840        93
31.860       150
31.880       157
31.900       147
31.920       157
31.940       187
31.960       203
31.980       210
32.000       240
32.020       240
32.040       283
32.060       287
32.080       240
32.100       247
32.120       277
32.140       190
32.160       257
32.180       210
32.200       180
32.220       200
32.240       150
32.260       177
32.280       117
32.300       140
32.320       117
32.340        97
32.360        67
32.380        63
32.400        97
32.420        53
32.440        33
32.460        33
32.480        47
32.500        40
32.520        43
32.540        37
32.560        27
32.580        37
32.600        47
32.620        47
32.640        33
32.660        30
32.680        27
32.700        40
32.720        37
32.740        47
32.760        27
32.780        13
32.800        27
32.820        27
32.840        30
32.860        27
32.880        23
32.900        37
32.920        23
32.940        17
32.960        23
32.980        13
33.000        17
33.020        33
33.040        20
33.060        27
33.080        33
33.100        33
33.120        13
33.140        17
33.160        33
33.180        37
33.200        17
33.220        20
33.240        30
33.260        23
33.280        10
33.300        17
33.320        10
33.340        20
33.360        17
33.380        17
33.400        10
33.420        13
33.440         7
33.460         7
33.480        27
33.500        27
33.520        23
33.540        17
33.560        10
33.580        27
33.600        13
33.620        13
33.640        23
33.660        27
33.680        20
33.700        13
33.720        33
33.740        43
33.760        20
33.780        13
33.800        20
33.820        37
33.840        20
33.860        13
33.880        30
33.900        17
33.920        17
33.940        27
33.960        23
33.980        13
34.000        27
34.020        17
34.040        23
34.060        20
34.080        27
34.100        20
34.120        17
34.140         7
34.160        13
34.180        17
34.200        23
34.220        23
34.240         7
34.260        10
34.280        17
34.300        10
34.320        27
34.340        30
34.360        27
34.380        13
34.400        13
34.420        13
34.440        20
34.460        30
34.480        17
34.500        27
34.520        13
34.540        40
34.560        13
34.580        50
34.600        27
34.620        33
34.640        20
34.660        17
34.680        17
34.700        13
34.720        17
34.740        30
34.760        20
34.780        17
34.800        33
34.820        30
34.840        10
34.860        10
34.880        17
34.900         7
34.920        10
34.940        10
34.960        27
34.980        37
35.000        23
35.020         7
35.040        27
35.060        17
35.080        43
35.100        10
35.120        13
35.140        13
35.160        17
35.180        27
35.200        13
35.220        20
35.240        20
35.260        27
35.280        10
35.300        17
35.320        23
35.340        23
35.360        27
35.380        13
35.400        23
35.420        43
35.440        27
35.460        17
35.480        23
35.500        10
35.520        10
35.540        13
35.560        27
35.580        20
35.600        17
35.620        17
35.640        20
35.660        17
35.680        13
35.700        23
35.720        37
35.740        23
35.760        40
35.780        17
35.800        17
35.820        13
35.840        13
35.860        30
35.880        13
35.900        27
35.920        43
35.940        13
35.960        20
35.980        20
36.000        17
36.020        10
36.040        27
36.060        33
36.080        13
36.100        13
36.120        13
36.140        10
36.160        13
36.180         3
36.200        40
36.220        20
36.240        17
36.260        33
36.280        33
36.300        10
36.320        13
36.340        30
36.360        10
36.380        23
36.400        20
36.420        27
36.440         0
36.460        33
36.480        23
36.500        27
36.520         7
36.540        13
36.560        30
36.580        13
36.600        20
36.620        13
36.640        17
36.660        13
36.680        10
36.700        13
36.720        27
36.740        10
36.760        17
36.780        23
36.800        37
36.820        13
36.840        20
36.860        20
36.880        20
36.900         7
36.920        17
36.940        17
36.960        10
36.980        10
37.000        20
37.020        17
37.040        30
37.060        17
37.080        37
37.100        17
37.120        20
37.140        30
37.160        17
37.180        23
37.200        10
37.220        13
37.240        40
37.260        30
37.280        17
37.300        50
37.320        27
37.340        20
37.360        20
37.380        17
37.400        20
37.420        13
37.440        23
37.460        13
37.480        13
37.500        37
37.520        17
37.540        20
37.560        23
37.580        17
37.600        23
37.620        10
37.640        10
37.660        27
37.680        23
37.700        27
37.720        27
37.740        13
37.760        23
37.780        13
37.800        23
37.820        27
37.840        13
37.860        17
37.880        13
37.900         3
37.920        33
37.940        20
37.960        17
37.980        20
38.000        20
38.020        23
38.040        33
38.060        17
38.080        10
38.100        23
38.120        17
38.140        20
38.160        27
38.180        30
38.200        27
38.220        23
38.240        30
38.260        23
38.280        20
38.300         7
38.320        20
38.340        23
38.360        20
38.380        20
38.400        17
38.420        17
38.440        27
38.460        30
38.480        10
38.500        47
38.520        17
38.540        27
38.560        10
38.580        17
38.600        10
38.620        27
38.640         7
38.660        37
38.680        20
38.700        23
38.720        33
38.740        27
38.760        27
38.780        27
38.800        20
38.820        40
38.840        13
38.860        13
38.880        23
38.900        10
38.920        40
38.940        27
38.960        43
38.980        30
39.000        50
39.020        30
39.040        30
39.060        33
39.080        20
39.100        43
39.120        57
39.140        40
39.160        60
39.180        47
39.200        47
39.220        70
39.240        70
39.260        43
39.280        80
39.300        37
39.320        73
39.340        73
39.360       103
39.380        77
39.400        73
39.420        73
39.440        60
39.460        83
39.480        90
39.500        93
39.520        97
39.540       100
39.560        47
39.580        63
39.600        90
39.620        80
39.640        53
39.660        57
39.680        67
39.700        53
39.720        70
39.740        53
39.760        40
39.780        50
39.800        60
39.820        53
39.840        53
39.860        43
39.880        30
39.900        30
39.920        47
39.940        33
39.960        33
39.980        43
40.000        37
40.020        20
40.040        50
40.060        20
40.080        17
40.100        20
40.120        20
40.140        33
40.160        27
40.180        20
40.200        17
40.220        30
40.240        10
40.260        17
40.280        20
40.300        17
40.320        10
40.340        33
40.360        23
40.380        20
40.400        27
40.420        17
40.440        40
40.460        13
40.480        20
40.500        27
40.520        17
40.540        20
40.560        23
40.580        20
40.600        20
40.620        13
40.640        13
40.660        17
40.680        10
40.700        23
40.720        33
40.740         7
40.760        10
40.780        23
40.800        13
40.820        23
40.840        10
40.860        10
40.880        23
40.900        10
40.920        10
40.940        27
40.960        20
40.980        10
41.000        13
41.020        30
41.040        27
41.060        20
41.080        10
41.100        23
41.120        17
41.140        13
41.160        20
41.180        10
41.200        20
41.220        27
41.240        37
41.260        20
41.280        13
41.300        30
41.320        17
41.340        27
41.360        13
41.380        27
41.400        20
41.420        17
41.440         3
41.460        23
41.480        37
41.500        20
41.520        37
41.540        30
41.560         7
41.580        30
41.600        23
41.620        17
41.640        17
41.660        10
41.680        20
41.700        30
41.720        10
41.740        20
41.760        20
41.780        20
41.800        17
41.820        13
41.840        17
41.860        23
41.880        27
41.900        27
41.920        10
41.940        37
41.960        30
41.980        33
42.000        27
42.020        13
42.040         7
42.060        17
42.080         3
42.100        27
42.120        27
42.140        27
42.160        10
42.180        17
42.200        17
42.220        23
42.240        17
42.260        33
42.280        13
42.300        27
42.320         7
42.340         3
42.360        23
42.380        30
42.400        30
42.420        30
42.440        20
42.460        17
42.480        17
42.500        20
42.520        33
42.540        17
42.560        27
42.580        20
42.600        23
42.620        30
42.640         7
42.660        33
42.680        33
42.700        57
42.720        27
42.740        17
42.760        20
42.780        33
42.800         3
42.820        33
42.840        20
42.860        23
42.880        37
42.900        27
42.920        10
42.940        13
42.960        27
42.980        13
43.000        30
43.020        13
43.040        30
43.060        27
43.080        37
43.100        17
43.120        30
43.140        23
43.160        30
43.180        23
43.200        23
43.220        20
43.240        27
43.260        23
43.280        20
43.300        20
43.320        53
43.340        23
43.360        27
43.380        13
43.400        23
43.420        20
43.440        43
43.460        23
43.480        23
43.500        17
43.520        20
43.540        40
43.560        17
43.580        13
43.600         7
43.620        20
43.640        20
43.660        40
43.680         7
43.700        17
43.720        20
43.740        17
43.760        33
43.780        30
43.800        17
43.820        13
43.840        27
43.860        10
43.880        20
43.900        30
43.920        10
43.940        37
43.960        27
43.980        17
44.000        37
44.020        13
44.040        10
44.060        13
44.080        13
44.100        17
44.120        23
44.140        27
44.160        27
44.180        13
44.200        23
44.220        17
44.240        27
44.260        17
44.280        20
44.300        13
44.320        17
44.340        10
44.360        37
44.380        13
44.400        10
44.420        20
44.440        40
44.460        10
44.480        23
44.500        27
44.520        17
44.540        30
44.560        20
44.580        27
44.600        23
44.620        30
44.640        23
44.660        23
44.680        17
44.700        37
44.720        30
44.740         7
44.760        17
44.780        17
44.800        17
44.820        30
44.840        37
44.860         7
44.880        20
44.900        33
44.920        40
44.940        23
44.960        20
44.980        20
45.000        17
45.020        23
45.040        20
45.060        23
45.080        33
45.100        30
45.120        37
45.140        40
45.160        20
45.180        40
45.200        30
45.220        17
45.240        43
45.260        33
45.280        30
45.300        60
45.320        37
45.340        47
45.360        70
45.380        50
45.400        43
45.420        53
45.440        47
45.460        37
45.480        43
45.500        43
45.520        63
45.540        63
45.560        77
45.580        77
45.600        63
45.620        60
45.640        67
45.660        60
45.680        80
45.700        80
45.720        87
45.740        93
45.760       107
45.780        67
45.800       110
45.820       160
45.840       143
45.860        93
45.880       150
45.900       167
45.920       153
45.940       143
45.960       143
45.980       113
46.000        97
46.020       130
46.040       143
46.060        93
46.080       107
46.100       113
46.120       133
46.140       120
46.160        87
46.180        80
46.200        97
46.220        77
46.240        80
46.260        63
46.280        60
46.300        77
46.320        60
46.340        70
46.360        50
46.380        63
46.400        47
46.420        53
46.440        60
46.460        37
46.480        43
46.500        80
46.520        37
46.540        23
46.560        33
46.580        40
46.600        33
46.620        60
46.640        43
46.660        53
46.680        43
46.700        17
46.720        40
46.740        37
46.760        57
46.780        37
46.800        47
46.820        47
46.840        40
46.860        43
46.880        37
46.900        47
46.920        80
46.940        27
46.960        57
46.980        30
47.000        37
47.020        30
47.040        37
47.060        57
47.080        73
47.100        83
47.120       123
47.140       197
47.160       247
47.180       243
47.200       153
47.220       140
47.240        60
47.260        63
47.280        63
47.300        40
47.320        23
47.340        40
47.360        30
47.380        27
47.400        17
47.420        37
47.440        23
47.460        23
47.480        43
47.500        47
47.520        27
47.540        33
47.560        23
47.580        33
47.600        13
47.620        47
47.640        10
47.660        17
47.680        13
47.700        23
47.720        30
47.740        33
47.760        20
47.780        23
47.800        40
47.820        23
47.840        37
47.860        30
47.880        23
47.900        23
47.920        10
47.940        27
47.960        30
47.980        33
48.000        33
48.020        17
48.040        33
48.060        23
48.080        23
48.100        17
48.120        30
48.140        27
48.160        27
48.180        27
48.200        43
48.220        43
48.240        40
48.260        40
48.280        30
48.300         7
48.320        17
48.340        13
48.360        20
48.380        27
48.400        37
48.420        30
48.440         7
48.460        17
48.480        27
48.500        27
48.520        17
48.540        17
48.560        10
48.580        30
48.600        13
48.620        33
48.640        37
48.660        30
48.680        23
48.700         3
48.720        40
48.740        27
48.760        20
48.780        30
48.800        40
48.820        13
48.840         7
48.860        23
48.880        20
48.900        27
48.920        33
48.940        23
48.960        17
48.980        30
49.000        23
49.020        23
49.040        30
49.060        20
49.080        30
49.100        30
49.120        13
49.140        40
49.160        23
49.180        23
49.200        20
49.220        23
49.240        13
49.260        20
49.280        17
49.300        27
49.320        10
49.340        17
49.360        17
49.380        27
49.400        23
49.420        17
49.440        27
49.460        13
49.480        23
49.500        13
49.520        13
49.540        20
49.560        27
49.580        17
49.600        17
49.620        37
49.640        33
49.660        20
49.680        27
49.700        23
49.720        10
49.740        23
49.760        27
49.780        23
49.800        17
49.820        20
49.840        13
49.860        13
49.880        30
49.900        40
49.920        17
49.940        17
49.960        13
49.980        20
50.000        17
50.020        30
50.040        10
50.060        37
50.080        33
50.100        40
50.120        20
50.140        20
50.160        13
50.180        30
50.200        23
50.220        30
50.240        17
50.260        30
50.280        30
50.300        17
50.320        23
50.340        27
50.360        13
50.380        27
50.400        20
50.420        20
50.440        27
50.460        17
50.480        17
50.500        23
50.520        27
50.540        20
50.560        40
50.580        33
50.600        27
50.620        30
50.640        57
50.660        57
50.680        53
50.700        47
50.720        77
50.740       110
50.760        43
50.780        67
50.800        83
50.820        60
50.840        73
50.860        97
50.880        80
50.900        90
50.920        83
50.940        80
50.960        73
50.980        73
51.000        87
51.020        97
51.040        73
51.060        93
51.080        73
51.100        73
51.120        60
51.140        97
51.160        83
51.180        87
51.200        53
51.220       100
51.240        93
51.260       107
51.280        70
51.300        80
51.320       100
51.340        83
51.360        97
51.380       103
51.400       123
51.420        90
51.440       107
51.460       113
51.480        90
51.500        93
51.520        90
51.540        77
51.560        97
51.580       103
51.600        67
51.620        77
51.640        83
51.660        83
51.680       103
51.700       107
51.720       137
51.740       123
51.760        90
51.780        73
51.800       100
51.820        63
51.840       107
51.860       103
51.880       120
51.900       110
51.920       120
51.940       140
51.960       110
51.980       110
52.000       127
52.020       117
52.040       100
52.060       113
52.080       130
52.100       113
52.120       123
52.140       157
52.160       197
52.180       200
52.200       183
52.220       217
52.240       250
52.260       343
52.280       393
52.300       453
52.320       470
52.340       500
52.360       586
52.380       583
52.400       583
52.420       743
52.440       983
52.460      1693
52.480      2696
52.500      6361
52.520     14198
52.540     25446
52.560     33717
52.580     31564
52.600     23451
52.620     13645
52.640      8490
52.660     10139
52.680     14924
52.700     19456
52.720     17473
52.740     13245
52.760      7537
52.780      3539
52.800      2156
52.820      1433
52.840      1346
52.860       946
52.880       733
52.900       503
52.920       397
52.940       320
52.960       243
52.980       263
53.000       253
53.020       277
53.040       180
53.060       210
53.080       217
53.100       243
53.120       210
53.140       207
53.160       183
53.180       143
53.200       223
53.220       183
53.240       130
53.260       147
53.280       177
53.300       117
53.320        77
53.340        97
53.360       117
53.380       113
53.400       107
53.420       120
53.440        93
53.460       110
53.480       120
53.500       137
53.520       127
53.540        80
53.560       117
53.580        77
53.600        93
53.620        90
53.640       103
53.660        43
53.680       100
53.700       107
53.720        90
53.740        97
53.760        77
53.780        80
53.800        57
53.820        77
53.840        97
53.860        73
53.880        80
53.900       107
53.920        90
53.940        80
53.960        77
53.980        93
54.000        90
54.020        67
54.040        63
54.060        87
54.080        93
54.100        67
54.120        93
54.140        87
54.160        70
54.180        90
54.200        63
54.220        73
54.240        93
54.260        63
54.280        93
54.300        90
54.320        73
54.340        63
54.360        93
54.380        70
54.400        67
54.420        93
54.440        67
54.460        97
54.480        73
54.500        63
54.520        47
54.540        63
54.560        67
54.580        63
54.600        73
54.620        60
54.640        60
54.660        50
54.680       103
54.700        67
54.720        70
54.740        80
54.760        80
54.780        67
54.800        73
54.820        67
54.840        63
54.860        50
54.880        97
54.900        70
54.920        60
54.940        57
54.960        97
54.980        87
55.000        57
55.020        30
55.040        50
55.060        57
55.080        73
55.100        40
55.120        63
55.140        67
55.160        63
55.180        43
55.200        70
55.220        73
55.240        50
55.260        67
55.280        63
55.300        63
55.320        80
55.340        63
55.360        53
55.380        63
55.400        67
55.420        50
55.440        67
55.460        63
55.480        43
55.500        47
55.520        77
55.540        63
55.560        60
55.580        30
55.600        73
55.620        70
55.640        53
55.660        87
55.680        60
55.700        47
55.720        83
55.740        47
55.760        43
55.780        40
55.800        60
55.820        50
55.840        57
55.860        93
55.880        60
55.900        43
55.920        67
55.940        63
55.960        57
55.980        53
56.000        47
56.020        60
56.040        53
56.060        33
56.080        43
56.100        57
56.120        50
56.140        37
56.160        40
56.180        63
56.200       120
56.220        37
56.240        43
56.260        37
56.280        60
56.300        73
56.320        67
56.340        43
56.360        53
56.380        57
56.400        80
56.420        47
56.440        47
56.460        87
56.480        60
56.500        57
56.520        63
56.540        60
56.560        73
56.580        57
56.600        43
56.620        63
56.640        33
56.660        70
56.680        43
56.700        57
56.720        63
56.740        70
56.760        43
56.780        57
56.800        77
56.820        40
56.840        60
56.860        80
56.880        67
56.900        73
56.920        83
56.940        57
56.960        70
56.980        53
57.000        67
57.020        83
57.040        43
57.060        97
57.080        93
57.100        80
57.120        90
57.140        70
57.160        77
57.180        70
57.200        93
57.220        57
57.240        73
57.260        70
57.280        63
57.300        87
57.320        73
57.340        60
57.360        47
57.380        33
57.400        47
57.420        80
57.440        43
57.460        77
57.480        53
57.500        73
57.520        53
57.540        47
57.560        70
57.580        63
57.600        57
57.620        50
57.640        47
57.660        57
57.680        57
57.700        47
57.720        37
57.740        30
57.760        40
57.780        23
57.800        37
57.820        73
57.840        67
57.860        47
57.880        30
57.900        30
57.920        77
57.940        47
57.960        37
57.980        50
58.000        63
58.020        50
58.040        50
58.060        27
58.080        37
58.100        50
58.120        67
58.140        43
58.160        43
58.180        47
58.200        43
58.220        53
58.240        30
58.260        30
58.280        47
58.300        50
58.320        40
58.340        50
58.360        33
58.380        50
58.400        47
58.420        57
58.440        53
58.460        50
58.480        57
58.500        33
58.520        43
58.540        40
58.560        40
58.580        30
58.600        67
58.620        47
58.640        40
58.660        37
58.680        33
58.700        40
58.720        50
58.740        53
58.760        57
58.780        50
58.800        23
58.820        53
58.840        47
58.860        33
58.880        43
58.900        37
58.920        43
58.940        37
58.960        27
58.980        47
59.000        47
59.020        30
59.040        20
59.060        50
59.080        43
59.100        13
59.120        30
59.140        40
59.160        37
59.180        57
59.200        50
59.220        37
59.240        33
59.260        73
59.280        50
59.300        37
59.320        33
59.340        37
59.360        47
59.380        37
59.400        37
59.420        37
59.440        77
59.460        47
59.480        60
59.500        40
59.520        53
59.540        57
59.560        57
59.580        43
59.600        50
59.620        40
59.640        30
59.660        43
59.680        53
59.700        27
59.720        47
59.740        43
59.760        43
59.780        53
59.800        43
59.820        40
59.840        27
59.860        43
59.880        43
59.900        33
59.920        43
59.940        27
59.960        27
59.980        27
60.000        27
