20.000        33
20.020        50
20.040        37
20.060        47
20.080        57
20.100        33
20.120        27
20.140        43
20.160        37
20.180        40
20.200        60
20.220        40
20.240        40
20.260        37
20.280        57
20.300        43
20.320        37
20.340        30
20.360        47
20.380        50
20.400        50
20.420        47
20.440        53
20.460        40
20.480        63
20.500        43
20.520        60
20.540        37
20.560        37
20.580        47
20.600        40
20.620        37
20.640        43
20.660        60
20.680        37
20.700        13
20.720        50
20.740        53
20.760        33
20.780        43
20.800        30
20.820        47
20.840        37
20.860        30
20.880        50
20.900        40
20.920        23
20.940        37
20.960        53
20.980        40
21.000        53
21.020        57
21.040        37
21.060        43
21.080        37
21.100        37
21.120        27
21.140        50
21.160        67
21.180        23
21.200        40
21.220        37
21.240        37
21.260        30
21.280        30
21.300        33
21.320        60
21.340        43
21.360        33
21.380        27
21.400        53
21.420        57
21.440        30
21.460        47
21.480        23
21.500        40
21.520        33
21.540        40
21.560        53
21.580        20
21.600        17
21.620        47
21.640        50
21.660        40
21.680        40
21.700        33
21.720        50
21.740        17
21.760        23
21.780        40
21.800        23
21.820        27
21.840        27
21.860        53
21.880        30
21.900        33
21.920        30
21.940        43
21.960        50
21.980        50
22.000        33
22.020        33
22.040        50
22.060        37
22.080        20
22.100        57
22.120        53
22.140        43
22.160        47
22.180        33
22.200        37
22.220        37
22.240        50
22.260        50
22.280        17
22.300        50
22.320        30
22.340        37
22.360        40
22.380        53
22.400        50
22.420        80
22.440        53
22.460        97
22.480        70
22.500        60
22.520        97
22.540       117
22.560       117
22.580       127
22.600       120
22.620       157
22.640       123
22.660       147
22.680       163
22.700       133
22.720       120
22.740       140
22.760        97
22.780        47
22.800        63
22.820        80
22.840        87
22.860        67
22.880        87
22.900        60
22.920        73
22.940        40
22.960        57
22.980        20
23.000        30
23.020        43
23.040        23
23.060        20
23.080        57
23.100        43
23.120        37
23.140        47
23.160        40
23.180        60
23.200        30
23.220        33
23.240        50
23.260        13
23.280        23
23.300        37
23.320        17
23.340        43
23.360        37
23.380        33
23.400        47
23.420        30
23.440        20
23.460        47
23.480        30
23.500        33
23.520        30
23.540        33
23.560        37
23.580        23
23.600        30
23.620        50
23.640        23
23.660        60
23.680        20
23.700        43
23.720        33
23.740        30
23.760        57
23.780        57
23.800        17
23.820        23
23.840        30
23.860        33
23.880        20
23.900        27
23.920        23
23.940        40
23.960        37
23.980        30
24.000        47
24.020        20
24.040        23
24.060        43
24.080        27
24.100        23
24.120        30
24.140        50
24.160        30
24.180        53
24.200        30
24.220        33
24.240        30
24.260        13
24.280        30
24.300        37
24.320        13
24.340        23
24.360        43
24.380        23
24.400        33
24.420        33
24.440        33
24.460        43
24.480        43
24.500        30
24.520        33
24.540        40
24.560        33
24.580        23
24.600        27
24.620        33
24.640        23
24.660        40
24.680        47
24.700        37
24.720        30
24.740        37
24.760        33
24.780        60
24.800        50
24.820        50
24.840        47
24.860        53
24.880        47
24.900        53
24.920        53
24.940        50
24.960        40
24.980        43
25.000        40
25.020        50
25.040        40
25.060        60
25.080        73
25.100        47
25.120        50
25.140        33
25.160        40
25.180        67
25.200        50
25.220        60
25.240        80
25.260        77
25.280        73
25.300        33
25.320        63
25.340        43
25.360        87
25.380        57
25.400        70
25.420        50
25.440        87
25.460       120
25.480       100
25.500       133
25.520       227
25.540       536
25.560      1103
25.580      1453
25.600      1693
25.620      1843
25.640      1926
25.660      2099
25.680      2316
25.700      2796
25.720      3112
25.740      2759
25.760      2013
25.780      1569
25.800      1343
25.820       773
25.840       300
25.860       150
25.880        97
25.900        83
25.920        47
25.940        93
25.960        93
25.980        73
26.000        83
26.020        87
26.040        73
26.060        37
26.080        50
26.100        50
26.120        57
26.140        53
26.160        70
26.180        53
26.200        40
26.220        43
26.240        40
26.260        40
26.280        30
26.300        47
26.320        63
26.340        53
26.360        30
26.380        50
26.400        37
26.420        60
26.440        67
26.460        70
26.480        43
26.500        30
26.520        40
26.540        47
26.560        57
26.580        43
26.600        23
26.620        33
26.640        37
26.660        50
26.680        23
26.700        43
26.720        43
26.740        37
26.760        40
26.780        63
26.800        47
26.820        30
26.840        47
26.860        30
26.880        27
26.900        37
26.920        43
26.940        63
26.960        40
26.980        50
27.000        40
27.020        37
27.040        47
27.060        50
27.080        47
27.100        30
27.120        43
27.140        40
27.160        37
27.180        33
27.200        43
27.220        47
27.240        40
27.260        57
27.280        27
27.300        37
27.320        40
27.340        57
27.360        40
27.380        27
27.400        37
27.420        47
27.440        43
27.460        50
27.480        23
27.500        60
27.520        33
27.540        30
27.560        33
27.580        63
27.600        23
27.620        50
27.640        60
27.660        27
27.680        53
27.700        27
27.720        30
27.740        30
27.760        47
27.780        60
27.800        47
27.820        20
27.840        40
27.860        43
27.880        57
27.900        77
27.920        70
27.940        50
27.960        43
27.980        30
28.000        43
28.020        33
28.040        40
28.060        23
28.080        37
28.100        27
28.120        60
28.140        63
28.160        50
28.180        53
28.200        50
28.220        37
28.240        43
28.260        20
28.280        33
28.300        67
28.320        27
28.340        47
28.360        30
28.380        30
28.400        73
28.420        57
28.440        60
28.460        50
28.480        67
28.500        73
28.520        63
28.540        53
28.560        47
28.580        50
28.600        33
28.620        47
28.640        43
28.660        23
28.680        27
28.700        60
28.720        37
28.740        43
28.760        17
28.780        43
28.800        30
28.820        40
28.840        57
28.860        43
28.880        47
28.900        47
28.920        47
28.940        47
28.960        53
28.980        40
29.000        50
29.020        47
29.040        63
29.060        50
29.080        50
29.100        60
29.120        40
29.140        30
29.160        60
29.180        53
29.200        53
29.220        60
29.240        57
29.260        50
29.280        20
29.300        43
29.320        37
29.340        27
29.360        77
29.380        47
29.400        43
29.420        40
29.440        53
29.460        43
29.480        53
29.500        67
29.520        40
29.540        40
29.560        87
29.580        60
29.600        63
29.620        50
29.640        70
29.660        47
29.680        47
29.700        73
29.720        70
29.740        33
29.760        43
29.780        57
29.800        47
29.820        57
29.840        70
29.860        67
29.880        70
29.900        67
29.920        63
29.940        47
29.960        50
29.980        70
30.000        47
30.020        40
30.040        53
30.060        53
30.080        30
30.100        53
30.120        57
30.140        40
30.160        33
30.180        73
30.200        30
30.220        67
30.240        53
30.260        67
30.280        57
30.300        30
30.320        47
30.340        23
30.360        67
30.380        67
30.400        30
30.420        40
30.440        37
30.460        67
30.480        67
30.500        47
30.520        50
30.540        53
30.560        43
30.580        37
30.600        70
30.620        43
30.640        60
30.660        47
30.680        50
30.700        40
30.720        43
30.740        30
30.760        57
30.780        87
30.800        47
30.820        63
30.840        50
30.860        73
30.880        33
30.900        57
30.920        40
30.940        50
30.960        70
30.980        60
31.000        83
31.020        70
31.040        43
31.060        57
31.080        67
31.100        63
31.120        70
31.140        73
31.160        37
31.180        70
31.200        33
31.220        47
31.240        43
31.260        73
31.280        97
31.300        57
31.320        53
31.340        57
31.360        60
31.380        43
31.400        73
31.420        60
31.440        43
31.460        60
31.480        87
31.500        30
31.520        30
31.540        37
31.560        37
31.580        73
31.600        67
31.620        67
31.640        47
31.660        43
31.680        60
31.700        43
31.720        60
31.740        67
31.760        53
31.780        63
31.800        63
31.820        73
31.840        50
31.860        60
31.880        70
31.900        83
31.920       103
31.940        47
31.960       110
31.980       123
32.000       110
32.020       137
32.040       100
32.060       180
32.080       133
32.100       187
32.120       217
32.140       253
32.160       267
32.180       293
32.200       313
32.220       287
32.240       223
32.260       343
32.280       270
32.300       233
32.320       223
32.340       193
32.360       100
32.380       147
32.400       163
32.420       137
32.440       100
32.460        70
32.480        93
32.500        70
32.520        57
32.540        73
32.560        60
32.580        77
32.600        60
32.620        73
32.640        63
32.660        50
32.680        43
32.700        53
32.720        63
32.740        77
32.760        53
32.780        67
32.800        63
32.820        70
32.840        90
32.860        60
32.880        70
32.900        77
32.920        87
32.940        53
32.960        87
32.980        50
33.000        63
33.020        50
33.040        47
33.060        83
33.080        63
33.100        37
33.120        63
33.140        53
33.160        83
33.180       110
33.200        57
33.220        70
33.240        63
33.260        70
33.280        67
33.300        77
33.320        40
33.340        63
33.360        73
33.380        67
33.400        80
33.420        60
33.440        77
33.460        70
33.480        97
33.500        33
33.520        57
33.540        90
33.560        67
33.580       113
33.600        47
33.620        63
33.640        73
33.660        60
33.680        87
33.700        27
33.720        73
33.740        73
33.760        63
33.780        50
33.800        57
33.820        57
33.840        73
33.860        67
33.880        47
33.900        70
33.920        77
33.940        70
33.960        47
33.980        67
34.000        93
34.020        83
34.040        57
34.060        70
34.080        80
34.100        43
34.120        47
34.140        73
34.160        80
34.180        60
34.200        63
34.220        57
34.240        60
34.260        80
34.280        57
34.300        50
34.320        53
34.340       100
34.360        70
34.380        63
34.400        60
34.420        73
34.440        57
34.460        53
34.480        77
34.500        63
34.520        70
34.540        53
34.560        97
34.580        93
34.600        57
34.620        63
34.640        80
34.660        57
34.680        73
34.700        57
34.720        70
34.740        63
34.760        87
34.780        63
34.800        63
34.820        90
34.840       103
34.860        60
34.880        73
34.900        67
34.920        67
34.940        47
34.960        50
34.980        57
35.000        73
35.020        67
35.040        67
35.060        53
35.080        73
35.100        77
35.120        70
35.140        73
35.160        83
35.180        63
35.200        80
35.220        67
35.240        37
35.260        83
35.280        43
35.300        83
35.320        60
35.340        63
35.360        50
35.380        47
35.400        93
35.420        60
35.440        63
35.460        60
35.480        80
35.500        40
35.520        67
35.540        73
35.560        73
35.580       107
35.600        47
35.620        87
35.640        83
35.660        60
35.680        67
35.700        50
35.720        63
35.740        97
35.760        90
35.780        73
35.800        73
35.820        73
35.840        83
35.860        57
35.880        67
35.900        80
35.920        67
35.940        67
35.960        73
35.980        77
36.000        77
36.020        67
36.040        57
36.060        80
36.080        57
36.100        93
36.120        37
36.140        70
36.160        77
36.180        57
36.200        67
36.220        70
36.240        57
36.260        33
36.280        83
36.300        60
36.320        57
36.340        70
36.360        53
36.380        43
36.400        50
36.420        60
36.440        93
36.460        50
36.480        63
36.500        63
36.520        73
36.540        60
36.560        77
36.580        63
36.600        63
36.620        77
36.640        33
36.660        57
36.680        50
36.700        67
36.720        80
36.740        90
36.760        73
36.780        53
36.800        43
36.820        57
36.840        77
36.860        50
36.880        60
36.900        73
36.920       103
36.940        53
36.960        67
36.980        73
37.000        57
37.020        50
37.040        67
37.060        60
37.080        73
37.100        53
37.120        57
37.140        47
37.160        43
37.180        77
37.200        47
37.220        83
37.240        67
37.260        60
37.280       100
37.300        70
37.320        77
37.340        83
37.360        80
37.380        60
37.400        53
37.420        73
37.440        87
37.460        43
37.480        60
37.500        40
37.520        47
37.540        83
37.560        67
37.580        67
37.600        70
37.620        27
37.640        43
37.660       100
37.680        57
37.700        67
37.720        63
37.740        57
37.760        67
37.780        63
37.800        70
37.820        57
37.840        77
37.860        77
37.880        60
37.900        57
37.920        63
37.940        57
37.960        37
37.980        83
38.000        53
38.020        63
38.040        87
38.060        33
38.080        63
38.100        60
38.120        47
38.140        97
38.160        50
38.180        43
38.200        50
38.220       100
38.240        60
38.260        67
38.280        67
38.300        53
38.320        53
38.340        43
38.360        43
38.380        77
38.400        83
38.420        50
38.440        60
38.460        57
38.480        40
38.500        67
38.520        57
38.540        50
38.560        37
38.580        53
38.600        30
38.620        80
38.640        47
38.660        63
38.680        63
38.700        50
38.720        70
38.740        60
38.760        67
38.780        57
38.800        57
38.820        63
38.840        80
38.860        83
38.880        60
38.900        57
38.920        77
38.940        50
38.960        67
38.980        43
39.000        57
39.020        40
39.040        60
39.060        50
39.080        90
39.100        67
39.120        70
39.140        63
39.160        70
39.180        53
39.200        87
39.220        60
39.240        47
39.260        70
39.280        63
39.300        80
39.320        63
39.340        97
39.360        93
39.380        80
39.400        80
39.420       107
39.440       100
39.460        77
39.480       120
39.500        90
39.520       117
39.540       100
39.560       110
39.580       140
39.600       153
39.620       163
39.640       210
39.660       183
39.680       193
39.700       203
39.720       187
39.740       207
39.760       170
39.780       167
39.800       160
39.820       160
39.840       103
39.860       127
39.880       107
39.900       133
39.920       107
39.940        80
39.960        80
39.980        80
40.000        80
40.020        53
40.040        77
40.060        57
40.080        53
40.100        53
40.120        67
40.140        80
40.160        73
40.180        57
40.200        67
40.220        40
40.240       107
40.260        27
40.280        63
40.300        50
40.320        33
40.340        47
40.360        40
40.380        63
40.400        63
40.420        30
40.440        83
40.460        40
40.480        47
40.500        60
40.520        67
40.540        53
40.560        73
40.580        53
40.600        57
40.620        57
40.640        47
40.660        37
40.680        57
40.700        70
40.720        70
40.740        50
40.760        90
40.780        67
40.800        57
40.820        43
40.840        47
40.860        63
40.880        53
40.900        63
40.920        47
40.940        67
40.960        60
40.980        30
41.000        53
41.020        73
41.040        50
41.060        30
41.080        67
41.100        50
41.120        63
41.140        53
41.160        57
41.180        57
41.200        50
41.220        70
41.240        37
41.260        57
41.280        60
41.300        60
41.320        57
41.340        63
41.360        83
41.380        67
41.400        57
41.420        57
41.440       107
41.460        77
41.480        83
41.500        50
41.520        57
41.540        50
41.560        63
41.580        60
41.600        73
41.620        67
41.640        63
41.660        57
41.680        60
41.700        53
41.720        43
41.740        47
41.760        33
41.780        60
41.800        63
41.820        50
41.840        53
41.860        33
41.880        40
41.900        63
41.920        60
41.940        37
41.960        57
41.980        47
42.000        90
42.020        57
42.040        60
42.060        57
42.080        40
42.100        63
42.120        30
42.140        87
42.160        27
42.180        63
42.200        43
42.220        50
42.240        53
42.260        57
42.280        70
42.300        50
42.320        73
42.340        53
42.360        50
42.380        40
42.400        53
42.420        57
42.440        50
42.460        53
42.480        43
42.500        60
42.520        57
42.540        43
42.560        53
42.580        73
42.600        70
42.620        43
42.640        37
42.660        67
42.680        57
42.700        57
42.720        50
42.740        40
42.760        33
42.780        40
42.800        67
42.820        43
42.840        67
42.860        60
42.880        63
42.900        60
42.920        53
42.940        53
42.960        70
42.980        50
43.000        63
43.020        50
43.040        67
43.060        60
43.080        43
43.100        47
43.120        53
43.140        67
43.160        27
43.180        37
43.200        77
43.220        53
43.240        50
43.260        53
43.280        33
43.300        53
43.320        30
43.340        60
43.360        20
43.380        40
43.400        43
43.420        27
43.440        37
43.460        67
43.480        50
43.500        33
43.520        57
43.540        57
43.560        87
43.580        67
43.600        30
43.620        43
43.640        43
43.660        60
43.680        57
43.700        33
43.720        53
43.740        43
43.760        40
43.780        50
43.800        60
43.820        37
43.840        40
43.860        37
43.880        63
43.900        27
43.920        43
43.940        50
43.960        60
43.980        47
44.000        77
44.020        47
44.040        20
44.060        53
44.080        47
44.100        30
44.120        53
44.140        37
44.160        47
44.180        40
44.200        47
44.220        50
44.240        70
44.260        47
44.280        40
44.300        60
44.320        33
44.340        57
44.360        63
44.380        37
44.400        33
44.420        30
44.440        43
44.460        37
44.480        47
44.500        37
44.520        47
44.540        63
44.560        40
44.580        43
44.600        63
44.620        37
44.640        43
44.660        33
44.680        37
44.700        33
44.720        47
44.740        53
44.760        47
44.780        80
44.800        63
44.820        40
44.840        57
44.860        17
44.880        57
44.900        50
44.920        33
44.940        43
44.960        43
44.980        33
45.000        43
45.020        53
45.040        53
45.060        73
45.080        67
45.100        70
45.120        53
45.140        53
45.160        33
45.180        73
45.200        50
45.220        30
45.240        50
45.260        40
45.280        37
45.300        77
45.320        63
45.340        63
45.360        67
45.380        67
45.400        57
45.420        50
45.440        57
45.460        33
45.480        60
45.500        33
45.520        67
45.540        67
45.560        60
45.580        83
45.600        70
45.620        70
45.640        80
45.660        83
45.680        57
45.700        60
45.720        80
45.740        67
45.760        70
45.780        63
45.800        60
45.820       123
45.840       110
45.860        93
45.880       113
45.900       120
45.920       170
45.940       183
45.960       167
45.980       257
46.000       250
46.020       230
46.040       250
46.060       280
46.080       313
46.100       327
46.120       337
46.140       357
46.160       390
46.180       363
46.200       433
46.220       360
46.240       426
46.260       417
46.280       430
46.300       370
46.320       323
46.340       310
46.360       303
46.380       260
46.400       220
46.420       217
46.440       187
46.460       180
46.480       193
46.500       140
46.520       110
46.540       127
46.560       113
46.580       120
46.600        90
46.620        80
46.640        50
46.660        73
46.680        93
46.700        90
46.720       127
46.740       103
46.760       123
46.780       147
46.800       167
46.820       150
46.840       110
46.860        90
46.880       110
46.900       123
46.920       123
46.940        97
46.960       117
46.980       183
47.000       133
47.020       130
47.040       177
47.060       143
47.080       223
47.100       283
47.120       387
47.140       946
47.160      1569
47.180      2036
47.200      2009
47.220      1493
47.240       850
47.260       456
47.280       297
47.300       217
47.320       207
47.340       207
47.360       133
47.380       100
47.400        97
47.420        97
47.440        73
47.460        80
47.480        50
47.500       107
47.520        77
47.540       100
47.560        80
47.580       103
47.600        77
47.620        80
47.640        83
47.660        67
47.680        57
47.700        73
47.720        87
47.740        87
47.760        70
47.780        57
47.800        73
47.820        67
47.840        60
47.860        73
47.880        67
47.900        53
47.920        63
47.940        47
47.960        67
47.980        73
48.000        57
48.020        67
48.040        47
48.060        50
48.080        43
48.100        63
48.120        40
48.140        40
48.160        70
48.180        67
48.200        67
48.220        97
48.240        77
48.260        57
48.280        47
48.300        73
48.320        97
48.340        83
48.360        67
48.380        60
48.400        70
48.420        83
48.440        50
48.460        63
48.480        50
48.500        47
48.520        87
48.540        63
48.560        43
48.580        67
48.600        37
48.620        80
48.640        53
48.660        57
48.680        50
48.700        70
48.720        70
48.740        63
48.760        73
48.780        37
48.800        60
48.820        43
48.840        67
48.860        53
48.880        60
48.900        57
48.920        53
48.940        73
48.960        53
48.980        57
49.000        67
49.020        40
49.040        60
49.060        43
49.080        37
49.100        50
49.120        63
49.140        27
49.160        50
49.180        47
49.200        73
49.220        50
49.240        40
49.260        53
49.280        57
49.300        53
49.320        60
49.340        30
49.360        53
49.380        43
49.400        50
49.420        47
49.440        50
49.460        73
49.480        50
49.500        40
49.520        30
49.540        57
49.560        60
49.580        50
49.600        63
49.620        67
49.640        37
49.660        63
49.680        57
49.700        50
49.720        53
49.740        50
49.760        53
49.780        43
49.800        37
49.820        57
49.840        40
49.860        77
49.880        57
49.900        57
49.920        53
49.940        57
49.960        53
49.980        40
50.000        50
50.020        67
50.040        53
50.060        63
50.080        37
50.100        57
50.120        37
50.140        53
50.160        40
50.180        43
50.200        37
50.220        50
50.240        50
50.260        40
50.280        47
50.300        43
50.320        43
50.340        20
50.360        50
50.380        53
50.400        47
50.420        47
50.440        53
50.460        37
50.480        53
50.500        57
50.520        27
50.540        70
50.560        80
50.580        73
50.600        97
50.620       110
50.640       207
50.660       267
50.680       373
50.700       486
50.720       503
50.740       523
50.760       510
50.780       490
50.800       563
50.820       543
50.840       476
50.860       553
50.880       596
50.900       503
50.920       523
50.940       563
50.960       540
50.980       550
51.000       503
51.020       500
51.040       526
51.060       550
51.080       510
51.100       566
51.120       450
51.140       536
51.160       506
51.180       496
51.200       483
51.220       546
51.240       556
51.260       593
51.280       543
51.300       516
51.320       550
51.340       520
51.360       520
51.380       476
51.400       513
51.420       490
51.440       543
51.460       550
51.480       526
51.500       573
51.520       593
51.540       510
51.560       590
51.580       583
51.600       516
51.620       646
51.640       530
51.660       613
51.680       590
51.700       546
51.720       540
51.740       633
51.760       536
51.780       613
51.800       653
51.820       653
51.840       680
51.860       610
51.880       613
51.900       643
51.920       663
51.940       710
51.960       650
51.980       773
52.000       720
52.020       730
52.040       756
52.060       810
52.080       790
52.100       880
52.120       990
52.140      1023
52.160       946
52.180      1046
52.200      1083
52.220      1289
52.240      1399
52.260      1716
52.280      2142
52.300      2979
52.320      3532
52.340      4252
52.360      4445
52.380      4392
52.400      4335
52.420      5105
52.440      7027
52.460      9993
52.480     14324
52.500     23324
52.520     41697
52.540     97678
52.560    173687
52.580    211022
52.600    208470
52.620    154691
52.640     82550
52.660     52162
52.680     69222
52.700    108733
52.720    133770
52.740    129688
52.760     91870
52.780     44016
52.800     20379
52.820     12722
52.840     10093
52.860      7890
52.880      6464
52.900      4795
52.920      3375
52.940      2856
52.960      2156
52.980      2053
53.000      1766
53.020      1579
53.040      1523
53.060      1346
53.080      1150
53.100      1213
53.120      1023
53.140      1010
53.160      1050
53.180       986
53.200      1023
53.220       986
53.240       780
53.260       820
53.280       810
53.300       780
53.320       930
53.340       766
53.360       840
53.380       613
53.400       746
53.420       656
53.440       710
53.460       660
53.480       616
53.500       710
53.520       576
53.540       543
53.560       543
53.580       606
53.600       563
53.620       540
53.640       596
53.660       590
53.680       513
53.700       506
53.720       550
53.740       510
53.760       493
53.780       426
53.800       516
53.820       520
53.840       460
53.860       400
53.880       493
53.900       493
53.920       443
53.940       513
53.960       420
53.980       483
54.000       433
54.020       403
54.040       426
54.060       496
54.080       403
54.100       453
54.120       476
54.140       440
54.160       410
54.180       470
54.200       446
54.220       466
54.240       480
54.260       400
54.280       440
54.300       460
54.320       407
54.340       370
54.360       357
54.380       383
54.400       453
54.420       333
54.440       360
54.460       417
54.480       360
54.500       323
54.520       407
54.540       350
54.560       367
54.580       347
54.600       420
54.620       397
54.640       347
54.660       357
54.680       300
54.700       363
54.720       367
54.740       380
54.760       373
54.780       373
54.800       347
54.820       343
54.840       347
54.860       320
54.880       340
54.900       333
54.920       343
54.940       343
54.960       337
54.980       340
55.000       323
55.020       393
55.040       323
55.060       310
55.080       307
55.100       273
55.120       340
55.140       347
55.160       320
55.180       387
55.200       347
55.220       267
55.240       350
55.260       393
55.280       310
55.300       337
55.320       273
55.340       277
55.360       317
55.380       340
55.400       297
55.420       317
55.440       310
55.460       300
55.480       317
55.500       287
55.520       277
55.540       253
55.560       340
55.580       247
55.600       323
55.620       287
55.640       223
55.660       280
55.680       293
55.700       240
55.720       253
55.740       270
55.760       343
55.780       273
55.800       297
55.820       270
55.840       267
55.860       263
55.880       270
55.900       313
55.920       273
55.940       303
55.960       267
55.980       303
56.000       247
56.020       220
56.040       283
56.060       247
56.080       270
56.100       290
56.120       250
56.140       290
56.160       257
56.180       317
56.200       270
56.220       260
56.240       313
56.260       317
56.280       253
56.300       227
56.320       260
56.340       253
56.360       270
56.380       357
56.400       277
56.420       263
56.440       277
56.460       290
56.480       260
56.500       300
56.520       263
56.540       237
56.560       237
56.580       243
56.600       250
56.620       230
56.640       257
56.660       273
56.680       237
56.700       300
56.720       263
56.740       237
56.760       237
56.780       253
56.800       263
56.820       263
56.840       283
56.860       287
56.880       260
56.900       233
56.920       290
56.940       247
56.960       267
56.980       230
57.000       230
57.020       257
57.040       273
57.060       257
57.080       207
57.100       250
57.120       210
57.140       283
57.160       270
57.180       220
57.200       227
57.220       233
57.240       257
57.260       297
57.280       250
57.300       310
57.320       250
57.340       240
57.360       290
57.380       233
57.400       233
57.420       310
57.440       227
57.460       323
57.480       273
57.500       263
57.520       310
57.540       227
57.560       263
57.580       223
57.600       193
57.620       237
57.640       230
57.660       217
57.680       250
57.700       243
57.720       213
57.740       210
57.760       233
57.780       240
57.800       187
57.820       217
57.840       243
57.860       200
57.880       230
57.900       183
57.920       217
57.940       230
57.960       220
57.980       207
58.000       197
58.020       193
58.040       180
58.060       173
58.080       217
58.100       247
58.120       233
58.140       193
58.160       197
58.180       220
58.200       230
58.220       183
58.240       177
58.260       177
58.280       260
58.300       220
58.320       223
58.340       190
58.360       220
58.380       187
58.400       193
58.420       163
58.440       193
58.460       223
58.480       167
58.500       143
58.520       207
58.540       217
58.560       183
58.580       230
58.600       167
58.620       177
58.640       233
58.660       230
58.680       197
58.700       213
58.720       180
58.740       167
58.760       217
58.780       207
58.800       250
58.820       200
58.840       180
58.860       230
58.880       230
58.900       203
58.920       173
58.940       153
58.960       187
58.980       203
59.000       197
59.020       230
59.040       217
59.060       143
59.080       203
59.100       160
59.120       160
59.140       207
59.160       147
59.180       163
59.200       147
59.220       170
59.240       170
59.260       150
59.280       173
59.300       167
59.320       180
59.340       163
59.360       153
59.380       193
59.400       150
59.420       147
59.440       157
59.460       177
59.480       160
59.500       220
59.520       197
59.540       170
59.560       160
59.580       183
59.600       153
59.620       183
59.640       203
59.660       200
59.680       170
59.700       167
59.720       197
59.740       163
59.760       173
59.780       150
59.800       190
59.820       150
59.840       160
59.860       147
59.880       140
59.900       180
59.920       173
59.940       163
59.960       173
59.980       137
60.000       137
