20.000        63
20.020        47
20.040        40
20.060        53
20.080        50
20.100        37
20.120        60
20.140        47
20.160        40
20.180        43
20.200        57
20.220        73
20.240        63
20.260        30
20.280        60
20.300        50
20.320        33
20.340        50
20.360        27
20.380        53
20.400        33
20.420        53
20.440        43
20.460        33
20.480        57
20.500        53
20.520        33
20.540        37
20.560        47
20.580        60
20.600        70
20.620        50
20.640        37
20.660        50
20.680        40
20.700        47
20.720        37
20.740        37
20.760        53
20.780        70
20.800        47
20.820        53
20.840        27
20.860        23
20.880        43
20.900        37
20.920        63
20.940        53
20.960        37
20.980        40
21.000        53
21.020        40
21.040        33
21.060        27
21.080        47
21.100        63
21.120        47
21.140        43
21.160        50
21.180        53
21.200        57
21.220        47
21.240        53
21.260        47
21.280        47
21.300        53
21.320        53
21.340        47
21.360        53
21.380        57
21.400        53
21.420        47
21.440        43
21.460        57
21.480        53
21.500        47
21.520        47
21.540        27
21.560        57
21.580        47
21.600        40
21.620        47
21.640        33
21.660        63
21.680        60
21.700        47
21.720        27
21.740        40
21.760        27
21.780        43
21.800        37
21.820        50
21.840        53
21.860        40
21.880        70
21.900        57
21.920        77
21.940        60
21.960        60
21.980        60
22.000        70
22.020        53
22.040        87
22.060        73
22.080        80
22.100        43
22.120        57
22.140        40
22.160        57
22.180        63
22.200        60
22.220        57
22.240        37
22.260        67
22.280        37
22.300        50
22.320        90
22.340        47
22.360        30
22.380        57
22.400        63
22.420        37
22.440        53
22.460        43
22.480        63
22.500        50
22.520        27
22.540        37
22.560        43
22.580        73
22.600        30
22.620        50
22.640        80
22.660        50
22.680        63
22.700        73
22.720        67
22.740        43
22.760        53
22.780        77
22.800        57
22.820        67
22.840        43
22.860        90
22.880        63
22.900        53
22.920        57
22.940        60
22.960        33
22.980        83
23.000        57
23.020        87
23.040        87
23.060        57
23.080        70
23.100        47
23.120        47
23.140        63
23.160        87
23.180        47
23.200        37
23.220        53
23.240        40
23.260        53
23.280        37
23.300        50
23.320        50
23.340        43
23.360        40
23.380        73
23.400        63
23.420        60
23.440        43
23.460        73
23.480        50
23.500        63
23.520        63
23.540        50
23.560        70
23.580        73
23.600        50
23.620        53
23.640        43
23.660        93
23.680        57
23.700        47
23.720        37
23.740        47
23.760        63
23.780        47
23.800        47
23.820        60
23.840        73
23.860        50
23.880        27
23.900        53
23.920        83
23.940        47
23.960        67
23.980        53
24.000        60
24.020        57
24.040        63
24.060        67
24.080        57
24.100        57
24.120        80
24.140        60
24.160        50
24.180        33
24.200        40
24.220        20
24.240        47
24.260        83
24.280        67
24.300        63
24.320        70
24.340        37
24.360        70
24.380        67
24.400        63
24.420        67
24.440        57
24.460        93
24.480       103
24.500        67
24.520        77
24.540        83
24.560        87
24.580        43
24.600        93
24.620       110
24.640       130
24.660       140
24.680       117
24.700       133
24.720        77
24.740       117
24.760        90
24.780       110
24.800       137
24.820       103
24.840        80
24.860       123
24.880       123
24.900       130
24.920       120
24.940        93
24.960       133
24.980       150
25.000       137
25.020       107
25.040       130
25.060       150
25.080       130
25.100       157
25.120       127
25.140       157
25.160       103
25.180       133
25.200       117
25.220       153
25.240       123
25.260       113
25.280       153
25.300       173
25.320       150
25.340       240
25.360       287
25.380       297
25.400       400
25.420       536
25.440       680
25.460      1263
25.480      3818
25.500      8530
25.520     16014
25.540     21391
25.560     18772
25.580     14018
25.600     12232
25.620     10313
25.640      6464
25.660      3379
25.680      2119
25.700      1923
25.720      1373
25.740      1010
25.760       793
25.780       586
25.800       430
25.820       263
25.840       257
25.860       193
25.880       220
25.900       180
25.920       203
25.940       187
25.960       167
25.980       187
26.000       153
26.020       160
26.040       227
26.060       160
26.080       133
26.100       113
26.120       173
26.140       157
26.160       153
26.180       107
26.200       147
26.220       160
26.240       120
26.260       167
26.280       173
26.300       130
26.320       123
26.340       137
26.360       170
26.380       147
26.400       140
26.420       133
26.440       170
26.460       137
26.480       113
26.500       127
26.520       173
26.540       140
26.560       117
26.580       133
26.600       150
26.620       117
26.640       127
26.660       140
26.680       197
26.700       100
26.720       153
26.740       180
26.760       117
26.780       143
26.800       130
26.820       120
26.840       127
26.860       153
26.880       117
26.900       133
26.920       120
26.940       143
26.960       123
26.980       123
27.000       143
27.020        90
27.040       153
27.060       153
27.080       147
27.100       150
27.120       137
27.140       140
27.160       163
27.180       150
27.200       130
27.220       143
27.240       143
27.260       150
27.280       130
27.300        97
27.320       140
27.340       157
27.360       130
27.380       147
27.400       113
27.420       143
27.440       107
27.460       113
27.480       150
27.500       140
27.520       157
27.540       157
27.560       143
27.580       130
27.600       137
27.620       147
27.640       127
27.660        97
27.680       123
27.700       150
27.720       113
27.740       183
27.760       147
27.780       117
27.800        93
27.820       110
27.840       153
27.860       127
27.880       100
27.900       110
27.920       133
27.940       117
27.960       107
27.980       187
28.000       120
28.020       153
28.040       143
28.060       110
28.080       127
28.100       190
28.120       143
28.140       147
28.160       117
28.180        90
28.200       130
28.220        80
28.240       153
28.260       117
28.280       147
28.300       153
28.320       110
28.340       113
28.360        87
28.380       147
28.400       130
28.420       130
28.440       150
28.460       110
28.480       100
28.500       120
28.520       107
28.540       133
28.560       127
28.580       140
28.600       150
28.620       130
28.640       120
28.660       107
28.680       110
28.700       110
28.720       110
28.740       113
28.760       103
28.780        87
28.800       170
28.820       143
28.840       147
28.860       170
28.880       123
28.900       127
28.920       127
28.940       133
28.960        97
28.980       173
29.000       123
29.020       170
29.040       117
29.060       160
29.080       193
29.100       133
29.120       257
29.140       197
29.160       223
29.180       220
29.200       190
29.220       183
29.240       180
29.260       173
29.280       143
29.300       160
29.320       170
29.340       120
29.360       123
29.380       157
29.400       177
29.420       133
29.440       127
29.460       137
29.480       123
29.500       123
29.520       180
29.540       117
29.560       123
29.580       130
29.600       147
29.620       147
29.640       100
29.660       147
29.680       150
29.700       140
29.720       130
29.740       110
29.760       133
29.780       150
29.800       143
29.820       107
29.840       133
29.860       197
29.880        87
29.900       123
29.920       143
29.940        80
29.960       137
29.980       140
30.000       120
30.020       150
30.040       110
30.060       123
30.080        93
30.100       150
30.120        97
30.140       123
30.160       143
30.180        87
30.200       130
30.220       127
30.240       130
30.260       117
30.280       117
30.300       107
30.320        87
30.340       117
30.360       130
30.380       143
30.400       110
30.420       117
30.440       173
30.460       120
30.480        87
30.500       110
30.520       130
30.540        87
30.560        97
30.580       133
30.600       137
30.620        83
30.640       147
30.660       120
30.680       103
30.700       117
30.720       117
30.740       143
30.760       120
30.780       133
30.800        93
30.820        93
30.840       113
30.860       107
30.880       123
30.900       127
30.920       117
30.940       127
30.960        97
30.980        90
31.000       100
31.020       140
31.040       143
31.060       133
31.080       113
31.100       107
31.120       130
31.140       147
31.160       123
31.180       150
31.200       127
31.220       180
31.240       133
31.260       177
31.280       207
31.300       147
31.320       170
31.340       190
31.360       180
31.380       193
31.400       233
31.420       237
31.440       197
31.460       270
31.480       283
31.500       287
31.520       357
31.540       317
31.560       377
31.580       297
31.600       333
31.620       310
31.640       310
31.660       217
31.680       223
31.700       333
31.720       237
31.740       200
31.760       240
31.780       210
31.800       210
31.820       157
31.840       147
31.860       170
31.880       180
31.900       127
31.920       150
31.940       157
31.960       103
31.980       127
32.000       147
32.020       143
32.040       150
32.060       130
32.080        73
32.100       103
32.120       110
32.140       103
32.160       127
32.180        97
32.200       130
32.220       180
32.240        83
32.260       113
32.280       103
32.300       110
32.320       100
32.340       107
32.360       130
32.380       140
32.400        97
32.420       100
32.440       107
32.460        83
32.480        90
32.500        83
32.520        60
32.540        80
32.560       117
32.580       120
32.600       107
32.620       117
32.640       127
32.660        80
32.680        77
32.700        90
32.720        97
32.740        73
32.760       103
32.780        63
32.800        73
32.820        87
32.840       100
32.860       103
32.880        83
32.900        70
32.920        77
32.940        83
32.960        87
32.980       100
33.000        73
33.020        57
33.040        97
33.060        93
33.080       100
33.100        90
33.120        83
33.140        50
33.160        83
33.180        37
33.200        67
33.220        93
33.240        80
33.260        63
33.280        90
33.300       103
33.320        77
33.340        77
33.360        80
33.380        53
33.400        77
33.420        60
33.440        67
33.460        50
33.480       110
33.500        53
33.520        83
33.540        73
33.560        83
33.580        73
33.600        67
33.620        50
33.640       100
33.660       123
33.680        60
33.700        80
33.720        73
33.740        67
33.760        93
33.780        73
33.800        83
33.820        43
33.840        77
33.860        57
33.880        60
33.900        53
33.920        80
33.940        70
33.960        80
33.980        70
34.000        67
34.020        90
34.040        67
34.060        63
34.080        50
34.100        60
34.120        40
34.140        87
34.160        80
34.180        40
34.200        73
34.220       103
34.240        57
34.260        80
34.280        47
34.300        83
34.320        73
34.340        70
34.360        80
34.380        77
34.400        70
34.420        87
34.440        70
34.460        60
34.480        67
34.500        70
34.520        60
34.540        67
34.560        53
34.580        63
34.600        47
34.620       103
34.640        67
34.660        83
34.680        60
34.700        80
34.720        93
34.740        67
34.760        63
34.780        70
34.800        77
34.820        50
34.840        50
34.860        43
34.880        63
34.900        53
34.920        57
34.940        53
34.960        33
34.980        50
35.000        73
35.020        73
35.040        50
35.060        60
35.080        70
35.100        67
35.120        60
35.140        73
35.160        77
35.180        77
35.200        73
35.220        57
35.240        50
35.260        47
35.280        47
35.300        47
35.320        53
35.340        50
35.360        53
35.380        60
35.400        50
35.420        43
35.440        77
35.460        70
35.480        70
35.500        77
35.520        57
35.540        60
35.560        77
35.580        50
35.600        60
35.620        50
35.640        67
35.660        47
35.680        77
35.700        53
35.720        60
35.740        77
35.760        80
35.780        77
35.800        63
35.820        70
35.840        53
35.860        67
35.880        50
35.900        40
35.920        70
35.940        53
35.960        37
35.980        60
36.000        70
36.020        23
36.040        50
36.060        63
36.080        57
36.100        50
36.120        47
36.140        57
36.160        70
36.180        40
36.200        43
36.220        43
36.240        53
36.260        37
36.280        33
36.300        57
36.320        63
36.340        40
36.360        33
36.380        57
36.400        27
36.420        23
36.440        40
36.460        57
36.480        43
36.500        30
36.520        37
36.540        50
36.560        73
36.580        53
36.600        43
36.620        67
36.640        40
36.660        40
36.680        33
36.700        53
36.720        47
36.740        50
36.760        47
36.780        53
36.800        43
36.820        57
36.840        47
36.860        33
36.880        43
36.900        53
36.920        37
36.940        53
36.960        63
36.980        47
37.000        60
37.020        30
37.040        50
37.060        60
37.080        33
37.100        57
37.120        37
37.140        50
37.160        47
37.180        73
37.200        33
37.220        33
37.240        53
37.260        57
37.280        87
37.300        37
37.320        50
37.340        37
37.360        30
37.380        57
37.400        63
37.420        37
37.440        33
37.460        47
37.480        57
37.500        47
37.520        57
37.540        73
37.560        53
37.580        60
37.600        40
37.620        80
37.640        67
37.660        63
37.680        40
37.700        50
37.720        43
37.740        60
37.760        47
37.780        67
37.800        33
37.820        47
37.840        37
37.860        47
37.880        63
37.900        47
37.920        23
37.940        20
37.960        53
37.980        57
38.000        53
38.020        63
38.040        53
38.060        53
38.080        37
38.100        67
38.120        27
38.140        60
38.160        60
38.180        63
38.200        57
38.220        57
38.240        43
38.260        50
38.280        57
38.300        47
38.320        47
38.340        57
38.360        50
38.380        50
38.400        40
38.420        40
38.440        20
38.460        40
38.480        63
38.500        23
38.520        57
38.540        53
38.560        50
38.580        43
38.600        27
38.620        30
38.640        57
38.660        50
38.680        60
38.700        93
38.720        63
38.740        53
38.760        53
38.780        33
38.800        53
38.820        90
38.840        60
38.860        83
38.880        57
38.900        53
38.920        70
38.940        67
38.960       107
38.980        80
39.000        60
39.020        73
39.040       127
39.060       150
39.080       117
39.100       127
39.120       140
39.140        97
39.160       120
39.180        83
39.200       140
39.220       133
39.240        83
39.260       107
39.280       100
39.300        73
39.320        43
39.340        57
39.360        80
39.380        57
39.400        47
39.420        67
39.440        60
39.460        53
39.480        47
39.500        43
39.520        43
39.540        33
39.560        60
39.580        63
39.600        77
39.620        50
39.640        60
39.660        67
39.680        53
39.700        43
39.720        37
39.740        43
39.760        43
39.780        27
39.800        63
39.820        73
39.840        40
39.860        40
39.880        40
39.900        47
39.920        43
39.940        53
39.960        40
39.980        43
40.000        57
40.020        43
40.040        37
40.060        70
40.080        20
40.100        37
40.120        50
40.140        37
40.160        43
40.180        43
40.200        37
40.220        53
40.240        50
40.260        47
40.280        57
40.300        40
40.320        43
40.340        73
40.360        20
40.380        40
40.400        40
40.420        23
40.440        43
40.460        47
40.480        30
40.500        60
40.520        50
40.540        33
40.560        43
40.580        40
40.600        50
40.620        23
40.640        33
40.660        33
40.680        63
40.700        43
40.720        33
40.740        47
40.760        37
40.780        13
40.800        37
40.820        57
40.840        30
40.860        23
40.880        33
40.900        33
40.920        43
40.940        63
40.960        47
40.980        50
41.000        40
41.020        23
41.040        30
41.060        33
41.080        47
41.100        50
41.120        30
41.140        50
41.160        40
41.180        30
41.200        30
41.220        63
41.240        40
41.260        30
41.280        63
41.300        20
41.320        47
41.340        57
41.360        33
41.380        30
41.400        33
41.420        33
41.440        50
41.460        43
41.480        20
41.500        23
41.520        40
41.540        40
41.560        30
41.580        40
41.600        43
41.620        30
41.640        47
41.660        47
41.680        43
41.700        47
41.720        57
41.740        47
41.760        40
41.780        53
41.800        27
41.820        43
41.840        23
41.860        43
41.880        33
41.900        43
41.920        40
41.940        37
41.960        43
41.980        53
42.000        17
42.020        30
42.040        50
42.060        40
42.080        47
42.100        43
42.120        53
42.140        40
42.160        30
42.180        37
42.200        43
42.220        37
42.240        57
42.260        47
42.280        27
42.300        27
42.320        60
42.340        20
42.360        27
42.380        60
42.400        13
42.420        43
42.440        30
42.460        33
42.480        33
42.500        60
42.520        30
42.540        53
42.560        63
42.580        40
42.600        30
42.620        33
42.640        40
42.660        30
42.680        53
42.700        40
42.720        33
42.740        50
42.760        33
42.780        33
42.800        37
42.820        50
42.840        37
42.860        80
42.880        77
42.900        20
42.920        63
42.940        53
42.960        70
42.980        50
43.000        57
43.020        43
43.040        50
43.060        37
43.080        50
43.100        23
43.120        57
43.140        43
43.160        40
43.180        50
43.200        43
43.220        53
43.240        33
43.260        30
43.280        43
43.300        33
43.320        47
43.340        43
43.360        30
43.380        50
43.400        60
43.420        77
43.440        40
43.460        40
43.480        53
43.500        30
43.520        57
43.540        37
43.560        43
43.580        73
43.600        37
43.620        40
43.640        43
43.660        57
43.680        37
43.700        40
43.720        83
43.740        40
43.760        40
43.780        37
43.800        53
43.820        33
43.840        60
43.860        30
43.880        47
43.900        43
43.920        27
43.940        50
43.960        30
43.980        63
44.000        47
44.020        50
44.040        47
44.060        20
44.080        23
44.100        43
44.120        53
44.140        43
44.160        30
44.180        43
44.200        50
44.220        53
44.240        47
44.260        57
44.280        60
44.300        50
44.320        37
44.340        53
44.360        67
44.380        37
44.400        47
44.420        53
44.440        23
44.460        40
44.480        30
44.500        60
44.520        50
44.540        60
44.560        67
44.580        67
44.600        60
44.620        50
44.640        47
44.660        60
44.680        63
44.700        67
44.720        87
44.740        67
44.760        57
44.780       100
44.800        53
44.820        83
44.840        60
44.860        67
44.880        80
44.900        93
44.920        70
44.940        67
44.960        87
44.980       110
45.000        53
45.020       100
45.040       100
45.060        63
45.080        90
45.100       110
45.120       107
45.140       110
45.160       123
45.180       117
45.200       100
45.220        97
45.240       103
45.260       123
45.280       107
45.300        63
45.320       133
45.340        93
45.360        60
45.380        93
45.400       100
45.420       103
45.440        67
45.460       123
45.480        53
45.500        47
45.520        50
45.540       120
45.560       100
45.580        47
45.600        97
45.620        53
45.640        67
45.660        60
45.680        50
45.700        70
45.720        80
45.740        83
45.760        67
45.780        60
45.800        80
45.820        80
45.840        57
45.860        70
45.880        67
45.900        70
45.920        60
45.940        57
45.960        50
45.980        40
46.000        37
46.020        57
46.040        83
46.060        43
46.080        63
46.100        67
46.120        53
46.140        57
46.160        57
46.180        60
46.200        50
46.220        47
46.240        37
46.260        47
46.280        47
46.300        57
46.320        70
46.340        53
46.360        63
46.380        20
46.400        70
46.420        57
46.440        57
46.460        47
46.480        43
46.500        70
46.520        43
46.540        80
46.560        40
46.580        53
46.600        60
46.620        60
46.640        63
46.660        53
46.680        63
46.700        67
46.720        40
46.740        47
46.760        60
46.780        43
46.800        47
46.820        47
46.840        77
46.860        53
46.880        80
46.900        50
46.920        73
46.940        73
46.960        57
46.980        63
47.000        70
47.020        50
47.040       117
47.060        87
47.080       137
47.100       230
47.120       333
47.140       353
47.160       533
47.180       470
47.200       370
47.220       200
47.240       167
47.260       150
47.280       117
47.300       117
47.320        90
47.340        77
47.360        73
47.380        53
47.400        63
47.420        67
47.440        53
47.460        47
47.480        63
47.500        57
47.520        50
47.540        30
47.560        37
47.580        63
47.600        33
47.620        43
47.640        33
47.660        57
47.680        37
47.700        23
47.720        40
47.740        47
47.760        40
47.780        33
47.800        37
47.820        27
47.840        43
47.860        43
47.880        47
47.900        43
47.920        33
47.940        40
47.960        37
47.980        30
48.000        53
48.020        47
48.040        53
48.060        67
48.080        60
48.100        40
48.120        63
48.140        47
48.160        63
48.180        43
48.200        40
48.220        43
48.240        43
48.260        60
48.280        53
48.300        57
48.320        60
48.340        50
48.360        53
48.380        47
48.400        43
48.420        53
48.440        17
48.460        70
48.480        53
48.500        43
48.520        40
48.540        40
48.560        43
48.580        60
48.600        23
48.620        33
48.640        33
48.660        27
48.680        13
48.700        37
48.720        57
48.740        23
48.760        30
48.780        23
48.800        33
48.820        17
48.840        37
48.860        73
48.880        33
48.900        40
48.920        30
48.940        37
48.960        40
48.980        30
49.000        37
49.020        43
49.040        30
49.060        33
49.080        47
49.100        20
49.120        33
49.140        47
49.160        40
49.180        23
49.200        43
49.220        23
49.240        30
49.260        43
49.280        23
49.300        47
49.320        50
49.340        30
49.360        30
49.380        20
49.400        30
49.420        47
49.440        43
49.460        40
49.480        37
49.500        67
49.520        33
49.540        30
49.560        40
49.580        43
49.600        33
49.620        33
49.640        27
49.660        27
49.680        37
49.700        67
49.720        50
49.740        30
49.760        40
49.780        40
49.800        40
49.820        43
49.840        23
49.860        53
49.880        50
49.900        57
49.920        27
49.940        40
49.960        40
49.980        40
50.000        20
50.020        37
50.040        37
50.060        37
50.080        20
50.100        63
50.120        33
50.140        27
50.160        20
50.180        37
50.200        33
50.220        30
50.240        27
50.260        40
50.280        43
50.300        47
50.320        40
50.340        50
50.360        43
50.380        43
50.400        40
50.420        33
50.440        27
50.460        33
50.480        37
50.500        40
50.520        30
50.540        23
50.560        23
50.580        67
50.600        83
50.620        63
50.640        83
50.660       107
50.680       123
50.700       120
50.720       130
50.740       153
50.760       133
50.780       137
50.800       113
50.820       163
50.840       123
50.860       147
50.880       163
50.900       107
50.920       140
50.940       133
50.960       173
50.980       170
51.000       127
51.020       137
51.040       180
51.060       127
51.080       137
51.100       153
51.120       160
51.140       140
51.160       153
51.180       147
51.200       133
51.220       120
51.240       153
51.260       160
51.280       163
51.300       190
51.320       160
51.340       123
51.360       157
51.380       163
51.400       140
51.420       130
51.440       113
51.460       127
51.480       137
51.500       160
51.520       197
51.540       123
51.560       157
51.580       177
51.600       153
51.620       127
51.640       147
51.660       123
51.680       143
51.700       113
51.720       197
51.740       150
51.760       180
51.780       157
51.800       123
51.820       160
51.840       160
51.860       140
51.880       170
51.900       200
51.920       147
51.940       183
51.960       210
51.980       160
52.000       230
52.020       190
52.040       207
52.060       283
52.080       273
52.100       183
52.120       243
52.140       277
52.160       243
52.180       347
52.200       303
52.220       380
52.240       513
52.260       583
52.280       643
52.300       770
52.320       933
52.340       926
52.360      1060
52.380      1083
52.400      1136
52.420      1459
52.440      2046
52.460      4002
52.480      8207
52.500     17256
52.520     31351
52.540     48427
52.560     57027
52.580     49600
52.600     34360
52.620     19722
52.640     14661
52.660     18596
52.680     27246
52.700     30668
52.720     26543
52.740     17743
52.760      8590
52.780      4248
52.800      2816
52.820      2352
52.840      1736
52.860      1359
52.880       980
52.900       676
52.920       490
52.940       480
52.960       387
52.980       413
53.000       403
53.020       320
53.040       337
53.060       283
53.080       260
53.100       317
53.120       267
53.140       313
53.160       270
53.180       283
53.200       253
53.220       240
53.240       213
53.260       210
53.280       203
53.300       170
53.320       193
53.340       193
53.360       210
53.380       207
53.400       197
53.420       130
53.440       170
53.460       150
53.480       163
53.500       153
53.520       167
53.540       183
53.560       163
53.580       163
53.600       147
53.620       160
53.640       117
53.660       150
53.680       120
53.700       133
53.720       103
53.740       150
53.760       157
53.780       150
53.800       110
53.820       173
53.840       180
53.860       150
53.880       140
53.900       137
53.920       107
53.940       113
53.960       123
53.980        87
54.000       110
54.020       153
54.040       110
54.060       103
54.080        97
54.100       143
54.120       113
54.140        97
54.160       103
54.180       123
54.200       120
54.220       153
54.240       117
54.260       110
54.280        63
54.300        97
54.320       100
54.340       110
54.360       137
54.380       100
54.400        87
54.420        80
54.440       127
54.460       120
54.480       113
54.500       140
54.520       117
54.540       133
54.560        80
54.580        97
54.600       130
54.620       120
54.640       113
54.660       103
54.680       117
54.700        80
54.720       127
54.740        60
54.760       120
54.780        97
54.800       123
54.820       100
54.840        90
54.860       130
54.880        90
54.900       143
54.920       117
54.940        67
54.960       120
54.980       107
55.000        93
55.020       100
55.040        97
55.060        80
55.080       127
55.100        63
55.120       130
55.140       117
55.160       120
55.180       113
55.200        90
55.220        63
55.240        97
55.260        67
55.280        87
55.300        83
55.320        77
55.340       113
55.360        83
55.380        73
55.400        90
55.420        87
55.440        83
55.460       110
55.480        67
55.500        83
55.520        87
55.540        97
55.560        97
55.580        83
55.600       103
55.620        87
55.640        90
55.660        90
55.680        97
55.700        60
55.720       100
55.740        97
55.760        67
55.780       107
55.800        60
55.820        87
55.840        57
55.860        80
55.880        90
55.900        90
55.920       107
55.940       120
55.960        80
55.980        60
56.000       107
56.020        70
56.040       120
56.060        97
56.080       100
56.100        70
56.120        80
56.140        80
56.160       100
56.180       117
56.200        90
56.220       130
56.240       113
56.260        77
56.280        90
56.300       110
56.320        90
56.340        67
56.360        97
56.380       123
56.400       120
56.420       127
56.440       107
56.460        90
56.480       100
56.500        97
56.520        77
56.540       127
56.560        70
56.580        97
56.600       120
56.620        83
56.640        97
56.660       110
56.680        80
56.700       110
56.720        77
56.740       123
56.760        90
56.780        80
56.800       100
56.820        90
56.840        70
56.860        90
56.880        77
56.900       103
56.920        80
56.940        80
56.960        77
56.980        73
57.000        97
57.020        93
57.040       103
57.060        93
57.080        93
57.100        70
57.120        93
57.140        73
57.160        67
57.180        67
57.200        83
57.220        90
57.240        90
57.260        93
57.280        87
57.300        50
57.320        90
57.340        77
57.360        77
57.380       107
57.400       100
57.420        53
57.440        57
57.460        53
57.480        40
57.500        97
57.520        90
57.540        70
57.560        83
57.580        57
57.600        33
57.620        67
57.640        73
57.660        73
57.680        70
57.700        57
57.720        73
57.740        87
57.760       117
57.780        70
57.800        50
57.820        83
57.840        87
57.860        57
57.880        63
57.900        77
57.920        63
57.940        63
57.960        90
57.980        80
58.000        67
58.020        90
58.040        73
58.060        67
58.080        37
58.100        63
58.120        60
58.140        83
58.160        67
58.180        53
58.200        73
58.220        50
58.240        63
58.260        67
58.280        57
58.300        57
58.320        53
58.340       110
58.360        47
58.380        67
58.400        47
58.420       113
58.440        73
58.460        50
58.480        70
58.500        47
58.520        50
58.540        53
58.560        80
58.580        60
58.600        57
58.620        83
58.640        83
58.660        77
58.680        53
58.700        83
58.720        63
58.740        60
58.760        50
58.780        57
58.800        67
58.820        47
58.840        53
58.860        63
58.880        60
58.900        60
58.920        30
58.940        53
58.960        50
58.980        70
59.000        73
59.020        77
59.040        80
59.060        37
59.080        60
59.100        37
59.120        50
59.140        50
59.160        73
59.180        67
59.200        77
59.220        40
59.240        63
59.260        83
59.280        63
59.300        67
59.320        37
59.340        47
59.360        37
59.380        67
59.400        90
59.420        73
59.440        57
59.460        73
59.480        47
59.500        70
59.520        40
59.540        57
59.560        77
59.580        60
59.600        87
59.620        47
59.640        50
59.660        47
59.680        47
59.700        70
59.720        57
59.740        47
59.760        43
59.780        27
59.800        47
59.820        67
59.840        50
59.860        73
59.880        50
59.900        53
59.920        80
59.940        60
59.960        33
59.980        33
60.000        33
