20.000        80
20.020        87
20.040        93
20.060        63
20.080        67
20.100        83
20.120       100
20.140        67
20.160        97
20.180       107
20.200        73
20.220        57
20.240        77
20.260        73
20.280        63
20.300        57
20.320       113
20.340        77
20.360        63
20.380        90
20.400       110
20.420        87
20.440        93
20.460        60
20.480        70
20.500        80
20.520        97
20.540        87
20.560       110
20.580        73
20.600        97
20.620        60
20.640        53
20.660        90
20.680       103
20.700        77
20.720        63
20.740        87
20.760        97
20.780        97
20.800        77
20.820       100
20.840       100
20.860        77
20.880        90
20.900       110
20.920        83
20.940        83
20.960       103
20.980        73
21.000        77
21.020       107
21.040        47
21.060        63
21.080        70
21.100        90
21.120       107
21.140        63
21.160        73
21.180       113
21.200       103
21.220        87
21.240        83
21.260        70
21.280        67
21.300        97
21.320        83
21.340        97
21.360        83
21.380        87
21.400        77
21.420        90
21.440        93
21.460        90
21.480       127
21.500        97
21.520       113
21.540        97
21.560        97
21.580        77
21.600        87
21.620        90
21.640        57
21.660        80
21.680        53
21.700        97
21.720        97
21.740        87
21.760       113
21.780       103
21.800        73
21.820        50
21.840        70
21.860        67
21.880        73
21.900        63
21.920        90
21.940        93
21.960        90
21.980        43
22.000        67
22.020        97
22.040       103
22.060       103
22.080       120
22.100        67
22.120       113
22.140        97
22.160       100
22.180       100
22.200        83
22.220       107
22.240        90
22.260        77
22.280       100
22.300       107
22.320        97
22.340        60
22.360       110
22.380       100
22.400        87
22.420       110
22.440        77
22.460        70
22.480        60
22.500       110
22.520       107
22.540       107
22.560        77
22.580        90
22.600        87
22.620        83
22.640        73
22.660        80
22.680       103
22.700        77
22.720        77
22.740       100
22.760        93
22.780        93
22.800        77
22.820       103
22.840        80
22.860        70
22.880       100
22.900        50
22.920       113
22.940        83
22.960       117
22.980        73
23.000        93
23.020        83
23.040        60
23.060        83
23.080       103
23.100       123
23.120        77
23.140        87
23.160        93
23.180        80
23.200        93
23.220        90
23.240       103
23.260        67
23.280        80
23.300       113
23.320        90
23.340       100
23.360        97
23.380        80
23.400        70
23.420       103
23.440        77
23.460        90
23.480       107
23.500        70
23.520       113
23.540       100
23.560        83
23.580        77
23.600        73
23.620       130
23.640        70
23.660        97
23.680        93
23.700        90
23.720        87
23.740        93
23.760        67
23.780        93
23.800        43
23.820       133
23.840       113
23.860       103
23.880       120
23.900        83
23.920       100
23.940       103
23.960       103
23.980       110
24.000        43
24.020        77
24.040        73
24.060       120
24.080        90
24.100        80
24.120        87
24.140       123
24.160        90
24.180        73
24.200        67
24.220       120
24.240       103
24.260       143
24.280        73
24.300        80
24.320       113
24.340        90
24.360       110
24.380        77
24.400        77
24.420        93
24.440       113
24.460        97
24.480        90
24.500       103
24.520        93
24.540       103
24.560        67
24.580        97
24.600        93
24.620        87
24.640       117
24.660        87
24.680       100
24.700        87
24.720       100
24.740        63
24.760        97
24.780        60
24.800       100
24.820        73
24.840        97
24.860        83
24.880        90
24.900        73
24.920       113
24.940       103
24.960        67
24.980        67
25.000        90
25.020       123
25.040       107
25.060        80
25.080       107
25.100       107
25.120        80
25.140        83
25.160       113
25.180       103
25.200        97
25.220        87
25.240       117
25.260        97
25.280       113
25.300        90
25.320       110
25.340        87
25.360        70
25.380        70
25.400        90
25.420        87
25.440        80
25.460        77
25.480       103
25.500        93
25.520       140
25.540        77
25.560        87
25.580        93
25.600        83
25.620       117
25.640        87
25.660        80
25.680       103
25.700       130
25.720       103
25.740        90
25.760        83
25.780        67
25.800       103
25.820       100
25.840        90
25.860       100
25.880        70
25.900        87
25.920       107
25.940        90
25.960       120
25.980        97
26.000        97
26.020       100
26.040        73
26.060        43
26.080        93
26.100        53
26.120        73
26.140        83
26.160        97
26.180        87
26.200        93
26.220        97
26.240       103
26.260       103
26.280        87
26.300       110
26.320        83
26.340       110
26.360        97
26.380       103
26.400       103
26.420       103
26.440        77
26.460       107
26.480        80
26.500       103
26.520        63
26.540        83
26.560       103
26.580        97
26.600       107
26.620       113
26.640        90
26.660        73
26.680        80
26.700        77
26.720       120
26.740        90
26.760        73
26.780        80
26.800       100
26.820       103
26.840       130
26.860        53
26.880        87
26.900       107
26.920        80
26.940       100
26.960        77
26.980       103
27.000       130
27.020       103
27.040       107
27.060        97
27.080       110
27.100       100
27.120        73
27.140       100
27.160        73
27.180        83
27.200        93
27.220        70
27.240        90
27.260       113
27.280       103
27.300       147
27.320        80
27.340        87
27.360        80
27.380        80
27.400        83
27.420       117
27.440       107
27.460        83
27.480        73
27.500        97
27.520       113
27.540        93
27.560       103
27.580        97
27.600        67
27.620       107
27.640       103
27.660       130
27.680        87
27.700        83
27.720       100
27.740       123
27.760        83
27.780        83
27.800       107
27.820       120
27.840        80
27.860        87
27.880        87
27.900       123
27.920        70
27.940       127
27.960        77
27.980        93
28.000        83
28.020       107
28.040       110
28.060       120
28.080       100
28.100       113
28.120       103
28.140        73
28.160       130
28.180       113
28.200        90
28.220        87
28.240        87
28.260       100
28.280        87
28.300       137
28.320       113
28.340        93
28.360       107
28.380       113
28.400        73
28.420        87
28.440        77
28.460        90
28.480       120
28.500       113
28.520       123
28.540       147
28.560        67
28.580       107
28.600        90
28.620        87
28.640       100
28.660       103
28.680       100
28.700        93
28.720        90
28.740        90
28.760       120
28.780       123
28.800        83
28.820       100
28.840        77
28.860        67
28.880       113
28.900       127
28.920        93
28.940        70
28.960        93
28.980        97
29.000       120
29.020       137
29.040       103
29.060       110
29.080        80
29.100       100
29.120        90
29.140        93
29.160       103
29.180        83
29.200       107
29.220       117
29.240       120
29.260        77
29.280       100
29.300       110
29.320       137
29.340        93
29.360       120
29.380       137
29.400       100
29.420        73
29.440        90
29.460        60
29.480        77
29.500        87
29.520       103
29.540        70
29.560       110
29.580       103
29.600       123
29.620       133
29.640        97
29.660        90
29.680       110
29.700       110
29.720       127
29.740       107
29.760       127
29.780        97
29.800       113
29.820        83
29.840        90
29.860        93
29.880       103
29.900       130
29.920       100
29.940       133
29.960       120
29.980        90
30.000       100
30.020        87
30.040       107
30.060        97
30.080        93
30.100        90
30.120       133
30.140       133
30.160       147
30.180       137
30.200       137
30.220        97
30.240       120
30.260       143
30.280       130
30.300       233
30.320       153
30.340       240
30.360       207
30.380       213
30.400       203
30.420       180
30.440       123
30.460       140
30.480        90
30.500       140
30.520        97
30.540        90
30.560       120
30.580       167
30.600       113
30.620       117
30.640       107
30.660        90
30.680       123
30.700       143
30.720       133
30.740       137
30.760        70
30.780       107
30.800       103
30.820        80
30.840       110
30.860       163
30.880        97
30.900       100
30.920        83
30.940       127
30.960       123
30.980       110
31.000       130
31.020        87
31.040       160
31.060       107
31.080       100
31.100       100
31.120        90
31.140       133
31.160       147
31.180       157
31.200       107
31.220       123
31.240        80
31.260       107
31.280       120
31.300       130
31.320       167
31.340       153
31.360       153
31.380       150
31.400       190
31.420       150
31.440       147
31.460       180
31.480       170
31.500       133
31.520       137
31.540       123
31.560       217
31.580       233
31.600       193
31.620       213
31.640       167
31.660       187
31.680       247
31.700       183
31.720       203
31.740       187
31.760       220
31.780       207
31.800       183
31.820       180
31.840       193
31.860       160
31.880       180
31.900       207
31.920       173
31.940       157
31.960       190
31.980       157
32.000       177
32.020       177
32.040       177
32.060       183
32.080       163
32.100       130
32.120       137
32.140       137
32.160       127
32.180       150
32.200       163
32.220       137
32.240       133
32.260       107
32.280       143
32.300       160
32.320       133
32.340       150
32.360       147
32.380       107
32.400       120
32.420       143
32.440       120
32.460       120
32.480       127
32.500       133
32.520       133
32.540       120
32.560        97
32.580       110
32.600       163
32.620       107
32.640       147
32.660       113
32.680        97
32.700       167
32.720       133
32.740       103
32.760       130
32.780       130
32.800        90
32.820       130
32.840       117
32.860       110
32.880       110
32.900       143
32.920       107
32.940       127
32.960       147
32.980        97
33.000       147
33.020       127
33.040       137
33.060       127
33.080        83
33.100       113
33.120       103
33.140       140
33.160       117
33.180       130
33.200       107
33.220       117
33.240        93
33.260       127
33.280        93
33.300       140
33.320       123
33.340       140
33.360       130
33.380       120
33.400       120
33.420       140
33.440       120
33.460       123
33.480       100
33.500       113
33.520       107
33.540       100
33.560       127
33.580       143
33.600       100
33.620       113
33.640       103
33.660       113
33.680       117
33.700       103
33.720       113
33.740       100
33.760       113
33.780       130
33.800       120
33.820       110
33.840       107
33.860       140
33.880       113
33.900       110
33.920       147
33.940       127
33.960       143
33.980        87
34.000       130
34.020       117
34.040       110
34.060       130
34.080       140
34.100       150
34.120        90
34.140       147
34.160       127
34.180       113
34.200       143
34.220       130
34.240       100
34.260       147
34.280       123
34.300       133
34.320       117
34.340       127
34.360       113
34.380       110
34.400       133
34.420       113
34.440       140
34.460       153
34.480       103
34.500       120
34.520       123
34.540       103
34.560        73
34.580       137
34.600       147
34.620       123
34.640       103
34.660       100
34.680       133
34.700       143
34.720       133
34.740       160
34.760       140
34.780       117
34.800       103
34.820       103
34.840       113
34.860       117
34.880       113
34.900       137
34.920       120
34.940       150
34.960       103
34.980       140
35.000       113
35.020        97
35.040       123
35.060       123
35.080       147
35.100       150
35.120       147
35.140       133
35.160       140
35.180       137
35.200       113
35.220       133
35.240       127
35.260       110
35.280       107
35.300       110
35.320       143
35.340       130
35.360       107
35.380       117
35.400       120
35.420       143
35.440       133
35.460       103
35.480       113
35.500       130
35.520       227
35.540       203
35.560       187
35.580       200
35.600       233
35.620       343
35.640       350
35.660       307
35.680       450
35.700       596
35.720       603
35.740       620
35.760       590
35.780       440
35.800       373
35.820       287
35.840       277
35.860       237
35.880       217
35.900       200
35.920       140
35.940       120
35.960       117
35.980       143
36.000       120
36.020       140
36.040       113
36.060       133
36.080       107
36.100       190
36.120       123
36.140       137
36.160       113
36.180       127
36.200       140
36.220       127
36.240       133
36.260       107
36.280       110
36.300       113
36.320       113
36.340       120
36.360       137
36.380       153
36.400       117
36.420       150
36.440       113
36.460       107
36.480       120
36.500        90
36.520       120
36.540       137
36.560       143
36.580       173
36.600        87
36.620       127
36.640       120
36.660       123
36.680       143
36.700       107
36.720        97
36.740       117
36.760       133
36.780       137
36.800       137
36.820       157
36.840        90
36.860       113
36.880       143
36.900       113
36.920       137
36.940       160
36.960       133
36.980       110
37.000       137
37.020       130
37.040       150
37.060       133
37.080       137
37.100       137
37.120       160
37.140       117
37.160       143
37.180       100
37.200       137
37.220       140
37.240       127
37.260        93
37.280       173
37.300       110
37.320       160
37.340       183
37.360       197
37.380       157
37.400       123
37.420       167
37.440       113
37.460       163
37.480       173
37.500       110
37.520       157
37.540       133
37.560       117
37.580       130
37.600       107
37.620       153
37.640       120
37.660       113
37.680       160
37.700       153
37.720       163
37.740       150
37.760       100
37.780       137
37.800       140
37.820        93
37.840       140
37.860        97
37.880       137
37.900       107
37.920       147
37.940       157
37.960       107
37.980       123
38.000       143
38.020       163
38.040       213
38.060       113
38.080       170
38.100       103
38.120       117
38.140       133
38.160       113
38.180       147
38.200       173
38.220       133
38.240       147
38.260       157
38.280       130
38.300        97
38.320       143
38.340       140
38.360       163
38.380       133
38.400       167
38.420       147
38.440       133
38.460       170
38.480       153
38.500       140
38.520       157
38.540       153
38.560       123
38.580       143
38.600       150
38.620       143
38.640       137
38.660       163
38.680       113
38.700       127
38.720       137
38.740       127
38.760       130
38.780       157
38.800       167
38.820       133
38.840       170
38.860       173
38.880       157
38.900       153
38.920       150
38.940       180
38.960       143
38.980       140
39.000       210
39.020       177
39.040       153
39.060       160
39.080       180
39.100       160
39.120       203
39.140       197
39.160       200
39.180       160
39.200       213
39.220       217
39.240       273
39.260       217
39.280       170
39.300       200
39.320       210
39.340       123
39.360       170
39.380       153
39.400       163
39.420       170
39.440       187
39.460       163
39.480       153
39.500       197
39.520       127
39.540       173
39.560       157
39.580       150
39.600       150
39.620       100
39.640       137
39.660       160
39.680       150
39.700       110
39.720       133
39.740       147
39.760       123
39.780       170
39.800       173
39.820       143
39.840       123
39.860       140
39.880       163
39.900       150
39.920       167
39.940       140
39.960       180
39.980       127
40.000       133
40.020       150
40.040       147
40.060       137
40.080       157
40.100       177
40.120       173
40.140       133
40.160       163
40.180       177
40.200       137
40.220       177
40.240       130
40.260       140
40.280       153
40.300       167
40.320       117
40.340       137
40.360       140
40.380        87
40.400       167
40.420       127
40.440       163
40.460       137
40.480       110
40.500       160
40.520       137
40.540       170
40.560       130
40.580       130
40.600        93
40.620       163
40.640       150
40.660       117
40.680        83
40.700       150
40.720       153
40.740       140
40.760       150
40.780       140
40.800       140
40.820       153
40.840       120
40.860       117
40.880       137
40.900       143
40.920       143
40.940       153
40.960       150
40.980       117
41.000       153
41.020       123
41.040       170
41.060       120
41.080       150
41.100       150
41.120       177
41.140       117
41.160       103
41.180       107
41.200       163
41.220       150
41.240       140
41.260       133
41.280       157
41.300       140
41.320       147
41.340       113
41.360       120
41.380       170
41.400       123
41.420       143
41.440       127
41.460       190
41.480       107
41.500       163
41.520       183
41.540       137
41.560       150
41.580       143
41.600       107
41.620       147
41.640       183
41.660       153
41.680       133
41.700       120
41.720       120
41.740        90
41.760       153
41.780       140
41.800       143
41.820       127
41.840       143
41.860       143
41.880       147
41.900       103
41.920       147
41.940       160
41.960       113
41.980       140
42.000       123
42.020       187
42.040       137
42.060       157
42.080       140
42.100       147
42.120       163
42.140       153
42.160       177
42.180       103
42.200       127
42.220        93
42.240       153
42.260       153
42.280       163
42.300       143
42.320       140
42.340       187
42.360       120
42.380       120
42.400       137
42.420       207
42.440       150
42.460       190
42.480       163
42.500       157
42.520       153
42.540       123
42.560       140
42.580       140
42.600       137
42.620       147
42.640       153
42.660       147
42.680       137
42.700       183
42.720       150
42.740       140
42.760       157
42.780       137
42.800       117
42.820       150
42.840       157
42.860       160
42.880       130
42.900       103
42.920       167
42.940       180
42.960       167
42.980       133
43.000       160
43.020       183
43.040       140
43.060       163
43.080       160
43.100       187
43.120       163
43.140       173
43.160       153
43.180       173
43.200       167
43.220       137
43.240       157
43.260       117
43.280       183
43.300       170
43.320       163
43.340       173
43.360       240
43.380       220
43.400       200
43.420       270
43.440       237
43.460       200
43.480       187
43.500       180
43.520       227
43.540       197
43.560       187
43.580       183
43.600       160
43.620       160
43.640       157
43.660       137
43.680       177
43.700       187
43.720       123
43.740       130
43.760       143
43.780       153
43.800       157
43.820       123
43.840       140
43.860       137
43.880       183
43.900       123
43.920       147
43.940       193
43.960       160
43.980       167
44.000       140
44.020       197
44.040       157
44.060       173
44.080       110
44.100       127
44.120       183
44.140       163
44.160       130
44.180       157
44.200       153
44.220       190
44.240       133
44.260       143
44.280       117
44.300       163
44.320       153
44.340       157
44.360       157
44.380       117
44.400       147
44.420       143
44.440       153
44.460       170
44.480       170
44.500       150
44.520       177
44.540       147
44.560       180
44.580       133
44.600       120
44.620       180
44.640       130
44.660       137
44.680       157
44.700       160
44.720       183
44.740       187
44.760       160
44.780       190
44.800       107
44.820       163
44.840       133
44.860       170
44.880       150
44.900       157
44.920       163
44.940       220
44.960       170
44.980       193
45.000       137
45.020       140
45.040       143
45.060       167
45.080       157
45.100       163
45.120       157
45.140       157
45.160       143
45.180       177
45.200       133
45.220       183
45.240       137
45.260       117
45.280       150
45.300       160
45.320       160
45.340       157
45.360       190
45.380       180
45.400       137
45.420       150
45.440       150
45.460       200
45.480       170
45.500       133
45.520       160
45.540       140
45.560       157
45.580       170
45.600       130
45.620       133
45.640       163
45.660       157
45.680       190
45.700       117
45.720       180
45.740       153
45.760        67
45.780       160
45.800       133
45.820       123
45.840       137
45.860       137
45.880       143
45.900       170
45.920       187
45.940       163
45.960       173
45.980       163
46.000       133
46.020       163
46.040       130
46.060       127
46.080       167
46.100       140
46.120       207
46.140       177
46.160       193
46.180       100
46.200       157
46.220       130
46.240       177
46.260       123
46.280       127
46.300       150
46.320       193
46.340       187
46.360       160
46.380       180
46.400       157
46.420       183
46.440       207
46.460       170
46.480       130
46.500       130
46.520       167
46.540       197
46.560       180
46.580       167
46.600       180
46.620       160
46.640       157
46.660       157
46.680       150
46.700       133
46.720       170
46.740       190
46.760       143
46.780       180
46.800       113
46.820       140
46.840       167
46.860       137
46.880       180
46.900       137
46.920       167
46.940        80
46.960       160
46.980       120
47.000       183
47.020       200
47.040       167
47.060       120
47.080       167
47.100       143
47.120       147
47.140       130
47.160       140
47.180       160
47.200       170
47.220       133
47.240       177
47.260       190
47.280       157
47.300       143
47.320       130
47.340       143
47.360       153
47.380       160
47.400       177
47.420       183
47.440       190
47.460       197
47.480       143
47.500       123
47.520       140
47.540       163
47.560       140
47.580       213
47.600       150
47.620       180
47.640       173
47.660       143
47.680       143
47.700       163
47.720       143
47.740       147
47.760       143
47.780       197
47.800       153
47.820       183
47.840       153
47.860       180
47.880       203
47.900       177
47.920       157
47.940       163
47.960       140
47.980       143
48.000       200
48.020       130
48.040       140
48.060       160
48.080       153
48.100       170
48.120       167
48.140       190
48.160       133
48.180       180
48.200       187
48.220       177
48.240       143
48.260       150
48.280       157
48.300       117
48.320       127
48.340       180
48.360       170
48.380       157
48.400       127
48.420       150
48.440       177
48.460       177
48.480       173
48.500       193
48.520       170
48.540       167
48.560       180
48.580       140
48.600       190
48.620       160
48.640       127
48.660       183
48.680       147
48.700       167
48.720       177
48.740       183
48.760       220
48.780       173
48.800       160
48.820       147
48.840       110
48.860       163
48.880       140
48.900       190
48.920       187
48.940       180
48.960       167
48.980       153
49.000       130
49.020       207
49.040       140
49.060       173
49.080       153
49.100       183
49.120       147
49.140       153
49.160       143
49.180       150
49.200       210
49.220       147
49.240       190
49.260       170
49.280       160
49.300       190
49.320       147
49.340       147
49.360       157
49.380       153
49.400       157
49.420       170
49.440       143
49.460       163
49.480       187
49.500       147
49.520       187
49.540       137
49.560       120
49.580       183
49.600       147
49.620       140
49.640       170
49.660       127
49.680       170
49.700       167
49.720       177
49.740       150
49.760       183
49.780       173
49.800       167
49.820       200
49.840       177
49.860       163
49.880       140
49.900       157
49.920       197
49.940       157
49.960       153
49.980       153
50.000       187
50.020       107
50.040       127
50.060       167
50.080       207
50.100       170
50.120       183
50.140       183
50.160       207
50.180       180
50.200       183
50.220       170
50.240       183
50.260       137
50.280       220
50.300       170
50.320       163
50.340       130
50.360       180
50.380       140
50.400       170
50.420       140
50.440       173
50.460       173
50.480       177
50.500       150
50.520       150
50.540       140
50.560       183
50.580       180
50.600       147
50.620       200
50.640       190
50.660       150
50.680       213
50.700       133
50.720       173
50.740       147
50.760       200
50.780       187
50.800       150
50.820       170
50.840       117
50.860       133
50.880       190
50.900       177
50.920       133
50.940       130
50.960       180
50.980       180
51.000       180
51.020       187
51.040       187
51.060       140
51.080       150
51.100       170
51.120       193
51.140       157
51.160       150
51.180       147
51.200       200
51.220       157
51.240       160
51.260       197
51.280       170
51.300       160
51.320       170
51.340       163
51.360       157
51.380       187
51.400       217
51.420       190
51.440       123
51.460       157
51.480       140
51.500       237
51.520       177
51.540       110
51.560       147
51.580       123
51.600       170
51.620       140
51.640       160
51.660       153
51.680       157
51.700       160
51.720       203
51.740       170
51.760       187
51.780       153
51.800       153
51.820       180
51.840       180
51.860       183
51.880       190
51.900       217
51.920       150
51.940       147
51.960       147
51.980       200
52.000       183
52.020       227
52.040       210
52.060       150
52.080       140
52.100       227
52.120       177
52.140       180
52.160       133
52.180       173
52.200       190
52.220       197
52.240       193
52.260       187
52.280       190
52.300       140
52.320       137
52.340       130
52.360       147
52.380       137
52.400       153
52.420       190
52.440       133
52.460       190
52.480       143
52.500       173
52.520       133
52.540       210
52.560       163
52.580       150
52.600       207
52.620       167
52.640       127
52.660       153
52.680       130
52.700       187
52.720       177
52.740       177
52.760       173
52.780       133
52.800       173
52.820       147
52.840       160
52.860       160
52.880       170
52.900       170
52.920       183
52.940       153
52.960       163
52.980       140
53.000       190
53.020       170
53.040       177
53.060       160
53.080       123
53.100       160
53.120       207
53.140       197
53.160       163
53.180       193
53.200       160
53.220       233
53.240       190
53.260       160
53.280       157
53.300       160
53.320       157
53.340       160
53.360       160
53.380       177
53.400       143
53.420       180
53.440       200
53.460       210
53.480       203
53.500       157
53.520       210
53.540       140
53.560       163
53.580       173
53.600       197
53.620       147
53.640       160
53.660       157
53.680       187
53.700       127
53.720       183
53.740       193
53.760       173
53.780       187
53.800       243
53.820       213
53.840       277
53.860       247
53.880       303
53.900       293
53.920       257
53.940       213
53.960       197
53.980       230
54.000       230
54.020       213
54.040       203
54.060       230
54.080       150
54.100       167
54.120       153
54.140       150
54.160       163
54.180       177
54.200       220
54.220       197
54.240       163
54.260       177
54.280       150
54.300       157
54.320       203
54.340       130
54.360       170
54.380       143
54.400       187
54.420       167
54.440       143
54.460       187
54.480       183
54.500       133
54.520       213
54.540       180
54.560       180
54.580       177
54.600       193
54.620       147
54.640       160
54.660       170
54.680       183
54.700       177
54.720       163
54.740       173
54.760       220
54.780       170
54.800       143
54.820       190
54.840       140
54.860       177
54.880       157
54.900       150
54.920       167
54.940       157
54.960       163
54.980       163
55.000       200
55.020       197
55.040       203
55.060       190
55.080       183
55.100       190
55.120       203
55.140       177
55.160       163
55.180       183
55.200       210
55.220       213
55.240       157
55.260       197
55.280       170
55.300       250
55.320       200
55.340       193
55.360       163
55.380       167
55.400       130
55.420       207
55.440       157
55.460       160
55.480       193
55.500       187
55.520       143
55.540       180
55.560       197
55.580       197
55.600       160
55.620       157
55.640       187
55.660       127
55.680       230
55.700       203
55.720       223
55.740       163
55.760       193
55.780       203
55.800       177
55.820       210
55.840       217
55.860       147
55.880       173
55.900       167
55.920       223
55.940       160
55.960       240
55.980       173
56.000       150
56.020       163
56.040       190
56.060       187
56.080       160
56.100       267
56.120       170
56.140       177
56.160       213
56.180       200
56.200       190
56.220       153
56.240       203
56.260       210
56.280       183
56.300       187
56.320       267
56.340       173
56.360       203
56.380       197
56.400       217
56.420       243
56.440       197
56.460       220
56.480       263
56.500       233
56.520       160
56.540       180
56.560       183
56.580       160
56.600       170
56.620       247
56.640       193
56.660       230
56.680       200
56.700       183
56.720       227
56.740       190
56.760       243
56.780       230
56.800       263
56.820       193
56.840       210
56.860       153
56.880       187
56.900       230
56.920       203
56.940       180
56.960       237
56.980       227
57.000       160
57.020       173
57.040       173
57.060       213
57.080       173
57.100       197
57.120       250
57.140       210
57.160       227
57.180       213
57.200       243
57.220       190
57.240       217
57.260       237
57.280       190
57.300       263
57.320       207
57.340       240
57.360       307
57.380       393
57.400       407
57.420       530
57.440       417
57.460       357
57.480       317
57.500       330
57.520       273
57.540       290
57.560       367
57.580       327
57.600       310
57.620       227
57.640       233
57.660       180
57.680       167
57.700       200
57.720       183
57.740       177
57.760       180
57.780       170
57.800       180
57.820       203
57.840       177
57.860       160
57.880       183
57.900       193
57.920       193
57.940       187
57.960       163
57.980       180
58.000       210
58.020       193
58.040       190
58.060       177
58.080       123
58.100       183
58.120       123
58.140       193
58.160       210
58.180       180
58.200       193
58.220       160
58.240       187
58.260       210
58.280       190
58.300       227
58.320       200
58.340       197
58.360       160
58.380       197
58.400       163
58.420       163
58.440       160
58.460       187
58.480       193
58.500       163
58.520       143
58.540       160
58.560       197
58.580       147
58.600       157
58.620       203
58.640       197
58.660       203
58.680       187
58.700       147
58.720       170
58.740       177
58.760       177
58.780       143
58.800       227
58.820       217
58.840       197
58.860       163
58.880       143
58.900       197
58.920       193
58.940       163
58.960       140
58.980       173
59.000       167
59.020       203
59.040       177
59.060       180
59.080       163
59.100       187
59.120       247
59.140       153
59.160       173
59.180       173
59.200       187
59.220       173
59.240       240
59.260       153
59.280       160
59.300       197
59.320       173
59.340       163
59.360       123
59.380       143
59.400       157
59.420       143
59.440       183
59.460       193
59.480       163
59.500       167
59.520       173
59.540       173
59.560       193
59.580       137
59.600       190
59.620       160
59.640       213
59.660       123
59.680       143
59.700       193
59.720       203
59.740       163
59.760       180
59.780       163
59.800       177
59.820       167
59.840       160
59.860       177
59.880       170
59.900       153
59.920       147
59.940       157
59.960       200
59.980       117
60.000       117
