20.000        57
20.020        60
20.040        47
20.060        47
20.080        57
20.100        60
20.120        60
20.140        60
20.160        73
20.180        73
20.200        60
20.220        70
20.240        57
20.260        43
20.280        60
20.300        60
20.320        77
20.340        57
20.360        67
20.380        40
20.400        33
20.420        73
20.440        73
20.460        90
20.480        30
20.500        60
20.520        43
20.540        27
20.560        53
20.580        57
20.600        53
20.620        53
20.640        50
20.660        43
20.680        43
20.700        30
20.720        53
20.740        67
20.760        33
20.780        40
20.800        40
20.820        33
20.840        40
20.860        33
20.880        67
20.900        60
20.920        70
20.940        47
20.960        40
20.980        43
21.000        67
21.020        60
21.040        63
21.060        50
21.080        40
21.100        43
21.120        60
21.140        70
21.160        37
21.180        43
21.200        57
21.220        50
21.240        53
21.260        50
21.280        50
21.300        67
21.320        60
21.340        27
21.360        43
21.380        47
21.400        40
21.420        43
21.440        43
21.460        60
21.480        47
21.500        80
21.520        43
21.540        53
21.560        43
21.580        77
21.600        53
21.620        57
21.640        23
21.660        87
21.680        47
21.700        63
21.720        53
21.740        50
21.760        47
21.780        57
21.800        57
21.820        53
21.840        43
21.860        30
21.880        87
21.900        33
21.920        43
21.940        67
21.960        83
21.980        73
22.000        67
22.020        97
22.040        43
22.060        67
22.080        63
22.100        83
22.120        63
22.140        83
22.160        73
22.180        90
22.200        70
22.220       103
22.240       120
22.260        73
22.280       103
22.300       163
22.320       157
22.340       167
22.360       213
22.380       177
22.400       197
22.420       237
22.440       240
22.460       253
22.480       217
22.500       217
22.520       183
22.540       157
22.560        93
22.580       100
22.600        87
22.620       120
22.640       107
22.660        63
22.680        57
22.700        40
22.720        30
22.740        60
22.760        40
22.780        60
22.800        57
22.820        37
22.840        60
22.860        53
22.880        47
22.900        67
22.920        37
22.940        43
22.960        30
22.980        43
23.000        47
23.020        50
23.040        50
23.060        47
23.080        43
23.100        40
23.120        33
23.140        33
23.160        60
23.180        53
23.200        67
23.220        40
23.240        33
23.260        27
23.280        40
23.300        43
23.320        47
23.340        40
23.360        53
23.380        20
23.400        50
23.420        30
23.440        50
23.460        67
23.480        63
23.500        50
23.520        37
23.540        47
23.560        40
23.580        47
23.600        50
23.620        37
23.640        53
23.660        40
23.680        50
23.700        33
23.720        47
23.740        63
23.760        33
23.780        57
23.800        70
23.820        47
23.840        43
23.860        53
23.880        33
23.900        63
23.920        47
23.940        37
23.960        47
23.980        30
24.000        57
24.020        60
24.040        37
24.060        40
24.080        33
24.100        53
24.120        30
24.140        40
24.160        57
24.180        47
24.200        43
24.220        43
24.240        33
24.260        30
24.280        40
24.300        37
24.320        50
24.340        47
24.360        67
24.380        33
24.400        30
24.420        27
24.440        33
24.460        43
24.480        47
24.500        57
24.520        33
24.540        63
24.560        33
24.580        47
24.600        40
24.620        43
24.640        30
24.660        47
24.680        53
24.700        40
24.720        57
24.740        27
24.760        60
24.780        33
24.800        37
24.820        63
24.840        50
24.860        37
24.880        23
24.900        33
24.920        40
24.940        33
24.960        47
24.980        53
25.000        47
25.020        27
25.040        47
25.060        50
25.080        47
25.100        47
25.120        33
25.140        33
25.160        40
25.180        10
25.200        47
25.220        43
25.240        37
25.260        50
25.280        40
25.300        57
25.320        60
25.340        43
25.360        53
25.380        50
25.400        30
25.420        33
25.440        43
25.460        77
25.480        67
25.500        53
25.520        60
25.540        83
25.560       113
25.580       133
25.600       137
25.620       120
25.640       140
25.660       150
25.680        87
25.700        67
25.720        37
25.740        47
25.760        43
25.780        30
25.800        50
25.820        37
25.840        27
25.860        30
25.880        47
25.900        43
25.920        40
25.940        43
25.960        47
25.980        17
26.000        47
26.020        30
26.040        43
26.060        47
26.080        43
26.100        30
26.120        47
26.140        33
26.160        43
26.180        47
26.200        40
26.220        50
26.240        50
26.260        60
26.280        47
26.300        47
26.320        30
26.340        27
26.360        33
26.380        23
26.400        47
26.420        37
26.440        23
26.460        27
26.480        37
26.500        37
26.520        37
26.540        37
26.560        37
26.580        20
26.600        50
26.620        50
26.640        30
26.660        27
26.680        47
26.700        43
26.720        40
26.740        37
26.760        20
26.780        23
26.800        30
26.820        57
26.840        30
26.860        40
26.880        27
26.900        33
26.920        43
26.940        37
26.960        47
26.980        53
27.000        23
27.020        50
27.040        20
27.060        50
27.080        27
27.100        40
27.120        43
27.140        53
27.160        50
27.180        43
27.200        23
27.220        50
27.240        30
27.260        33
27.280        40
27.300        30
27.320        33
27.340        33
27.360        30
27.380        30
27.400        33
27.420        30
27.440        40
27.460        37
27.480        27
27.500        43
27.520        27
27.540        50
27.560        27
27.580        50
27.600        37
27.620        40
27.640        37
27.660        20
27.680        47
27.700        27
27.720        30
27.740        27
27.760        47
27.780        37
27.800        23
27.820        43
27.840        43
27.860        40
27.880        47
27.900        27
27.920        37
27.940        23
27.960        60
27.980        37
28.000        33
28.020        60
28.040        43
28.060        43
28.080        23
28.100        33
28.120        27
28.140        33
28.160        57
28.180        33
28.200        30
28.220        27
28.240        47
28.260        27
28.280        33
28.300        43
28.320        57
28.340        20
28.360        33
28.380        40
28.400        30
28.420        20
28.440        37
28.460        50
28.480        43
28.500        27
28.520        37
28.540        37
28.560        30
28.580        47
28.600        30
28.620        33
28.640        37
28.660        33
28.680        43
28.700        30
28.720        47
28.740        33
28.760        47
28.780        37
28.800        53
28.820        37
28.840        33
28.860        40
28.880        43
28.900        33
28.920        50
28.940        33
28.960        43
28.980        33
29.000        33
29.020        33
29.040        37
29.060        53
29.080        43
29.100        23
29.120        40
29.140        13
29.160        27
29.180        33
29.200        23
29.220        13
29.240        27
29.260        33
29.280        37
29.300        30
29.320        27
29.340        50
29.360        40
29.380        20
29.400        40
29.420        53
29.440        37
29.460        27
29.480        40
29.500        30
29.520        53
29.540        47
29.560        30
29.580        40
29.600        13
29.620        43
29.640        33
29.660        23
29.680        37
29.700        17
29.720        23
29.740        10
29.760        17
29.780        43
29.800        57
29.820        47
29.840        40
29.860        20
29.880        53
29.900        20
29.920        23
29.940        27
29.960        47
29.980        27
30.000        30
30.020        33
30.040        33
30.060        47
30.080        27
30.100        33
30.120        30
30.140        40
30.160        30
30.180        40
30.200        23
30.220        40
30.240        37
30.260        20
30.280        43
30.300        47
30.320        63
30.340        47
30.360        30
30.380        23
30.400        23
30.420        33
30.440        43
30.460        23
30.480        47
30.500        23
30.520        33
30.540        30
30.560        27
30.580        20
30.600        17
30.620        30
30.640        30
30.660        27
30.680        10
30.700        27
30.720        47
30.740        27
30.760        27
30.780        43
30.800        27
30.820        33
30.840        30
30.860        13
30.880        27
30.900        23
30.920        37
30.940        47
30.960        23
30.980        30
31.000        43
31.020        37
31.040        27
31.060        27
31.080        40
31.100        43
31.120        43
31.140        37
31.160        20
31.180        57
31.200        37
31.220        40
31.240        50
31.260        60
31.280        33
31.300        60
31.320        40
31.340        33
31.360        33
31.380        40
31.400        30
31.420        47
31.440        67
31.460        77
31.480        63
31.500        67
31.520        60
31.540        47
31.560        83
31.580        83
31.600        77
31.620        73
31.640       100
31.660       117
31.680        87
31.700       130
31.720       113
31.740       153
31.760       137
31.780       253
31.800       263
31.820       263
31.840       293
31.860       303
31.880       440
31.900       473
31.920       436
31.940       583
31.960       516
31.980       590
32.000       596
32.020       463
32.040       483
32.060       407
32.080       413
32.100       337
32.120       187
32.140       217
32.160       137
32.180       157
32.200       133
32.220        97
32.240       103
32.260        80
32.280       123
32.300        60
32.320        70
32.340       110
32.360        57
32.380        50
32.400        40
32.420        50
32.440        57
32.460        73
32.480        60
32.500        57
32.520        30
32.540        43
32.560        53
32.580        47
32.600        33
32.620        57
32.640        33
32.660        57
32.680        37
32.700        33
32.720        57
32.740        50
32.760        53
32.780        37
32.800        53
32.820        30
32.840        30
32.860        40
32.880        37
32.900        47
32.920        37
32.940        30
32.960        27
32.980        37
33.000        20
33.020        33
33.040        27
33.060        43
33.080        27
33.100        30
33.120        37
33.140        17
33.160        47
33.180        23
33.200        37
33.220        60
33.240        27
33.260        17
33.280        27
33.300        37
33.320        43
33.340        27
33.360        23
33.380        27
33.400        13
33.420        17
33.440        43
33.460        27
33.480        27
33.500        30
33.520        30
33.540        17
33.560        27
33.580        27
33.600        27
33.620        23
33.640        33
33.660        23
33.680        30
33.700        13
33.720        37
33.740        33
33.760        37
33.780        23
33.800        33
33.820        27
33.840        27
33.860        37
33.880        30
33.900        37
33.920        30
33.940        23
33.960        43
33.980        30
34.000        57
34.020        37
34.040        23
34.060        37
34.080        37
34.100        33
34.120        37
34.140        27
34.160        23
34.180        17
34.200        17
34.220        30
34.240        20
34.260        23
34.280        20
34.300        27
34.320        23
34.340        30
34.360        27
34.380        60
34.400        17
34.420        40
34.440        40
34.460        33
34.480        40
34.500        30
34.520        23
34.540        27
34.560        10
34.580        27
34.600        37
34.620        13
34.640        13
34.660        27
34.680        33
34.700        37
34.720        30
34.740        27
34.760        27
34.780        33
34.800        23
34.820        40
34.840        40
34.860        77
34.880        57
34.900        37
34.920        53
34.940        50
34.960        70
34.980        80
35.000        80
35.020        77
35.040        67
35.060       107
35.080       110
35.100       207
35.120       330
35.140       426
35.160       420
35.180       526
35.200       503
35.220       390
35.240       310
35.260       270
35.280       277
35.300       217
35.320        93
35.340        73
35.360        53
35.380        33
35.400        33
35.420        33
35.440        37
35.460        37
35.480        20
35.500        37
35.520        30
35.540        20
35.560        33
35.580        27
35.600        43
35.620        47
35.640        53
35.660        20
35.680        40
35.700        30
35.720        13
35.740        30
35.760        30
35.780        30
35.800        27
35.820        50
35.840        23
35.860        30
35.880        17
35.900        33
35.920        10
35.940        33
35.960        30
35.980        20
36.000        30
36.020        27
36.040        30
36.060        30
36.080         7
36.100        30
36.120         7
36.140        33
36.160        30
36.180        27
36.200        17
36.220        20
36.240        17
36.260        10
36.280        20
36.300        27
36.320        47
36.340        40
36.360        27
36.380        23
36.400        27
36.420        27
36.440        27
36.460        27
36.480        27
36.500        27
36.520        30
36.540        27
36.560        23
36.580        23
36.600        23
36.620        30
36.640        30
36.660        17
36.680        20
36.700        10
36.720        33
36.740        23
36.760        27
36.780        30
36.800        13
36.820        23
36.840        47
36.860        27
36.880        13
36.900        30
36.920        37
36.940        30
36.960        33
36.980        30
37.000        23
37.020        27
37.040        27
37.060        20
37.080        33
37.100        37
37.120        23
37.140        30
37.160        17
37.180        23
37.200        33
37.220        23
37.240        27
37.260        23
37.280        23
37.300        27
37.320        27
37.340        27
37.360        30
37.380        10
37.400        17
37.420        23
37.440        40
37.460        33
37.480        23
37.500        37
37.520        20
37.540        20
37.560        43
37.580        33
37.600        27
37.620        17
37.640        20
37.660        40
37.680        27
37.700        33
37.720        23
37.740        77
37.760        53
37.780        63
37.800        77
37.820       100
37.840        60
37.860        93
37.880        50
37.900        50
37.920        50
37.940        27
37.960        37
37.980        23
38.000        43
38.020        37
38.040        17
38.060        23
38.080        20
38.100        20
38.120        17
38.140        37
38.160        20
38.180        23
38.200        23
38.220        20
38.240        37
38.260        40
38.280        23
38.300        40
38.320        20
38.340        30
38.360        37
38.380        23
38.400        20
38.420        27
38.440        33
38.460        23
38.480        40
38.500        17
38.520        23
38.540        23
38.560        37
38.580        23
38.600        33
38.620        23
38.640        20
38.660        23
38.680        23
38.700        13
38.720        27
38.740        50
38.760        10
38.780        33
38.800        27
38.820        33
38.840        33
38.860        20
38.880        13
38.900        13
38.920        20
38.940        20
38.960        27
38.980        27
39.000        40
39.020        17
39.040        17
39.060        23
39.080        30
39.100        20
39.120        20
39.140        33
39.160        23
39.180        23
39.200        53
39.220        50
39.240        60
39.260        33
39.280        47
39.300        33
39.320        77
39.340        73
39.360        73
39.380        73
39.400       117
39.420       127
39.440       117
39.460       217
39.480       213
39.500       283
39.520       307
39.540       293
39.560       253
39.580       207
39.600       217
39.620       203
39.640       163
39.660       130
39.680        77
39.700       110
39.720        53
39.740        70
39.760        47
39.780        33
39.800        53
39.820        20
39.840        50
39.860        47
39.880        33
39.900        40
39.920        33
39.940        43
39.960        23
39.980        33
40.000        30
40.020        40
40.040        43
40.060        47
40.080        33
40.100        30
40.120        23
40.140        20
40.160        20
40.180        23
40.200        33
40.220        30
40.240        33
40.260        23
40.280        27
40.300        20
40.320        33
40.340        23
40.360        27
40.380        23
40.400        27
40.420        37
40.440        23
40.460        27
40.480        33
40.500        43
40.520         7
40.540        13
40.560        37
40.580        27
40.600        17
40.620        27
40.640        30
40.660        17
40.680        20
40.700        23
40.720        17
40.740        13
40.760        27
40.780        20
40.800        33
40.820        37
40.840        27
40.860        17
40.880        13
40.900        13
40.920        23
40.940        30
40.960        37
40.980        17
41.000        50
41.020        27
41.040        40
41.060        30
41.080        13
41.100        17
41.120        30
41.140        20
41.160        23
41.180        33
41.200        27
41.220        23
41.240        33
41.260        23
41.280        13
41.300        20
41.320        27
41.340        33
41.360        30
41.380        23
41.400        27
41.420        20
41.440        23
41.460        30
41.480        50
41.500        27
41.520        33
41.540        23
41.560        53
41.580        20
41.600        30
41.620        40
41.640        67
41.660        70
41.680        70
41.700        83
41.720        93
41.740        37
41.760        50
41.780        43
41.800        43
41.820        40
41.840        57
41.860        37
41.880        30
41.900        37
41.920        20
41.940        10
41.960        20
41.980        17
42.000        20
42.020        27
42.040        27
42.060        13
42.080        43
42.100        30
42.120        23
42.140        33
42.160        37
42.180        17
42.200        23
42.220        20
42.240        10
42.260        13
42.280        23
42.300        40
42.320        17
42.340        23
42.360        10
42.380        17
42.400        20
42.420        27
42.440        10
42.460        17
42.480        17
42.500        20
42.520        10
42.540        20
42.560        30
42.580        27
42.600        20
42.620        17
42.640        23
42.660        33
42.680        33
42.700         7
42.720        30
42.740        33
42.760        40
42.780        17
42.800        20
42.820         7
42.840        17
42.860        23
42.880        27
42.900        17
42.920        37
42.940        17
42.960        13
42.980        27
43.000        23
43.020        23
43.040        30
43.060        33
43.080        40
43.100        27
43.120        33
43.140        47
43.160        33
43.180        43
43.200        47
43.220        77
43.240        77
43.260        83
43.280        90
43.300       117
43.320       170
43.340       143
43.360       210
43.380       243
43.400       213
43.420       210
43.440       120
43.460       160
43.480       120
43.500       140
43.520       123
43.540        73
43.560        40
43.580        30
43.600        43
43.620        37
43.640        13
43.660        23
43.680        17
43.700        27
43.720        27
43.740        27
43.760        23
43.780        33
43.800        20
43.820        17
43.840        17
43.860        13
43.880        13
43.900        13
43.920        23
43.940        17
43.960        17
43.980        30
44.000        27
44.020        37
44.040        23
44.060        37
44.080        10
44.100        40
44.120        30
44.140        20
44.160        20
44.180        30
44.200        13
44.220        33
44.240        53
44.260        23
44.280        17
44.300        20
44.320        30
44.340        33
44.360        20
44.380        20
44.400        13
44.420        30
44.440        43
44.460        23
44.480        17
44.500        20
44.520        27
44.540        37
44.560        27
44.580        23
44.600        23
44.620        30
44.640        13
44.660        20
44.680        27
44.700        43
44.720        37
44.740        20
44.760        17
44.780        23
44.800        23
44.820        33
44.840        27
44.860        33
44.880        40
44.900        17
44.920        27
44.940        37
44.960        17
44.980        20
45.000        33
45.020        53
45.040        37
45.060        43
45.080        40
45.100        33
45.120        43
45.140        23
45.160        40
45.180        30
45.200        23
45.220        33
45.240        30
45.260        33
45.280        23
45.300        27
45.320        40
45.340        70
45.360        47
45.380        53
45.400        40
45.420        47
45.440        47
45.460        93
45.480        83
45.500        73
45.520        77
45.540       110
45.560       117
45.580       150
45.600       137
45.620       190
45.640       163
45.660       163
45.680       233
45.700       193
45.720       270
45.740       330
45.760       330
45.780       313
45.800       330
45.820       330
45.840       400
45.860       317
45.880       303
45.900       253
45.920       273
45.940       230
45.960       250
45.980       170
46.000       190
46.020       167
46.040       157
46.060        83
46.080        77
46.100        97
46.120        97
46.140        73
46.160       100
46.180        67
46.200        53
46.220        67
46.240        57
46.260        50
46.280        40
46.300        50
46.320        33
46.340        57
46.360        40
46.380        47
46.400        47
46.420        37
46.440        23
46.460        37
46.480        47
46.500        33
46.520        43
46.540        27
46.560        23
46.580        23
46.600        47
46.620        27
46.640        30
46.660        33
46.680        17
46.700         7
46.720        20
46.740        27
46.760        37
46.780        37
46.800        37
46.820        10
46.840        17
46.860        30
46.880        13
46.900        30
46.920        33
46.940        17
46.960        20
46.980        20
47.000        23
47.020        37
47.040        10
47.060        30
47.080        27
47.100        17
47.120        33
47.140        20
47.160        13
47.180        37
47.200        23
47.220        27
47.240        20
47.260        23
47.280        30
47.300        43
47.320        23
47.340        20
47.360        27
47.380        23
47.400        13
47.420        20
47.440        13
47.460        23
47.480        33
47.500        27
47.520         3
47.540        10
47.560        27
47.580        10
47.600        10
47.620        10
47.640        17
47.660        43
47.680        17
47.700        30
47.720        27
47.740        30
47.760        17
47.780        17
47.800        27
47.820        13
47.840        27
47.860        17
47.880        17
47.900        27
47.920        17
47.940        30
47.960        33
47.980        23
48.000        13
48.020        20
48.040        17
48.060        17
48.080        27
48.100        17
48.120         3
48.140        27
48.160        27
48.180        30
48.200        33
48.220        17
48.240         3
48.260        17
48.280        10
48.300        27
48.320        13
48.340        27
48.360        13
48.380        30
48.400        13
48.420        27
48.440        17
48.460        13
48.480        33
48.500        10
48.520        10
48.540         7
48.560        20
48.580        27
48.600        27
48.620        23
48.640        20
48.660         7
48.680        10
48.700        17
48.720        33
48.740        13
48.760        17
48.780        20
48.800        20
48.820        17
48.840        23
48.860        23
48.880        20
48.900        27
48.920        17
48.940        23
48.960        27
48.980        13
49.000        13
49.020        23
49.040        17
49.060        10
49.080        13
49.100        20
49.120        13
49.140        17
49.160        17
49.180        20
49.200        27
49.220        13
49.240        13
49.260        20
49.280        17
49.300        27
49.320        20
49.340        37
49.360         3
49.380        13
49.400        10
49.420        10
49.440        17
49.460        17
49.480        17
49.500        20
49.520        17
49.540        33
49.560        20
49.580        20
49.600        13
49.620        30
49.640        27
49.660        27
49.680        23
49.700        27
49.720        13
49.740        10
49.760        20
49.780        20
49.800        23
49.820        20
49.840        10
49.860        17
49.880        13
49.900        23
49.920        13
49.940        30
49.960        20
49.980        17
50.000        23
50.020         7
50.040         3
50.060        17
50.080        17
50.100        17
50.120        10
50.140        23
50.160         7
50.180        27
50.200        23
50.220        20
50.240        10
50.260        10
50.280        23
50.300        10
50.320        17
50.340        13
50.360        13
50.380        17
50.400        13
50.420         3
50.440        17
50.460        17
50.480        17
50.500         3
50.520        17
50.540        27
50.560        23
50.580         7
50.600        13
50.620        13
50.640         3
50.660         7
50.680        23
50.700        17
50.720        10
50.740        13
50.760        20
50.780        13
50.800        27
50.820        10
50.840        13
50.860        30
50.880        17
50.900        30
50.920         3
50.940        10
50.960        10
50.980         7
51.000        17
51.020        13
51.040        20
51.060         7
51.080        17
51.100        17
51.120        17
51.140        23
51.160        13
51.180         0
51.200        23
51.220        10
51.240        27
51.260        17
51.280        17
51.300        23
51.320        17
51.340        13
51.360        20
51.380        17
51.400        10
51.420        30
51.440        10
51.460        37
51.480        10
51.500         7
51.520        13
51.540        27
51.560        37
51.580        37
51.600        17
51.620        30
51.640        17
51.660        17
51.680        27
51.700        30
51.720        27
51.740        33
51.760        27
51.780        23
51.800        23
51.820        23
51.840        27
51.860        13
51.880        20
51.900        20
51.920        30
51.940        20
51.960         3
51.980        13
52.000        37
52.020         7
52.040         7
52.060        17
52.080        13
52.100        23
52.120        13
52.140        13
52.160        23
52.180        20
52.200        10
52.220        13
52.240         7
52.260        13
52.280        27
52.300        10
52.320        13
52.340        37
52.360        27
52.380        23
52.400        27
52.420        37
52.440        40
52.460        30
52.480        30
52.500        53
52.520        50
52.540        70
52.560        80
52.580       157
52.600       110
52.620       103
52.640        77
52.660        40
52.680        53
52.700        77
52.720        80
52.740        90
52.760        50
52.780        30
52.800        10
52.820        23
52.840        13
52.860        20
52.880        27
52.900        13
52.920        17
52.940        10
52.960        17
52.980        27
53.000        17
53.020        13
53.040         7
53.060        20
53.080        17
53.100         3
53.120        17
53.140        23
53.160        13
53.180        13
53.200        17
53.220        23
53.240        17
53.260        10
53.280        20
53.300         3
53.320        20
53.340         7
53.360        10
53.380        17
53.400        10
53.420         3
53.440        27
53.460        27
53.480        13
53.500        20
53.520        23
53.540         7
53.560        13
53.580        13
53.600        27
53.620         0
53.640        17
53.660        13
53.680        23
53.700        17
53.720        17
53.740        13
53.760        13
53.780        13
53.800        10
53.820        20
53.840        20
53.860        30
53.880        13
53.900         3
53.920        10
53.940         3
53.960         7
53.980         7
54.000        10
54.020        13
54.040        10
54.060        30
54.080        17
54.100        13
54.120        10
54.140        17
54.160        13
54.180        20
54.200        20
54.220        33
54.240         7
54.260        27
54.280        13
54.300         7
54.320         7
54.340        13
54.360        13
54.380        13
54.400        20
54.420        17
54.440        33
54.460         7
54.480        13
54.500        13
54.520        13
54.540        17
54.560        13
54.580         7
54.600         7
54.620        17
54.640        10
54.660        27
54.680        20
54.700         7
54.720        27
54.740        20
54.760        13
54.780         7
54.800        20
54.820        30
54.840        27
54.860        20
54.880        10
54.900        10
54.920        17
54.940        13
54.960        10
54.980         7
55.000        10
55.020         3
55.040        20
55.060        10
55.080         3
55.100        23
55.120        20
55.140        30
55.160         7
55.180        17
55.200        13
55.220        10
55.240        43
55.260        13
55.280        13
55.300        20
55.320        27
55.340        13
55.360        10
55.380        17
55.400        10
55.420        10
55.440        27
55.460        33
55.480        17
55.500        13
55.520        20
55.540        23
55.560        17
55.580        17
55.600        13
55.620        10
55.640        17
55.660        20
55.680        10
55.700        20
55.720        17
55.740        10
55.760         7
55.780        10
55.800         7
55.820        17
55.840         7
55.860        27
55.880        27
55.900        23
55.920        20
55.940        30
55.960        20
55.980        17
56.000        20
56.020        27
56.040         7
56.060        20
56.080        10
56.100        20
56.120        27
56.140        23
56.160        20
56.180        13
56.200        20
56.220        23
56.240        13
56.260        23
56.280         7
56.300        17
56.320        23
56.340        23
56.360        17
56.380        10
56.400        13
56.420        57
56.440        20
56.460        27
56.480        23
56.500        13
56.520        27
56.540        27
56.560        20
56.580        27
56.600        23
56.620        23
56.640        13
56.660        37
56.680        17
56.700        27
56.720        23
56.740        17
56.760        40
56.780        57
56.800        40
56.820        77
56.840        43
56.860        63
56.880        80
56.900        77
56.920        97
56.940       127
56.960        90
56.980       103
57.000       127
57.020       130
57.040       137
57.060       123
57.080       137
57.100       137
57.120       130
57.140        93
57.160       103
57.180       107
57.200       103
57.220       120
57.240        97
57.260        87
57.280        87
57.300       110
57.320        47
57.340        73
57.360        63
57.380       107
57.400       110
57.420       100
57.440       130
57.460       207
57.480       353
57.500       476
57.520       736
57.540       760
57.560       676
57.580       466
57.600       300
57.620       213
57.640       210
57.660       277
57.680       317
57.700       423
57.720       277
57.740       260
57.760       137
57.780       103
57.800        60
57.820        40
57.840        33
57.860        27
57.880        17
57.900        27
57.920        23
57.940        37
57.960        27
57.980        17
58.000        37
58.020        37
58.040        33
58.060        23
58.080        33
58.100        27
58.120        30
58.140        20
58.160        13
58.180        17
58.200        13
58.220         7
58.240        23
58.260        13
58.280        30
58.300        13
58.320        13
58.340        13
58.360        17
58.380        13
58.400        17
58.420        10
58.440        33
58.460        10
58.480        23
58.500        20
58.520        10
58.540        13
58.560        13
58.580        17
58.600        27
58.620        23
58.640        13
58.660        13
58.680        17
58.700        27
58.720        13
58.740        17
58.760        20
58.780         7
58.800        13
58.820        13
58.840        20
58.860        20
58.880        10
58.900        10
58.920        30
58.940         7
58.960        10
58.980         7
59.000         3
59.020        10
59.040        13
59.060        17
59.080         7
59.100        10
59.120         7
59.140         3
59.160        13
59.180        20
59.200         7
59.220         7
59.240        27
59.260        13
59.280        10
59.300        17
59.320        37
59.340        13
59.360        10
59.380         7
59.400        17
59.420        17
59.440        10
59.460        13
59.480        30
59.500        10
59.520        23
59.540        23
59.560        17
59.580        20
59.600        13
59.620        10
59.640        13
59.660        13
59.680         7
59.700        17
59.720        13
59.740         3
59.760        17
59.780        17
59.800        20
59.820        10
59.840        13
59.860        17
59.880        23
59.900        13
59.920        23
59.940        10
59.960        23
59.980        10
60.000        10
