20.000       100
20.010        87
20.020       113
20.030        47
20.040        60
20.050        73
20.060        47
20.070        80
20.080        87
20.090        33
20.100        33
20.110        87
20.120        80
20.130        73
20.140        53
20.150        47
20.160        53
20.170       113
20.180        87
20.190        53
20.200        80
20.210        47
20.220       113
20.230       100
20.240        40
20.250        53
20.260       120
20.270       140
20.280        73
20.290        60
20.300       113
20.310        53
20.320        80
20.330        73
20.340        60
20.350        73
20.360        60
20.370        67
20.380       100
20.390        93
20.400        73
20.410        80
20.420        67
20.430        87
20.440        53
20.450        73
20.460        40
20.470        67
20.480        33
20.490        87
20.500        67
20.510        47
20.520        87
20.530        67
20.540        87
20.550        53
20.560        80
20.570        73
20.580       107
20.590        67
20.600        87
20.610        80
20.620        60
20.630        87
20.640        40
20.650        67
20.660        67
20.670        80
20.680        80
20.690       100
20.700        80
20.710       120
20.720        67
20.730        73
20.740        53
20.750       100
20.760        80
20.770       127
20.780        60
20.790       107
20.800       133
20.810        53
20.820        67
20.830        47
20.840        73
20.850       113
20.860        80
20.870       107
20.880        93
20.890        60
20.900        87
20.910        93
20.920        80
20.930        67
20.940        60
20.950        73
20.960        60
20.970        33
20.980        40
20.990        67
21.000        60
21.010        93
21.020        67
21.030        80
21.040        67
21.050       113
21.060        87
21.070        53
21.080        67
21.090        60
21.100        67
21.110        80
21.120        73
21.130        87
21.140        87
21.150        93
21.160        80
21.170        47
21.180        47
21.190        73
21.200       100
21.210       107
21.220        93
21.230       100
21.240        53
21.250        40
21.260        93
21.270        60
21.280        60
21.290        73
21.300        80
21.310        47
21.320        73
21.330        67
21.340        53
21.350        67
21.360       100
21.370        80
21.380       113
21.390       107
21.400        67
21.410       107
21.420        80
21.430        87
21.440        73
21.450        87
21.460        93
21.470        60
21.480        93
21.490       127
21.500        80
21.510        80
21.520        33
21.530        60
21.540        60
21.550       113
21.560        73
21.570        67
21.580        80
21.590       147
21.600        93
21.610        73
21.620        67
21.630       100
21.640        67
21.650       133
21.660        73
21.670       107
21.680        87
21.690        87
21.700        87
21.710        80
21.720       113
21.730        53
21.740        87
21.750       100
21.760       113
21.770        80
21.780        60
21.790       140
21.800        67
21.810        87
21.820       107
21.830        67
21.840        87
21.850        93
21.860       107
21.870       133
21.880        80
21.890       120
21.900       127
21.910       113
21.920        93
21.930       120
21.940       107
21.950        73
21.960       100
21.970       127
21.980        93
21.990       133
22.000        87
22.010       147
22.020       107
22.030        60
22.040       147
22.050       133
22.060        93
22.070       153
22.080        80
22.090       100
22.100       100
22.110       133
22.120       147
22.130       120
22.140       133
22.150       153
22.160       120
22.170       127
22.180       127
22.190       133
22.200       153
22.210       160
22.220       153
22.230       153
22.240       127
22.250       147
22.260       120
22.270       140
22.280       127
22.290        67
22.300       160
22.310        93
22.320       100
22.330       167
22.340       133
22.350       113
22.360       113
22.370       147
22.380       127
22.390       133
22.400        93
22.410       180
22.420       107
22.430       127
22.440       133
22.450       113
22.460       133
22.470       160
22.480       147
22.490       100
22.500       140
22.510       160
22.520       133
22.530       120
22.540       113
22.550       133
22.560       113
22.570        93
22.580       107
22.590        73
22.600       120
22.610       127
22.620       127
22.630       120
22.640       100
22.650       140
22.660       133
22.670       167
22.680       160
22.690       133
22.700        93
22.710        80
22.720       167
22.730       180
22.740       107
22.750        53
22.760       187
22.770       100
22.780       107
22.790       100
22.800        60
22.810       113
22.820       140
22.830       100
22.840       153
22.850       167
22.860       207
22.870       160
22.880       167
22.890       167
22.900       113
22.910       133
22.920       173
22.930       107
22.940       193
22.950       160
22.960       167
22.970       180
22.980       120
22.990       173
23.000       187
23.010       160
23.020       173
23.030       187
23.040       220
23.050       280
23.060       180
23.070       307
23.080       573
23.090       600
23.100       826
23.110       846
23.120       793
23.130       840
23.140       706
23.150       660
23.160       387
23.170       180
23.180       260
23.190       180
23.200       193
23.210       180
23.220       153
23.230       167
23.240       167
23.250       167
23.260       160
23.270       180
23.280       100
23.290       140
23.300       133
23.310       160
23.320       167
23.330       133
23.340       193
23.350       133
23.360       127
23.370       167
23.380        80
23.390       120
23.400       160
23.410       120
23.420       147
23.430       140
23.440       200
23.450       107
23.460       180
23.470       140
23.480       180
23.490       180
23.500       153
23.510       153
23.520       120
23.530       200
23.540       127
23.550       113
23.560       160
23.570       147
23.580        80
23.590       127
23.600       113
23.610       173
23.620       140
23.630       173
23.640       113
23.650       187
23.660       153
23.670       127
23.680       167
23.690        93
23.700       153
23.710       147
23.720       207
23.730       220
23.740       127
23.750       173
23.760       153
23.770       167
23.780       153
23.790        80
23.800       147
23.810       247
23.820       153
23.830       127
23.840       127
23.850       113
23.860        93
23.870       127
23.880       107
23.890       133
23.900       193
23.910       160
23.920       107
23.930       107
23.940       167
23.950       133
23.960       127
23.970       227
23.980       120
23.990       140
24.000       120
24.010       133
24.020        93
24.030       133
24.040       113
24.050       127
24.060       113
24.070       133
24.080       147
24.090       180
24.100       167
24.110       147
24.120       193
24.130       153
24.140       153
24.150       147
24.160        93
24.170       147
24.180       107
24.190       140
24.200       153
24.210       147
24.220        80
24.230       120
24.240       133
24.250       107
24.260       120
24.270       147
24.280       140
24.290       153
24.300       120
24.310        87
24.320       120
24.330       113
24.340       133
24.350       180
24.360       180
24.370       187
24.380       100
24.390       147
24.400       147
24.410       133
24.420       167
24.430       120
24.440       147
24.450       207
24.460       113
24.470       167
24.480       120
24.490       113
24.500       160
24.510       120
24.520       127
24.530       120
24.540       147
24.550       140
24.560       133
24.570       180
24.580       140
24.590       167
24.600       160
24.610       153
24.620       153
24.630       133
24.640        93
24.650       187
24.660       140
24.670        93
24.680       193
24.690       167
24.700       167
24.710       193
24.720       280
24.730       280
24.740       340
24.750       320
24.760       420
24.770       347
24.780       360
24.790       407
24.800       466
24.810       333
24.820       426
24.830       393
24.840       400
24.850       506
24.860       473
24.870       440
24.880       466
24.890       446
24.900       413
24.910       420
24.920       446
24.930       440
24.940       400
24.950       446
24.960       320
24.970       413
24.980       426
24.990       393
25.000       440
25.010       433
25.020       400
25.030       340
25.040       413
25.050       473
25.060       433
25.070       340
25.080       420
25.090       440
25.100       473
25.110       440
25.120       393
25.130       506
25.140       520
25.150       446
25.160       480
25.170       486
25.180       440
25.190       473
25.200       413
25.210       526
25.220       413
25.230       540
25.240       446
25.250       433
25.260       446
25.270       313
25.280       460
25.290       613
25.300       646
25.310       533
25.320       546
25.330       566
25.340       720
25.350       826
25.360      1013
25.370      1306
25.380      1259
25.390      1646
25.400      1926
25.410      2466
25.420      2572
25.430      3252
25.440      3512
25.450      3898
25.460      4272
25.470      4258
25.480      5211
25.490      5138
25.500      5978
25.510      5824
25.520      6238
25.530      6677
25.540      7330
25.550      8810
25.560     15387
25.570     30861
25.580     53079
25.590     74417
25.600     87438
25.610     93143
25.620     92876
25.630     97468
25.640     96848
25.650     89038
25.660     73724
25.670     61415
25.680     55964
25.690     53185
25.700     49007
25.710     40704
25.720     28462
25.730     16480
25.740      8557
25.750      5411
25.760      3878
25.770      3145
25.780      2652
25.790      2119
25.800      1926
25.810      1733
25.820      1373
25.830      1279
25.840       920
25.850      1033
25.860       800
25.870       886
25.880       880
25.890       826
25.900       753
25.910       800
25.920       600
25.930       653
25.940       640
25.950       540
25.960       560
25.970       580
25.980       580
25.990       593
26.000       560
26.010       526
26.020       600
26.030       500
26.040       526
26.050       413
26.060       420
26.070       486
26.080       466
26.090       440
26.100       460
26.110       426
26.120       513
26.130       347
26.140       387
26.150       426
26.160       393
26.170       446
26.180       327
26.190       327
26.200       407
26.210       387
26.220       387
26.230       407
26.240       327
26.250       420
26.260       300
26.270       393
26.280       413
26.290       340
26.300       300
26.310       293
26.320       367
26.330       400
26.340       313
26.350       400
26.360       373
26.370       360
26.380       420
26.390       407
26.400       313
26.410       360
26.420       320
26.430       393
26.440       327
26.450       407
26.460       347
26.470       313
26.480       320
26.490       333
26.500       320
26.510       313
26.520       373
26.530       353
26.540       400
26.550       300
26.560       353
26.570       313
26.580       327
26.590       360
26.600       333
26.610       353
26.620       300
26.630       313
26.640       253
26.650       280
26.660       307
26.670       373
26.680       373
26.690       347
26.700       320
26.710       280
26.720       347
26.730       353
26.740       340
26.750       327
26.760       267
26.770       260
26.780       340
26.790       353
26.800       280
26.810       253
26.820       347
26.830       280
26.840       307
26.850       253
26.860       287
26.870       327
26.880       333
26.890       320
26.900       313
26.910       313
26.920       347
26.930       267
26.940       253
26.950       253
26.960       360
26.970       233
26.980       253
26.990       307
27.000       260
27.010       300
27.020       227
27.030       240
27.040       340
27.050       320
27.060       307
27.070       380
27.080       240
27.090       273
27.100       233
27.110       227
27.120       340
27.130       213
27.140       180
27.150       247
27.160       227
27.170       240
27.180       367
27.190       320
27.200       260
27.210       333
27.220       253
27.230       253
27.240       280
27.250       260
27.260       300
27.270       273
27.280       333
27.290       293
27.300       267
27.310       220
27.320       287
27.330       193
27.340       220
27.350       240
27.360       260
27.370       267
27.380       333
27.390       280
27.400       307
27.410       307
27.420       233
27.430       227
27.440       280
27.450       287
27.460       347
27.470       293
27.480       260
27.490       253
27.500       273
27.510       233
27.520       193
27.530       367
27.540       273
27.550       267
27.560       227
27.570       273
27.580       267
27.590       247
27.600       287
27.610       280
27.620       180
27.630       307
27.640       233
27.650       207
27.660       167
27.670       240
27.680       247
27.690       333
27.700       300
27.710       267
27.720       253
27.730       207
27.740       300
27.750       287
27.760       253
27.770       160
27.780       227
27.790       260
27.800       280
27.810       207
27.820       240
27.830       180
27.840       320
27.850       253
27.860       293
27.870       240
27.880       247
27.890       267
27.900       307
27.910       273
27.920       247
27.930       267
27.940       320
27.950       193
27.960       213
27.970       307
27.980       233
27.990       153
28.000       280
28.010       207
28.020       240
28.030       227
28.040       260
28.050       267
28.060       200
28.070       233
28.080       260
28.090       207
28.100       207
28.110       240
28.120       180
28.130       287
28.140       247
28.150       293
28.160       133
28.170       233
28.180       227
28.190       240
28.200       220
28.210       267
28.220       293
28.230       267
28.240       287
28.250       233
28.260       227
28.270       220
28.280       240
28.290       180
28.300       200
28.310       147
28.320       233
28.330       207
28.340       153
28.350       193
28.360       240
28.370       260
28.380       220
28.390       267
28.400       293
28.410       193
28.420       220
28.430       213
28.440       200
28.450       280
28.460       207
28.470       267
28.480       153
28.490       260
28.500       253
28.510       233
28.520       207
28.530       273
28.540       233
28.550       233
28.560       213
28.570       253
28.580       213
28.590       167
28.600       233
28.610       233
28.620       160
28.630       207
28.640       160
28.650       193
28.660       200
28.670       287
28.680       187
28.690       233
28.700       213
28.710       200
28.720       247
28.730       200
28.740       247
28.750       227
28.760       200
28.770       207
28.780       227
28.790       213
28.800       213
28.810       247
28.820       293
28.830       247
28.840       147
28.850       167
28.860       200
28.870       247
28.880       320
28.890       153
28.900       167
28.910       147
28.920       300
28.930       180
28.940       180
28.950       260
28.960       193
28.970       207
28.980       160
28.990       207
29.000       233
29.010       213
29.020       193
29.030       180
29.040       247
29.050       253
29.060       267
29.070       147
29.080       133
29.090       233
29.100       213
29.110       200
29.120       187
29.130       167
29.140       273
29.150       240
29.160       180
29.170       147
29.180       260
29.190       173
29.200       267
29.210       193
29.220       253
29.230       187
29.240       220
29.250       193
29.260       200
29.270       200
29.280       207
29.290       187
29.300       207
29.310       147
29.320       187
29.330       193
29.340       173
29.350       213
29.360       193
29.370       120
29.380       233
29.390       213
29.400       153
29.410       200
29.420       213
29.430       233
29.440       247
29.450       227
29.460       187
29.470       233
29.480       133
29.490       180
29.500       167
29.510       207
29.520       227
29.530       227
29.540       167
29.550       167
29.560       180
29.570       213
29.580       173
29.590       173
29.600       200
29.610       193
29.620       227
29.630       207
29.640       193
29.650       213
29.660       193
29.670       247
29.680       147
29.690       180
29.700       147
29.710       240
29.720       147
29.730       187
29.740       153
29.750       233
29.760       153
29.770       187
29.780       160
29.790       200
29.800       173
29.810       167
29.820       180
29.830       180
29.840       220
29.850       133
29.860       160
29.870       240
29.880       193
29.890       147
29.900       153
29.910       127
29.920       253
29.930       200
29.940       133
29.950       187
29.960       207
29.970       147
29.980       173
29.990       120
30.000       160
30.010       180
30.020       207
30.030       167
30.040       127
30.050       193
30.060       267
30.070       187
30.080       147
30.090       147
30.100       167
30.110       213
30.120       153
30.130       213
30.140       193
30.150       187
30.160       160
30.170       153
30.180       180
30.190       173
30.200       213
30.210       233
30.220       160
30.230       147
30.240       240
30.250       200
30.260       187
30.270       140
30.280       187
30.290       127
30.300       160
30.310       127
30.320       180
30.330       187
30.340       180
30.350       213
30.360       187
30.370       227
30.380       173
30.390       120
30.400       160
30.410        87
30.420       200
30.430       193
30.440       200
30.450       153
30.460       247
30.470       127
30.480       147
30.490       167
30.500       180
30.510       213
30.520       180
30.530       193
30.540       167
30.550       160
30.560       113
30.570       200
30.580       200
30.590       147
30.600       147
30.610       160
30.620       113
30.630       180
30.640       213
30.650       200
30.660       153
30.670       167
30.680       160
30.690       147
30.700       140
30.710       200
30.720       120
30.730       153
30.740       107
30.750       287
30.760       180
30.770        87
30.780       167
30.790       140
30.800       113
30.810       147
30.820       113
30.830       180
30.840       173
30.850       167
30.860       173
30.870       153
30.880       153
30.890       133
30.900       200
30.910       160
30.920       247
30.930       173
30.940       107
30.950       113
30.960       160
30.970       173
30.980       147
30.990       220
31.000       127
31.010       140
31.020       173
31.030       107
31.040       127
31.050       127
31.060       207
31.070       193
31.080       200
31.090       167
31.100       140
31.110       207
31.120       113
31.130       213
31.140       100
31.150       187
31.160       140
31.170       133
31.180       113
31.190       133
31.200       207
31.210       120
31.220       153
31.230       140
31.240       153
31.250       127
31.260       147
31.270        73
31.280       107
31.290       133
31.300       107
31.310       173
31.320       167
31.330       160
31.340       133
31.350       140
31.360       140
31.370       147
31.380       120
31.390       113
31.400        87
31.410       147
31.420       167
31.430       140
31.440       133
31.450       120
31.460       200
31.470       167
31.480       167
31.490       160
31.500       153
31.510       200
31.520       153
31.530       200
31.540       133
31.550       140
31.560       193
31.570       127
31.580       120
31.590       160
31.600       207
31.610       200
31.620       133
31.630       180
31.640       167
31.650       140
31.660       127
31.670       167
31.680       147
31.690       247
31.700       127
31.710       127
31.720       167
31.730       147
31.740       133
31.750       213
31.760       180
31.770       240
31.780       113
31.790       153
31.800       113
31.810       133
31.820       153
31.830       140
31.840       193
31.850       240
31.860       153
31.870       147
31.880       160
31.890       173
31.900       153
31.910       187
31.920       187
31.930       113
31.940       140
31.950       220
31.960       173
31.970       147
31.980       187
31.990       153
32.000       140
32.010       120
32.020       187
32.030       153
32.040        93
32.050       147
32.060       140
32.070       160
32.080       127
32.090       147
32.100       113
32.110       173
32.120       140
32.130       133
32.140       140
32.150       153
32.160       180
32.170       120
32.180       167
32.190       160
32.200       127
32.210       113
32.220       160
32.230       147
32.240       133
32.250       113
32.260       140
32.270       167
32.280        93
32.290       147
32.300       147
32.310       140
32.320       167
32.330        93
32.340       147
32.350       113
32.360       120
32.370       153
32.380       113
32.390       140
32.400        93
32.410       173
32.420        87
32.430       113
32.440        93
32.450        87
32.460       100
32.470       140
32.480        93
32.490       127
32.500       120
32.510        87
32.520       140
32.530       127
32.540        80
32.550       167
32.560       107
32.570        93
32.580        93
32.590       133
32.600       127
32.610       120
32.620       127
32.630       153
32.640        80
32.650        80
32.660       147
32.670       147
32.680       107
32.690       167
32.700       133
32.710        53
32.720        87
32.730       100
32.740       133
32.750       120
32.760        93
32.770        93
32.780        93
32.790        87
32.800        80
32.810       153
32.820       107
32.830        93
32.840        80
32.850       113
32.860       127
32.870        67
32.880       127
32.890        87
32.900       140
32.910        87
32.920        80
32.930       100
32.940       113
32.950       193
32.960       140
32.970       107
32.980       113
32.990       100
33.000        93
33.010       113
33.020       127
33.030       127
33.040       107
33.050       120
33.060       153
33.070       147
33.080       133
33.090       113
33.100        40
33.110       107
33.120        87
33.130        93
33.140        93
33.150        73
33.160        80
33.170        93
33.180        67
33.190        87
33.200       107
33.210       107
33.220       107
33.230       127
33.240       147
33.250       120
33.260        87
33.270        73
33.280        80
33.290       113
33.300       107
33.310        80
33.320       113
33.330        53
33.340        87
33.350       100
33.360       133
33.370        80
33.380       133
33.390       100
33.400        93
33.410        93
33.420        67
33.430       113
33.440       100
33.450       113
33.460        80
33.470        80
33.480        80
33.490        80
33.500        93
33.510       100
33.520        93
33.530        73
33.540        73
33.550       147
33.560        73
33.570       140
33.580       127
33.590        47
33.600        73
33.610        93
33.620       120
33.630       100
33.640        93
33.650        53
33.660        87
33.670        80
33.680       107
33.690        87
33.700       100
33.710       127
33.720        93
33.730        53
33.740        93
33.750        67
33.760        80
33.770       100
33.780       107
33.790        80
33.800        80
33.810        60
33.820       100
33.830        40
33.840        87
33.850        93
33.860       100
33.870        93
33.880       107
33.890       120
33.900        87
33.910       113
33.920        73
33.930       127
33.940        93
33.950       100
33.960       140
33.970        80
33.980        87
33.990        80
34.000        93
34.010        80
34.020       120
34.030       113
34.040        93
34.050       107
34.060       113
34.070        73
34.080        80
34.090        67
34.100        73
34.110        60
34.120        93
34.130        93
34.140        80
34.150       133
34.160        80
34.170       100
34.180       127
34.190        87
34.200        53
34.210        60
34.220        47
34.230        60
34.240       120
34.250        93
34.260        67
34.270        87
34.280       127
34.290       100
34.300        87
34.310        87
34.320       113
34.330        93
34.340       113
34.350        47
34.360        73
34.370        40
34.380        73
34.390       107
34.400        80
34.410        67
34.420        93
34.430        60
34.440        67
34.450        67
34.460       107
34.470        87
34.480        87
34.490        87
34.500       107
34.510        73
34.520        80
34.530        67
34.540        87
34.550        60
34.560       107
34.570        80
34.580        47
34.590        73
34.600        60
34.610        73
34.620        40
34.630       133
34.640        93
34.650       113
34.660        80
34.670        87
34.680        67
34.690       127
34.700       107
34.710       100
34.720       100
34.730        73
34.740        53
34.750        67
34.760       153
34.770        93
34.780        87
34.790        73
34.800        80
34.810        53
34.820        73
34.830        67
34.840        80
34.850        87
34.860        60
34.870        73
34.880       120
34.890        80
34.900        87
34.910        87
34.920        67
34.930        73
34.940       107
34.950        73
34.960       120
34.970        67
34.980        80
34.990       100
35.000        93
35.010        73
35.020        80
35.030        67
35.040        87
35.050        93
35.060        80
35.070        47
35.080        93
35.090        80
35.100        80
35.110        87
35.120        80
35.130        53
35.140        87
35.150        33
35.160        93
35.170        53
35.180        67
35.190        47
35.200       127
35.210        73
35.220        73
35.230       100
35.240        80
35.250        67
35.260        73
35.270        73
35.280        47
35.290        93
35.300        67
35.310        87
35.320        87
35.330        73
35.340        47
35.350        53
35.360        47
35.370        80
35.380       120
35.390       113
35.400        40
35.410       100
35.420       120
35.430       140
35.440        47
35.450        60
35.460        87
35.470        80
35.480        40
35.490        47
35.500        87
35.510        73
35.520        33
35.530        73
35.540        60
35.550        67
35.560        40
35.570        53
35.580        47
35.590        60
35.600        60
35.610        40
35.620        53
35.630        80
35.640        60
35.650       107
35.660        67
35.670        73
35.680        87
35.690        73
35.700        87
35.710        80
35.720        87
35.730        67
35.740       100
35.750       100
35.760        67
35.770        40
35.780       100
35.790        87
35.800        87
35.810       100
35.820        67
35.830        67
35.840        53
35.850        53
35.860       120
35.870        87
35.880        80
35.890        67
35.900        40
35.910        60
35.920        53
35.930        80
35.940        47
35.950        53
35.960        60
35.970        67
35.980        60
35.990       113
36.000       107
36.010        33
36.020        73
36.030        60
36.040        73
36.050        73
36.060        87
36.070        53
36.080        80
36.090        67
36.100        67
36.110        67
36.120        73
36.130        93
36.140        53
36.150       107
36.160        60
36.170        40
36.180        53
36.190        33
36.200        87
36.210        67
36.220        87
36.230        53
36.240        53
36.250        40
36.260        53
36.270       100
36.280       100
36.290        40
36.300        53
36.310        87
36.320       100
36.330        60
36.340        33
36.350        27
36.360        80
36.370        73
36.380        53
36.390        60
36.400        80
36.410        67
36.420        53
36.430        87
36.440        33
36.450       100
36.460        67
36.470        33
36.480        73
36.490        93
36.500        47
36.510        67
36.520        80
36.530        67
36.540       100
36.550        40
36.560       113
36.570        53
36.580        87
36.590        87
36.600        73
36.610       107
36.620       140
36.630        67
36.640        53
36.650        73
36.660        60
36.670        80
36.680        73
36.690        47
36.700        93
36.710        73
36.720        80
36.730        53
36.740        67
36.750        40
36.760        93
36.770        40
36.780        87
36.790        40
36.800        67
36.810        47
36.820        53
36.830        47
36.840        80
36.850        60
36.860        60
36.870        33
36.880        27
36.890        53
36.900        73
36.910        80
36.920        93
36.930        33
36.940        47
36.950        40
36.960        67
36.970        47
36.980        87
36.990        67
37.000        53
37.010        47
37.020       100
37.030        47
37.040        53
37.050        80
37.060       113
37.070        67
37.080        87
37.090        67
37.100        80
37.110        60
37.120        47
37.130        53
37.140        47
37.150        67
37.160        67
37.170        60
37.180        53
37.190        73
37.200        73
37.210        67
37.220        73
37.230        73
37.240        60
37.250        33
37.260        47
37.270        47
37.280        93
37.290        53
37.300        67
37.310        87
37.320        40
37.330        67
37.340        80
37.350       113
37.360        93
37.370        60
37.380        53
37.390        60
37.400        67
37.410        53
37.420        33
37.430        47
37.440        73
37.450        73
37.460        60
37.470        47
37.480        67
37.490        80
37.500        67
37.510        67
37.520        53
37.530        47
37.540        40
37.550        47
37.560        47
37.570        67
37.580        67
37.590        73
37.600        60
37.610        53
37.620        27
37.630        87
37.640        47
37.650        47
37.660        80
37.670        27
37.680        87
37.690        20
37.700        13
37.710        47
37.720        53
37.730        73
37.740        47
37.750        40
37.760        67
37.770        73
37.780        73
37.790        80
37.800        67
37.810        53
37.820        40
37.830        33
37.840        67
37.850        60
37.860        33
37.870        47
37.880        87
37.890        40
37.900        40
37.910        47
37.920        47
37.930        67
37.940        40
37.950        73
37.960        67
37.970        60
37.980       100
37.990        47
38.000        33
38.010        27
38.020        40
38.030        27
38.040        73
38.050        40
38.060        40
38.070        73
38.080        73
38.090        53
38.100       113
38.110        60
38.120        53
38.130        40
38.140        33
38.150        40
38.160        60
38.170        73
38.180        87
38.190        60
38.200        33
38.210        67
38.220        33
38.230        60
38.240        60
38.250        53
38.260        60
38.270        60
38.280        47
38.290        60
38.300        47
38.310        67
38.320        47
38.330        33
38.340        53
38.350        73
38.360        40
38.370        33
38.380        53
38.390        40
38.400        60
38.410        60
38.420        20
38.430        73
38.440        60
38.450        73
38.460        60
38.470        40
38.480        67
38.490        33
38.500       100
38.510        53
38.520        80
38.530        47
38.540        87
38.550       113
38.560        67
38.570        60
38.580        67
38.590        60
38.600       107
38.610        53
38.620        60
38.630        67
38.640        67
38.650        53
38.660        87
38.670        73
38.680        60
38.690        60
38.700        40
38.710       107
38.720        47
38.730        80
38.740        53
38.750        67
38.760       100
38.770       100
38.780        73
38.790        80
38.800       107
38.810       127
38.820        60
38.830        53
38.840       100
38.850        80
38.860        80
38.870        93
38.880        40
38.890        33
38.900       107
38.910       147
38.920       100
38.930       127
38.940       120
38.950        67
38.960       120
38.970       120
38.980       120
38.990       147
39.000        67
39.010       120
39.020        87
39.030        93
39.040       133
39.050       127
39.060       100
39.070       127
39.080       100
39.090       127
39.100       127
39.110       153
39.120       127
39.130       133
39.140       180
39.150       113
39.160       107
39.170        60
39.180       180
39.190        87
39.200       147
39.210       187
39.220       160
39.230       120
39.240        93
39.250       167
39.260       127
39.270       133
39.280       120
39.290       193
39.300       180
39.310       147
39.320       133
39.330        53
39.340       127
39.350        80
39.360       160
39.370       160
39.380       173
39.390       133
39.400       180
39.410        93
39.420       173
39.430       220
39.440       160
39.450       113
39.460        60
39.470       187
39.480       153
39.490       100
39.500        87
39.510       127
39.520       113
39.530       113
39.540       113
39.550       133
39.560       120
39.570        80
39.580       140
39.590       147
39.600       120
39.610        73
39.620       120
39.630       167
39.640       127
39.650        73
39.660       107
39.670        60
39.680        60
39.690       100
39.700       107
39.710        73
39.720        80
39.730        33
39.740        93
39.750       140
39.760        93
39.770        93
39.780        67
39.790        93
39.800       113
39.810        53
39.820        53
39.830        93
39.840       100
39.850        93
39.860        93
39.870        67
39.880        93
39.890        73
39.900       107
39.910        67
39.920        80
39.930        80
39.940        73
39.950        73
39.960        67
39.970        73
39.980        60
39.990        33
40.000        67
40.010        67
40.020        80
40.030        73
40.040        87
40.050        67
40.060        87
40.070        33
40.080        73
40.090        47
40.100        80
40.110        80
40.120        87
40.130        53
40.140        73
40.150        67
40.160        60
40.170        73
40.180        93
40.190        67
40.200        73
40.210        80
40.220        47
40.230        47
40.240        67
40.250        27
40.260        67
40.270       100
40.280        93
40.290        67
40.300        47
40.310        40
40.320        73
40.330        60
40.340        73
40.350        33
40.360        60
40.370        47
40.380        60
40.390        60
40.400        47
40.410        73
40.420        80
40.430        60
40.440        27
40.450        67
40.460        13
40.470       100
40.480        80
40.490        47
40.500        73
40.510        87
40.520        53
40.530        60
40.540        47
40.550        60
40.560        33
40.570        67
40.580        13
40.590        20
40.600        47
40.610        33
40.620        80
40.630        67
40.640        67
40.650        47
40.660        60
40.670        33
40.680        40
40.690        33
40.700        40
40.710        47
40.720        67
40.730        53
40.740        87
40.750        53
40.760        33
40.770        33
40.780        67
40.790        53
40.800        47
40.810        80
40.820        80
40.830        33
40.840        47
40.850        33
40.860        87
40.870        47
40.880        67
40.890        20
40.900        60
40.910        47
40.920        27
40.930        40
40.940        47
40.950        27
40.960        33
40.970        40
40.980        40
40.990        20
41.000        47
41.010        27
41.020        53
41.030        53
41.040        40
41.050        33
41.060        53
41.070        40
41.080        67
41.090        67
41.100        20
41.110        47
41.120        80
41.130        67
41.140        47
41.150        67
41.160        60
41.170        40
41.180        33
41.190        73
41.200        27
41.210        53
41.220        40
41.230        27
41.240        27
41.250        40
41.260        27
41.270        13
41.280        20
41.290        67
41.300        53
41.310        53
41.320        93
41.330        27
41.340       100
41.350        33
41.360        80
41.370        20
41.380        60
41.390        47
41.400        60
41.410        33
41.420        67
41.430        93
41.440        47
41.450        67
41.460        13
41.470        60
41.480        47
41.490        47
41.500         7
41.510        33
41.520        60
41.530        60
41.540        47
41.550        67
41.560        27
41.570        33
41.580        40
41.590        67
41.600        40
41.610        67
41.620        40
41.630        40
41.640        47
41.650        33
41.660        67
41.670        73
41.680        33
41.690        60
41.700        80
41.710        47
41.720        67
41.730        40
41.740        33
41.750        20
41.760        40
41.770        40
41.780        33
41.790        33
41.800        33
41.810        33
41.820        67
41.830        27
41.840        33
41.850        40
41.860        27
41.870        20
41.880        53
41.890        40
41.900        60
41.910        53
41.920        27
41.930        33
41.940        40
41.950        33
41.960        47
41.970        20
41.980        60
41.990        40
42.000        53
42.010        27
42.020        67
42.030        27
42.040        40
42.050        33
42.060        47
42.070        67
42.080        27
42.090        33
42.100        33
42.110        47
42.120        40
42.130        33
42.140        80
42.150        33
42.160        73
42.170        27
42.180        40
42.190        47
42.200        53
42.210        47
42.220        47
42.230        40
42.240        47
42.250        40
42.260        67
42.270        40
42.280        47
42.290        20
42.300        53
42.310        73
42.320        47
42.330        53
42.340        60
42.350        33
42.360        33
42.370        40
42.380        67
42.390        27
42.400        40
42.410        20
42.420        27
42.430        27
42.440        33
42.450        20
42.460        27
42.470        40
42.480        67
42.490        33
42.500        67
42.510        73
42.520        20
42.530        27
42.540        13
42.550        27
42.560        47
42.570        47
42.580        67
42.590        33
42.600        20
42.610        87
42.620        47
42.630        27
42.640        60
42.650        20
42.660        27
42.670        20
42.680        33
42.690        27
42.700        33
42.710        73
42.720        47
42.730        40
42.740        60
42.750        33
42.760        33
42.770        47
42.780        27
42.790         0
42.800        27
42.810        33
42.820        47
42.830        47
42.840        80
42.850        60
42.860        53
42.870        27
42.880        33
42.890        40
42.900        73
42.910        20
42.920        80
42.930        53
42.940        53
42.950        73
42.960         7
42.970        53
42.980        53
42.990        20
43.000        60
43.010        53
43.020        47
43.030        27
43.040        87
43.050        40
43.060        40
43.070        40
43.080        13
43.090        33
43.100        13
43.110        40
43.120        33
43.130        27
43.140        47
43.150        47
43.160        47
43.170        60
43.180        73
43.190        47
43.200        67
43.210        53
43.220        60
43.230        67
43.240        53
43.250        73
43.260        27
43.270        27
43.280        47
43.290        33
43.300        73
43.310        33
43.320        33
43.330        33
43.340        53
43.350        13
43.360        60
43.370        47
43.380        33
43.390        40
43.400        40
43.410        53
43.420        47
43.430        27
43.440        60
43.450        67
43.460        47
43.470        20
43.480        33
43.490        27
43.500        27
43.510        53
43.520        33
43.530        60
43.540        60
43.550        53
43.560        33
43.570        60
43.580        67
43.590        47
43.600        27
43.610        40
43.620        47
43.630        33
43.640        67
43.650        40
43.660        73
43.670        73
43.680        33
43.690        33
43.700        73
43.710        47
43.720        80
43.730        53
43.740        20
43.750        33
43.760        47
43.770        60
43.780        60
43.790        73
43.800        20
43.810        60
43.820        40
43.830        33
43.840        73
43.850        40
43.860        60
43.870        80
43.880        73
43.890        47
43.900        53
43.910        53
43.920        60
43.930        60
43.940        13
43.950        47
43.960        87
43.970        47
43.980        33
43.990        67
44.000        33
44.010        27
44.020        27
44.030        47
44.040        40
44.050        53
44.060        47
44.070        53
44.080        80
44.090        67
44.100        40
44.110        87
44.120        60
44.130        33
44.140        53
44.150        40
44.160        67
44.170        20
44.180        80
44.190        33
44.200        27
44.210        60
44.220        53
44.230        33
44.240        53
44.250        60
44.260        87
44.270        47
44.280        40
44.290        20
44.300        60
44.310        53
44.320        60
44.330        53
44.340        67
44.350        13
44.360         7
44.370        33
44.380        87
44.390        40
44.400        80
44.410        67
44.420        33
44.430        27
44.440        60
44.450        80
44.460        73
44.470        60
44.480        47
44.490        73
44.500        93
44.510        87
44.520        47
44.530        73
44.540        60
44.550        87
44.560        73
44.570        40
44.580        47
44.590        80
44.600        80
44.610        87
44.620        93
44.630       107
44.640       100
44.650        80
44.660       147
44.670        80
44.680        80
44.690       120
44.700        40
44.710        67
44.720        53
44.730        87
44.740        73
44.750       113
44.760        67
44.770       100
44.780       100
44.790        93
44.800       100
44.810        73
44.820       100
44.830        87
44.840       120
44.850       107
44.860        87
44.870       127
44.880        67
44.890        87
44.900       133
44.910       113
44.920       113
44.930       147
44.940       113
44.950       173
44.960       140
44.970       127
44.980       113
44.990       100
45.000       127
45.010       147
45.020        93
45.030        93
45.040        93
45.050       180
45.060       107
45.070        93
45.080       133
45.090       140
45.100       153
45.110       153
45.120       147
45.130       213
45.140       107
45.150       173
45.160       160
45.170       127
45.180       133
45.190       100
45.200       127
45.210       133
45.220       160
45.230       133
45.240        93
45.250       107
45.260       147
45.270       113
45.280       200
45.290       167
45.300       133
45.310       160
45.320       153
45.330       160
45.340       147
45.350       140
45.360       160
45.370       167
45.380       120
45.390       107
45.400       113
45.410        93
45.420       160
45.430       180
45.440       113
45.450       140
45.460       100
45.470       153
45.480       140
45.490       133
45.500       100
45.510       140
45.520       120
45.530       100
45.540        93
45.550        87
45.560       127
45.570        73
45.580        93
45.590       160
45.600        73
45.610        87
45.620        93
45.630       120
45.640        73
45.650       153
45.660       100
45.670        47
45.680       120
45.690       160
45.700       120
45.710       107
45.720        80
45.730        73
45.740        87
45.750       113
45.760        80
45.770       107
45.780       127
45.790       100
45.800       133
45.810       160
45.820       100
45.830       100
45.840       113
45.850       100
45.860        67
45.870       147
45.880        73
45.890       100
45.900        40
45.910        67
45.920        60
45.930        87
45.940        53
45.950        80
45.960       127
45.970        80
45.980       100
45.990        60
46.000        60
46.010        80
46.020        47
46.030        47
46.040        60
46.050        60
46.060        47
46.070       100
46.080        60
46.090        60
46.100        73
46.110       100
46.120        93
46.130        53
46.140        40
46.150        93
46.160       113
46.170        47
46.180        93
46.190        73
46.200       140
46.210        93
46.220        47
46.230        67
46.240        80
46.250        60
46.260        53
46.270        87
46.280        60
46.290       167
46.300        87
46.310        53
46.320        67
46.330        60
46.340        87
46.350        80
46.360        60
46.370        27
46.380        80
46.390        47
46.400        53
46.410        67
46.420        53
46.430        33
46.440        40
46.450        80
46.460        73
46.470        40
46.480       100
46.490        53
46.500        47
46.510        33
46.520        53
46.530        40
46.540        40
46.550        60
46.560        47
46.570        53
46.580        80
46.590       133
46.600        33
46.610        60
46.620        73
46.630        53
46.640        73
46.650        40
46.660        33
46.670        67
46.680        53
46.690        33
46.700        87
46.710        53
46.720        40
46.730        33
46.740        47
46.750        40
46.760        53
46.770        80
46.780       100
46.790        80
46.800       107
46.810       100
46.820        80
46.830        47
46.840        47
46.850       113
46.860        87
46.870        80
46.880       100
46.890       120
46.900       133
46.910        80
46.920        67
46.930        80
46.940       107
46.950        80
46.960       113
46.970        60
46.980        53
46.990        53
47.000        73
47.010        93
47.020       100
47.030        73
47.040        87
47.050        80
47.060        60
47.070        93
47.080       113
47.090       113
47.100       100
47.110       167
47.120       140
47.130       187
47.140       260
47.150       273
47.160       513
47.170       593
47.180       586
47.190       746
47.200       926
47.210      1026
47.220       853
47.230       780
47.240       706
47.250       566
47.260       407
47.270       327
47.280       247
47.290       180
47.300       180
47.310       140
47.320       100
47.330        87
47.340        80
47.350       140
47.360        60
47.370       100
47.380       100
47.390        93
47.400        87
47.410        47
47.420        47
47.430        60
47.440        67
47.450        87
47.460        47
47.470        60
47.480        80
47.490        20
47.500        87
47.510        67
47.520        47
47.530        67
47.540        93
47.550        60
47.560        60
47.570        87
47.580        73
47.590        47
47.600        47
47.610        60
47.620        33
47.630        47
47.640        80
47.650        53
47.660        60
47.670        67
47.680       100
47.690        47
47.700        53
47.710        73
47.720        67
47.730        60
47.740        60
47.750        33
47.760        40
47.770        60
47.780        13
47.790        67
47.800        27
47.810        53
47.820        40
47.830        40
47.840        60
47.850        47
47.860        47
47.870        33
47.880        33
47.890        47
47.900        73
47.910        47
47.920        33
47.930        47
47.940        60
47.950        47
47.960        40
47.970        33
47.980        60
47.990        87
48.000        53
48.010        60
48.020        87
48.030        40
48.040        40
48.050        33
48.060        53
48.070        40
48.080        33
48.090        73
48.100        27
48.110        53
48.120        27
48.130        20
48.140        27
48.150        40
48.160        60
48.170        20
48.180        33
48.190        20
48.200        60
48.210        33
48.220        33
48.230        40
48.240        33
48.250        53
48.260        33
48.270        40
48.280        53
48.290        27
48.300        33
48.310        33
48.320        47
48.330        53
48.340        47
48.350        33
48.360        33
48.370        80
48.380        60
48.390        67
48.400        33
48.410        33
48.420        47
48.430        47
48.440        60
48.450        40
48.460        47
48.470        27
48.480        33
48.490        53
48.500        40
48.510        27
48.520        47
48.530        40
48.540        60
48.550        73
48.560        27
48.570        27
48.580        67
48.590        40
48.600        47
48.610        33
48.620        53
48.630        27
48.640        33
48.650        33
48.660        60
48.670        53
48.680        53
48.690        60
48.700        40
48.710        40
48.720        27
48.730        40
48.740        13
48.750        47
48.760        53
48.770        20
48.780        47
48.790        47
48.800        20
48.810        53
48.820        47
48.830        40
48.840        60
48.850        40
48.860        40
48.870        33
48.880        67
48.890        87
48.900        40
48.910        40
48.920        27
48.930        40
48.940        53
48.950        27
48.960        40
48.970        67
48.980        20
48.990        53
49.000        13
49.010        53
49.020        13
49.030        40
49.040        40
49.050        47
49.060        40
49.070        53
49.080        53
49.090        47
49.100        40
49.110        27
49.120        20
49.130        60
49.140        40
49.150        27
49.160         7
49.170        13
49.180        40
49.190        80
49.200        20
49.210        20
49.220        53
49.230        60
49.240        33
49.250        27
49.260        13
49.270        27
49.280        53
49.290        73
49.300        40
49.310        27
49.320        40
49.330        60
49.340        73
49.350        33
49.360        13
49.370        40
49.380        47
49.390        27
49.400        20
49.410        27
49.420        67
49.430        27
49.440        33
49.450        47
49.460        60
49.470        80
49.480        40
49.490        47
49.500        13
49.510        47
49.520        20
49.530        40
49.540        47
49.550        53
49.560        53
49.570        33
49.580        20
49.590        73
49.600        40
49.610        47
49.620        47
49.630        60
49.640        60
49.650        33
49.660        40
49.670        33
49.680        60
49.690        33
49.700        27
49.710        73
49.720        47
49.730        20
49.740        47
49.750        20
49.760        87
49.770        33
49.780        40
49.790        20
49.800        33
49.810        27
49.820        13
49.830        53
49.840        60
49.850        20
49.860        40
49.870        33
49.880        27
49.890        60
49.900        53
49.910        20
49.920        33
49.930        13
49.940        73
49.950        33
49.960        40
49.970        67
49.980        47
49.990        47
50.000        67
50.010        53
50.020        27
50.030        27
50.040        40
50.050        13
50.060        33
50.070        40
50.080        20
50.090        47
50.100        67
50.110        60
50.120        47
50.130        27
50.140        27
50.150        33
50.160        53
50.170        47
50.180        53
50.190        40
50.200        67
50.210        47
50.220        53
50.230        67
50.240        40
50.250        47
50.260        27
50.270        27
50.280        33
50.290        47
50.300        47
50.310        53
50.320        60
50.330        60
50.340        33
50.350        47
50.360        20
50.370        80
50.380        47
50.390        20
50.400        47
50.410       100
50.420        47
50.430        67
50.440        60
50.450        33
50.460        60
50.470        73
50.480        40
50.490        67
50.500        27
50.510        20
50.520        80
50.530        47
50.540        53
50.550        33
50.560        73
50.570        47
50.580        80
50.590       107
50.600        33
50.610        60
50.620        87
50.630        80
50.640        93
50.650       107
50.660       160
50.670       120
50.680       140
50.690       207
50.700       207
50.710       220
50.720       233
50.730       187
50.740       320
50.750       240
50.760       213
50.770       260
50.780       273
50.790       287
50.800       220
50.810       333
50.820       233
50.830       213
50.840       220
50.850       233
50.860       280
50.870       247
50.880       240
50.890       293
50.900       320
50.910       300
50.920       320
50.930       240
50.940       220
50.950       280
50.960       287
50.970       213
50.980       233
50.990       247
51.000       207
51.010       293
51.020       320
51.030       247
51.040       313
51.050       200
51.060       233
51.070       247
51.080       300
51.090       213
51.100       273
51.110       240
51.120       247
51.130       227
51.140       267
51.150       293
51.160       173
51.170       300
51.180       213
51.190       293
51.200       220
51.210       240
51.220       240
51.230       227
51.240       273
51.250       187
51.260       320
51.270       227
51.280       247
51.290       247
51.300       347
51.310       260
51.320       233
51.330       307
51.340       307
51.350       253
51.360       273
51.370       340
51.380       267
51.390       213
51.400       313
51.410       180
51.420       227
51.430       333
51.440       287
51.450       353
51.460       273
51.470       287
51.480       353
51.490       280
51.500       313
51.510       313
51.520       253
51.530       253
51.540       280
51.550       260
51.560       247
51.570       280
51.580       200
51.590       227
51.600       247
51.610       227
51.620       280
51.630       313
51.640       267
51.650       360
51.660       273
51.670       347
51.680       313
51.690       267
51.700       327
51.710       273
51.720       353
51.730       327
51.740       333
51.750       267
51.760       320
51.770       293
51.780       353
51.790       360
51.800       333
51.810       247
51.820       313
51.830       426
51.840       340
51.850       353
51.860       367
51.870       320
51.880       360
51.890       233
51.900       353
51.910       267
51.920       307
51.930       340
51.940       320
51.950       373
51.960       320
51.970       347
51.980       440
51.990       393
52.000       466
52.010       407
52.020       420
52.030       380
52.040       420
52.050       360
52.060       426
52.070       280
52.080       480
52.090       453
52.100       473
52.110       466
52.120       460
52.130       440
52.140       400
52.150       480
52.160       533
52.170       620
52.180       560
52.190       633
52.200       566
52.210       620
52.220       573
52.230       646
52.240       680
52.250       666
52.260       860
52.270       893
52.280       926
52.290      1033
52.300      1186
52.310      1499
52.320      1719
52.330      2053
52.340      2412
52.350      2566
52.360      2872
52.370      3279
52.380      3592
52.390      4145
52.400      4492
52.410      4545
52.420      5051
52.430      5038
52.440      5278
52.450      5498
52.460      5831
52.470      6064
52.480      6704
52.490      6911
52.500      8443
52.510     10063
52.520     11962
52.530     16373
52.540     24730
52.550     41124
52.560     64081
52.570     87965
52.580    103485
52.590    115261
52.600    119246
52.610    118239
52.620    110109
52.630     92090
52.640     68099
52.650     45262
52.660     29948
52.670     23557
52.680     23004
52.690     29295
52.700     38485
52.710     49174
52.720     58930
52.730     63821
52.740     65667
52.750     64341
52.760     60156
52.770     49713
52.780     37192
52.790     24417
52.800     15554
52.810      9649
52.820      7324
52.830      5338
52.840      4352
52.850      3945
52.860      3185
52.870      2799
52.880      2519
52.890      2099
52.900      1746
52.910      1579
52.920      1653
52.930      1413
52.940      1286
52.950      1206
52.960      1093
52.970       886
52.980       840
52.990      1053
53.000       906
53.010       893
53.020       780
53.030       660
53.040       726
53.050       713
53.060       720
53.070       620
53.080       540
53.090       493
53.100       560
53.110       466
53.120       500
53.130       546
53.140       553
53.150       606
53.160       466
53.170       533
53.180       433
53.190       480
53.200       473
53.210       453
53.220       486
53.230       486
53.240       506
53.250       446
53.260       453
53.270       367
53.280       360
53.290       400
53.300       407
53.310       347
53.320       393
53.330       347
53.340       353
53.350       360
53.360       280
53.370       426
53.380       446
53.390       313
53.400       347
53.410       333
53.420       367
53.430       367
53.440       313
53.450       353
53.460       400
53.470       327
53.480       340
53.490       240
53.500       327
53.510       333
53.520       460
53.530       280
53.540       313
53.550       260
53.560       333
53.570       313
53.580       486
53.590       247
53.600       367
53.610       220
53.620       320
53.630       287
53.640       213
53.650       327
53.660       220
53.670       300
53.680       273
53.690       233
53.700       273
53.710       267
53.720       253
53.730       267
53.740       260
53.750       233
53.760       220
53.770       233
53.780       267
53.790       320
53.800       253
53.810       247
53.820       227
53.830       213
53.840       180
53.850       220
53.860       300
53.870       220
53.880       247
53.890       247
53.900       227
53.910       220
53.920       300
53.930       207
53.940       253
53.950       207
53.960       213
53.970       260
53.980       187
53.990       200
54.000       167
54.010       233
54.020       233
54.030       167
54.040       220
54.050       233
54.060       207
54.070       207
54.080       207
54.090       273
54.100       200
54.110       213
54.120       233
54.130       220
54.140       260
54.150       240
54.160       227
54.170       193
54.180       293
54.190       213
54.200       280
54.210       200
54.220       267
54.230       260
54.240       213
54.250       227
54.260       273
54.270       147
54.280       180
54.290       200
54.300       247
54.310       220
54.320       147
54.330       227
54.340       227
54.350       180
54.360       233
54.370       207
54.380       267
54.390       160
54.400       193
54.410       227
54.420       173
54.430       260
54.440       153
54.450       180
54.460       167
54.470       180
54.480       213
54.490       200
54.500       140
54.510       153
54.520       187
54.530       153
54.540       180
54.550       147
54.560       153
54.570       173
54.580       207
54.590       180
54.600       140
54.610       207
54.620       253
54.630       147
54.640       187
54.650       213
54.660       153
54.670       160
54.680       200
54.690       267
54.700       207
54.710       160
54.720       173
54.730       180
54.740       193
54.750       240
54.760       233
54.770       213
54.780       193
54.790       140
54.800       153
54.810       260
54.820       173
54.830       193
54.840       133
54.850       127
54.860       240
54.870       187
54.880       160
54.890       173
54.900       200
54.910       220
54.920        87
54.930       233
54.940       227
54.950       160
54.960       187
54.970       207
54.980       187
54.990       113
55.000       187
55.010       167
55.020       153
55.030       153
55.040       227
55.050       180
55.060       167
55.070       133
55.080       193
55.090       160
55.100       173
55.110       160
55.120       180
55.130       173
55.140       167
55.150       140
55.160       167
55.170       160
55.180       200
55.190       200
55.200       200
55.210       160
55.220       153
55.230       167
55.240       160
55.250       113
55.260       193
55.270       180
55.280       173
55.290       200
55.300       180
55.310       100
55.320       193
55.330       140
55.340       153
55.350       193
55.360       140
55.370       227
55.380       213
55.390       167
55.400       140
55.410       147
55.420       220
55.430       200
55.440       153
55.450       127
55.460       133
55.470       180
55.480       147
55.490       127
55.500       147
55.510       173
55.520       147
55.530       193
55.540       167
55.550       133
55.560       160
55.570       127
55.580       167
55.590       173
55.600       147
55.610       213
55.620       200
55.630       120
55.640       153
55.650       160
55.660       207
55.670       160
55.680       153
55.690       133
55.700       180
55.710       113
55.720       227
55.730       153
55.740       153
55.750       140
55.760       160
55.770       133
55.780       173
55.790       167
55.800       127
55.810       140
55.820       167
55.830        80
55.840       167
55.850       213
55.860       167
55.870       147
55.880       187
55.890       200
55.900       140
55.910       133
55.920       120
55.930       180
55.940       140
55.950        73
55.960       140
55.970        93
55.980       180
55.990       180
56.000       147
56.010       193
56.020       213
56.030       113
56.040       180
56.050       187
56.060       160
56.070       140
56.080       160
56.090       167
56.100       147
56.110       167
56.120       133
56.130       167
56.140       200
56.150       187
56.160       120
56.170       147
56.180       180
56.190       213
56.200       127
56.210       180
56.220       173
56.230       133
56.240       167
56.250       160
56.260       160
56.270       140
56.280       147
56.290       100
56.300       153
56.310       140
56.320       140
56.330       140
56.340       167
56.350       127
56.360       100
56.370       160
56.380       207
56.390       167
56.400       180
56.410       173
56.420       213
56.430       153
56.440       160
56.450       100
56.460       153
56.470       153
56.480       167
56.490       127
56.500       173
56.510       120
56.520       147
56.530        93
56.540       187
56.550       220
56.560       187
56.570       160
56.580       193
56.590       133
56.600       107
56.610       173
56.620       180
56.630       160
56.640       187
56.650       140
56.660       107
56.670       133
56.680       153
56.690       160
56.700       187
56.710       153
56.720       167
56.730       153
56.740       153
56.750       133
56.760       173
56.770       200
56.780       207
56.790        93
56.800       147
56.810       180
56.820       200
56.830       107
56.840       173
56.850       180
56.860       153
56.870       147
56.880       140
56.890       153
56.900       120
56.910       140
56.920       153
56.930       153
56.940       253
56.950       180
56.960        87
56.970       127
56.980       147
56.990       153
57.000       120
57.010       133
57.020       127
57.030       140
57.040       167
57.050       167
57.060       167
57.070       207
57.080        93
57.090       147
57.100       133
57.110       113
57.120       187
57.130       160
57.140       240
57.150       133
57.160       153
57.170       140
57.180       133
57.190       127
57.200       120
57.210       133
57.220       147
57.230       153
57.240       133
57.250       140
57.260        93
57.270       180
57.280       173
57.290       167
57.300       127
57.310       147
57.320       120
57.330       173
57.340       147
57.350       167
57.360       113
57.370       127
57.380       113
57.390       140
57.400       113
57.410       160
57.420       127
57.430       147
57.440       113
57.450       147
57.460       120
57.470       113
57.480       173
57.490        87
57.500       147
57.510       160
57.520       120
57.530       180
57.540       160
57.550       127
57.560       120
57.570       113
57.580       107
57.590       127
57.600       113
57.610       113
57.620       133
57.630       173
57.640       120
57.650       107
57.660       167
57.670        93
57.680       140
57.690        93
57.700       113
57.710       133
57.720       280
57.730        87
57.740       147
57.750       180
57.760       147
57.770       100
57.780        80
57.790       167
57.800       187
57.810       120
57.820        93
57.830       167
57.840        87
57.850       113
57.860        93
57.870       147
57.880       120
57.890       140
57.900        87
57.910       107
57.920       107
57.930       100
57.940       107
57.950       153
57.960        80
57.970       113
57.980        67
57.990       140
58.000       107
58.010       147
58.020       140
58.030       120
58.040       107
58.050        73
58.060       100
58.070       187
58.080       133
58.090       140
58.100       107
58.110       107
58.120       113
58.130       107
58.140       113
58.150        93
58.160       120
58.170       107
58.180        87
58.190        53
58.200        87
58.210       113
58.220        93
58.230        93
58.240       147
58.250        87
58.260       113
58.270       133
58.280        73
58.290        80
58.300       107
58.310       153
58.320       127
58.330        60
58.340       113
58.350       133
58.360       140
58.370       160
58.380       160
58.390        87
58.400        80
58.410        80
58.420        93
58.430       100
58.440       133
58.450       107
58.460       100
58.470       120
58.480        87
58.490       153
58.500       127
58.510       127
58.520       100
58.530        93
58.540       193
58.550       147
58.560       113
58.570       113
58.580        87
58.590       133
58.600       100
58.610        93
58.620        67
58.630       120
58.640        93
58.650       113
58.660       153
58.670        60
58.680       107
58.690        93
58.700        87
58.710       160
58.720        93
58.730        87
58.740       113
58.750       120
58.760       120
58.770       113
58.780       120
58.790        80
58.800        80
58.810       120
58.820       120
58.830        67
58.840        73
58.850        87
58.860        87
58.870       113
58.880        53
58.890       107
58.900        73
58.910       107
58.920        60
58.930       167
58.940       113
58.950       100
58.960       100
58.970       127
58.980        93
58.990        93
59.000       120
59.010       127
59.020       100
59.030        67
59.040        80
59.050        73
59.060       107
59.070       107
59.080        93
59.090       113
59.100       120
59.110        80
59.120        93
59.130       120
59.140       133
59.150       140
59.160       120
59.170       127
59.180       120
59.190       100
59.200       140
59.210        80
59.220        87
59.230       140
59.240       140
59.250       133
59.260       147
59.270       100
59.280       133
59.290        87
59.300        80
59.310        87
59.320        80
59.330       100
59.340       100
59.350       153
59.360       107
59.370        87
59.380       133
59.390       100
59.400        60
59.410       133
59.420        87
59.430       107
59.440       113
59.450       133
59.460       107
59.470        87
59.480       113
59.490        73
59.500       107
59.510        80
59.520        73
59.530       160
59.540       100
59.550        80
59.560       100
59.570        87
59.580        53
59.590       107
59.600        73
59.610        93
59.620       120
59.630        67
59.640        73
59.650       120
59.660       133
59.670        93
59.680        87
59.690        87
59.700       113
59.710       113
59.720       113
59.730        87
59.740        87
59.750        60
59.760        87
59.770        60
59.780        87
59.790       107
59.800        40
59.810        87
59.820        93
59.830       107
59.840       113
59.850       100
59.860        53
59.870       127
59.880        80
59.890        73
59.900       100
59.910        93
59.920       147
59.930        93
59.940       120
59.950       113
59.960       100
59.970       100
59.980        67
59.990         0
60.000         0
