20.000        47
20.020        47
20.040        67
20.060        67
20.080        53
20.100        57
20.120        57
20.140        47
20.160        43
20.180        40
20.200        37
20.220        60
20.240        40
20.260        37
20.280        30
20.300        47
20.320        57
20.340        60
20.360        53
20.380        77
20.400        43
20.420        37
20.440        53
20.460        43
20.480        57
20.500        63
20.520        37
20.540        33
20.560        47
20.580        47
20.600        43
20.620        40
20.640        43
20.660        47
20.680        27
20.700        57
20.720        73
20.740        77
20.760        43
20.780        50
20.800        53
20.820        37
20.840        53
20.860        57
20.880        30
20.900        60
20.920        50
20.940        53
20.960        80
20.980        53
21.000        47
21.020        43
21.040        40
21.060        63
21.080        27
21.100        53
21.120        60
21.140        30
21.160        23
21.180        40
21.200        47
21.220        57
21.240        40
21.260        43
21.280        30
21.300        50
21.320        50
21.340        47
21.360        50
21.380        50
21.400        73
21.420        57
21.440        57
21.460        43
21.480        40
21.500        40
21.520        43
21.540        50
21.560        37
21.580        40
21.600        77
21.620        53
21.640        30
21.660        40
21.680        43
21.700        53
21.720        33
21.740        50
21.760        50
21.780        80
21.800        60
21.820        67
21.840        50
21.860        47
21.880        43
21.900        87
21.920        53
21.940        37
21.960        83
21.980        63
22.000        47
22.020        63
22.040        30
22.060        30
22.080        50
22.100        57
22.120        73
22.140        80
22.160        90
22.180        77
22.200        90
22.220        83
22.240       103
22.260        80
22.280        93
22.300       143
22.320       117
22.340       160
22.360       170
22.380       243
22.400       170
22.420       213
22.440       190
22.460       260
22.480       200
22.500       193
22.520       193
22.540       170
22.560       127
22.580       123
22.600        60
22.620        93
22.640        70
22.660        77
22.680        57
22.700        93
22.720        43
22.740        87
22.760        47
22.780        47
22.800        53
22.820        27
22.840        33
22.860        37
22.880        73
22.900        57
22.920        63
22.940        67
22.960        57
22.980        37
23.000        67
23.020        63
23.040        57
23.060        53
23.080        67
23.100        30
23.120        67
23.140        30
23.160        53
23.180        43
23.200        40
23.220        17
23.240        50
23.260        53
23.280        37
23.300        40
23.320        33
23.340        47
23.360        57
23.380        50
23.400        30
23.420        50
23.440        63
23.460        27
23.480        60
23.500        33
23.520        40
23.540        63
23.560        57
23.580        43
23.600        33
23.620        43
23.640        53
23.660        63
23.680        53
23.700        43
23.720        60
23.740        50
23.760        30
23.780        37
23.800        30
23.820        53
23.840        30
23.860        47
23.880        30
23.900        57
23.920        43
23.940        53
23.960        43
23.980        47
24.000        37
24.020        27
24.040        63
24.060        37
24.080        40
24.100        27
24.120        57
24.140        50
24.160        50
24.180        33
24.200        50
24.220        27
24.240        33
24.260        30
24.280        80
24.300        50
24.320        37
24.340        47
24.360        37
24.380        40
24.400        33
24.420        43
24.440        30
24.460        37
24.480        43
24.500        50
24.520        30
24.540        43
24.560        53
24.580        23
24.600        27
24.620        30
24.640        33
24.660        57
24.680        43
24.700        43
24.720        27
24.740        30
24.760        40
24.780        27
24.800        40
24.820        37
24.840        60
24.860        33
24.880        50
24.900        37
24.920        43
24.940        50
24.960        37
24.980        33
25.000        27
25.020        33
25.040        37
25.060        43
25.080        43
25.100        13
25.120        47
25.140        40
25.160        43
25.180        50
25.200        23
25.220        23
25.240        70
25.260        57
25.280        47
25.300        33
25.320        50
25.340        53
25.360        63
25.380        80
25.400        33
25.420        67
25.440        90
25.460        73
25.480        53
25.500       100
25.520        77
25.540       140
25.560       177
25.580       157
25.600       160
25.620       163
25.640       160
25.660       173
25.680        80
25.700        90
25.720        43
25.740        37
25.760        40
25.780        50
25.800        40
25.820        33
25.840        30
25.860        27
25.880        40
25.900        30
25.920        33
25.940        50
25.960        37
25.980        50
26.000        23
26.020        30
26.040        33
26.060        33
26.080        53
26.100        40
26.120        50
26.140        30
26.160        30
26.180        60
26.200        53
26.220        37
26.240        43
26.260        37
26.280        37
26.300        23
26.320        50
26.340        37
26.360        60
26.380        40
26.400        20
26.420        43
26.440        43
26.460        23
26.480        43
26.500        33
26.520        40
26.540        30
26.560        30
26.580        47
26.600        47
26.620        20
26.640        23
26.660        50
26.680        53
26.700        40
26.720        30
26.740        30
26.760        50
26.780        57
26.800        33
26.820        33
26.840        30
26.860        27
26.880        53
26.900        43
26.920        30
26.940        40
26.960        33
26.980        53
27.000        30
27.020        50
27.040        63
27.060        30
27.080        13
27.100        37
27.120        23
27.140        63
27.160        13
27.180        20
27.200        43
27.220        40
27.240        17
27.260        37
27.280        47
27.300        50
27.320        43
27.340        30
27.360        27
27.380        37
27.400        50
27.420        40
27.440        27
27.460        33
27.480        37
27.500        27
27.520        30
27.540        33
27.560        17
27.580        43
27.600        27
27.620        37
27.640        50
27.660        27
27.680        40
27.700        47
27.720        40
27.740        37
27.760        33
27.780        37
27.800        20
27.820        37
27.840        37
27.860        47
27.880        33
27.900        40
27.920        37
27.940        33
27.960        40
27.980        23
28.000        27
28.020        50
28.040        27
28.060        23
28.080        27
28.100        37
28.120        33
28.140        33
28.160        23
28.180        47
28.200        30
28.220        47
28.240        27
28.260        17
28.280        53
28.300        17
28.320        33
28.340        10
28.360        13
28.380        27
28.400        50
28.420        30
28.440        23
28.460        23
28.480        57
28.500        40
28.520        30
28.540        47
28.560        40
28.580        30
28.600        30
28.620        50
28.640        40
28.660        20
28.680        40
28.700        60
28.720        47
28.740        30
28.760        27
28.780        30
28.800        50
28.820        33
28.840        43
28.860        27
28.880        33
28.900        40
28.920        30
28.940        43
28.960        23
28.980        17
29.000        53
29.020        43
29.040        30
29.060        20
29.080        37
29.100        27
29.120        17
29.140        30
29.160        37
29.180        23
29.200        23
29.220        23
29.240        43
29.260        30
29.280        47
29.300        30
29.320        43
29.340        30
29.360        33
29.380        30
29.400        37
29.420        37
29.440        37
29.460        50
29.480        27
29.500        30
29.520        33
29.540        30
29.560        50
29.580        37
29.600        20
29.620        57
29.640        33
29.660        30
29.680        40
29.700        33
29.720        57
29.740        37
29.760        33
29.780        33
29.800        50
29.820        47
29.840        13
29.860        37
29.880        37
29.900        50
29.920        30
29.940        27
29.960        33
29.980        37
30.000        20
30.020        13
30.040        13
30.060        43
30.080        43
30.100        20
30.120        27
30.140        37
30.160        43
30.180        17
30.200        50
30.220        33
30.240        30
30.260        20
30.280        33
30.300        43
30.320        13
30.340        20
30.360        17
30.380        27
30.400        27
30.420        23
30.440        27
30.460        33
30.480        17
30.500        47
30.520        47
30.540        37
30.560        40
30.580        33
30.600        23
30.620        17
30.640        17
30.660        27
30.680        43
30.700        47
30.720        27
30.740        33
30.760        17
30.780        17
30.800        20
30.820        23
30.840        37
30.860        30
30.880        20
30.900        30
30.920        40
30.940        50
30.960        50
30.980        57
31.000        37
31.020        23
31.040        40
31.060        33
31.080        37
31.100        23
31.120        50
31.140        40
31.160        40
31.180        40
31.200        23
31.220        37
31.240        40
31.260        33
31.280        70
31.300        33
31.320        63
31.340        30
31.360        53
31.380        37
31.400        37
31.420        37
31.440        23
31.460        63
31.480        53
31.500        40
31.520        80
31.540        57
31.560        77
31.580        50
31.600        67
31.620        50
31.640        83
31.660        70
31.680        77
31.700       117
31.720       113
31.740       167
31.760       153
31.780       130
31.800       227
31.820       237
31.840       297
31.860       280
31.880       320
31.900       407
31.920       397
31.940       493
31.960       510
31.980       426
32.000       566
32.020       473
32.040       560
32.060       513
32.080       417
32.100       270
32.120       257
32.140       210
32.160       257
32.180       173
32.200       147
32.220       140
32.240       123
32.260        70
32.280        80
32.300        77
32.320        63
32.340        67
32.360        40
32.380        40
32.400        57
32.420        83
32.440        50
32.460        57
32.480        50
32.500        37
32.520        43
32.540        67
32.560        53
32.580        43
32.600        43
32.620        33
32.640        17
32.660        47
32.680        43
32.700        30
32.720        43
32.740        30
32.760        50
32.780        30
32.800        60
32.820        23
32.840        27
32.860        47
32.880        20
32.900        33
32.920        37
32.940        47
32.960        40
32.980        40
33.000        40
33.020        57
33.040        47
33.060        40
33.080        17
33.100        10
33.120        43
33.140        23
33.160        40
33.180        33
33.200        40
33.220        37
33.240        23
33.260        27
33.280        37
33.300        50
33.320        40
33.340        43
33.360        27
33.380        30
33.400        37
33.420        20
33.440        53
33.460        30
33.480        50
33.500        27
33.520        30
33.540        27
33.560        20
33.580        23
33.600        13
33.620        37
33.640        37
33.660        20
33.680        47
33.700        27
33.720        43
33.740        23
33.760        13
33.780        30
33.800        13
33.820        33
33.840        47
33.860        33
33.880        10
33.900        17
33.920        27
33.940        20
33.960        20
33.980        27
34.000        47
34.020        40
34.040        40
34.060        20
34.080        33
34.100        17
34.120        37
34.140        47
34.160        23
34.180        30
34.200        43
34.220        13
34.240        37
34.260        30
34.280        40
34.300        23
34.320        47
34.340        40
34.360        17
34.380        27
34.400        13
34.420        30
34.440        23
34.460        30
34.480        30
34.500        43
34.520        20
34.540        13
34.560        33
34.580        37
34.600        33
34.620        43
34.640        27
34.660         3
34.680        20
34.700        50
34.720        30
34.740        40
34.760        40
34.780        17
34.800        33
34.820        53
34.840        60
34.860        53
34.880        47
34.900        40
34.920        33
34.940        37
34.960        60
34.980        40
35.000        83
35.020       103
35.040       130
35.060       153
35.080       190
35.100       163
35.120       210
35.140       307
35.160       360
35.180       446
35.200       383
35.220       313
35.240       213
35.260       203
35.280       213
35.300       173
35.320       150
35.340        70
35.360        57
35.380        40
35.400        73
35.420        40
35.440        37
35.460        33
35.480        50
35.500        17
35.520        43
35.540        20
35.560        23
35.580        27
35.600        37
35.620        33
35.640        23
35.660        30
35.680        13
35.700        30
35.720        13
35.740        50
35.760        20
35.780        23
35.800        23
35.820        20
35.840        27
35.860        17
35.880        30
35.900        27
35.920        23
35.940        40
35.960        27
35.980        47
36.000        37
36.020        30
36.040        23
36.060        30
36.080        30
36.100        30
36.120        27
36.140        33
36.160        33
36.180        30
36.200        13
36.220        23
36.240        50
36.260        23
36.280        47
36.300        37
36.320        37
36.340        20
36.360        27
36.380        23
36.400        23
36.420        27
36.440        20
36.460        33
36.480        17
36.500        23
36.520        23
36.540        23
36.560        40
36.580        17
36.600        50
36.620        13
36.640        27
36.660        30
36.680        20
36.700        23
36.720        47
36.740        43
36.760        17
36.780        20
36.800        23
36.820        13
36.840        33
36.860        20
36.880        43
36.900        30
36.920         7
36.940        30
36.960        43
36.980        37
37.000        23
37.020        33
37.040        33
37.060        33
37.080        40
37.100        13
37.120        43
37.140        20
37.160        33
37.180        30
37.200        50
37.220        43
37.240        23
37.260        33
37.280        30
37.300        50
37.320        27
37.340        23
37.360        20
37.380        23
37.400        37
37.420        30
37.440        13
37.460        20
37.480        23
37.500        17
37.520        17
37.540        27
37.560        27
37.580        13
37.600        17
37.620        13
37.640        27
37.660        30
37.680        30
37.700        80
37.720        20
37.740        53
37.760        53
37.780        73
37.800       107
37.820        97
37.840        87
37.860        47
37.880        37
37.900        40
37.920        60
37.940        30
37.960        40
37.980        17
38.000        27
38.020        30
38.040        13
38.060        30
38.080        30
38.100        20
38.120        23
38.140        27
38.160        20
38.180        20
38.200        10
38.220        43
38.240        13
38.260         7
38.280        27
38.300        13
38.320        27
38.340        37
38.360        40
38.380        23
38.400        23
38.420        30
38.440        13
38.460        37
38.480         3
38.500        23
38.520        23
38.540        20
38.560        23
38.580        20
38.600        23
38.620        33
38.640        20
38.660        40
38.680        20
38.700        50
38.720        27
38.740        20
38.760        30
38.780        33
38.800        30
38.820        13
38.840        17
38.860        27
38.880        17
38.900        30
38.920        30
38.940        23
38.960        23
38.980        13
39.000        37
39.020        37
39.040        37
39.060        23
39.080        40
39.100        17
39.120        27
39.140        43
39.160        27
39.180        50
39.200        33
39.220        43
39.240        63
39.260        37
39.280        77
39.300        63
39.320        53
39.340        60
39.360        83
39.380        60
39.400       107
39.420       160
39.440       167
39.460       233
39.480       233
39.500       257
39.520       283
39.540       300
39.560       263
39.580       257
39.600       257
39.620       220
39.640       220
39.660       177
39.680       183
39.700       123
39.720        83
39.740        47
39.760        80
39.780        57
39.800        57
39.820        47
39.840        47
39.860        37
39.880        53
39.900        23
39.920        50
39.940        30
39.960        20
39.980        60
40.000        37
40.020        37
40.040        17
40.060        20
40.080        40
40.100        27
40.120        27
40.140        43
40.160        17
40.180        23
40.200        23
40.220        20
40.240        27
40.260        20
40.280        10
40.300        20
40.320        17
40.340        23
40.360        23
40.380        27
40.400        20
40.420        30
40.440        17
40.460        20
40.480        20
40.500        37
40.520        30
40.540        50
40.560        10
40.580        37
40.600        27
40.620        43
40.640        23
40.660        37
40.680        13
40.700        37
40.720        23
40.740        33
40.760        23
40.780         3
40.800        23
40.820        20
40.840        23
40.860        33
40.880        27
40.900        17
40.920        23
40.940        23
40.960        27
40.980        27
41.000        30
41.020        27
41.040        33
41.060        37
41.080        37
41.100        10
41.120        47
41.140        33
41.160        23
41.180        20
41.200        17
41.220        27
41.240        17
41.260        33
41.280        17
41.300        20
41.320        27
41.340         0
41.360        27
41.380         7
41.400        20
41.420        27
41.440        20
41.460        27
41.480        30
41.500        27
41.520        17
41.540        40
41.560        33
41.580        43
41.600        17
41.620        20
41.640        40
41.660        43
41.680        77
41.700        90
41.720        80
41.740        87
41.760        90
41.780        37
41.800        43
41.820        53
41.840        30
41.860        47
41.880        33
41.900        17
41.920        13
41.940        27
41.960        33
41.980        40
42.000        27
42.020        17
42.040        23
42.060        27
42.080        17
42.100        33
42.120        27
42.140        37
42.160        43
42.180        13
42.200        13
42.220        13
42.240        23
42.260        10
42.280        13
42.300         7
42.320        10
42.340        20
42.360        20
42.380        13
42.400        17
42.420         7
42.440        13
42.460        27
42.480        37
42.500        17
42.520        13
42.540        27
42.560        23
42.580        20
42.600        27
42.620        27
42.640         7
42.660        37
42.680        13
42.700        13
42.720        23
42.740        30
42.760        23
42.780        20
42.800        23
42.820        30
42.840        23
42.860        30
42.880        17
42.900        10
42.920        13
42.940        23
42.960        10
42.980        20
43.000        13
43.020        20
43.040        20
43.060        20
43.080        27
43.100        23
43.120        20
43.140        13
43.160        40
43.180        20
43.200        30
43.220        43
43.240        30
43.260        67
43.280       140
43.300       160
43.320       203
43.340       213
43.360       250
43.380       287
43.400       247
43.420       310
43.440       247
43.460       193
43.480       170
43.500       177
43.520        97
43.540       133
43.560        90
43.580        60
43.600        47
43.620        23
43.640        30
43.660        30
43.680        10
43.700        17
43.720        27
43.740        20
43.760        17
43.780        27
43.800        20
43.820        27
43.840        10
43.860        17
43.880        30
43.900        27
43.920        20
43.940        20
43.960        37
43.980        13
44.000        37
44.020        37
44.040        30
44.060        23
44.080        33
44.100        20
44.120        30
44.140        27
44.160        13
44.180        10
44.200        20
44.220        40
44.240        13
44.260        17
44.280        33
44.300        33
44.320        23
44.340        30
44.360        17
44.380        20
44.400        20
44.420        33
44.440        13
44.460        10
44.480        17
44.500        10
44.520        43
44.540        23
44.560        20
44.580        10
44.600        37
44.620        13
44.640        23
44.660        30
44.680        20
44.700         3
44.720        27
44.740        13
44.760        30
44.780        27
44.800        23
44.820        30
44.840        17
44.860        23
44.880        50
44.900        33
44.920        30
44.940        20
44.960        33
44.980        43
45.000        43
45.020        40
45.040        17
45.060        30
45.080        20
45.100        57
45.120        20
45.140        47
45.160        30
45.180        27
45.200        50
45.220        37
45.240        50
45.260        23
45.280        37
45.300        27
45.320        33
45.340        33
45.360        47
45.380        60
45.400        67
45.420        67
45.440        53
45.460        60
45.480        93
45.500        80
45.520        87
45.540        83
45.560       113
45.580       137
45.600       137
45.620       167
45.640       130
45.660       167
45.680       180
45.700       243
45.720       260
45.740       283
45.760       307
45.780       343
45.800       273
45.820       263
45.840       360
45.860       297
45.880       313
45.900       320
45.920       387
45.940       273
45.960       280
45.980       260
46.000       203
46.020       193
46.040       167
46.060       197
46.080        93
46.100       113
46.120       107
46.140        87
46.160        77
46.180        70
46.200        63
46.220        47
46.240        40
46.260        77
46.280        33
46.300        50
46.320        33
46.340        50
46.360        50
46.380        27
46.400        33
46.420        23
46.440        23
46.460        27
46.480        43
46.500        50
46.520        50
46.540        27
46.560        50
46.580        37
46.600        53
46.620        30
46.640        23
46.660        27
46.680        57
46.700        23
46.720        37
46.740        40
46.760        30
46.780        43
46.800        30
46.820        30
46.840        20
46.860        47
46.880        27
46.900        33
46.920        20
46.940        27
46.960        30
46.980        27
47.000        20
47.020        20
47.040        23
47.060        23
47.080        20
47.100        30
47.120        33
47.140        63
47.160        20
47.180        30
47.200        10
47.220        17
47.240        20
47.260        23
47.280         3
47.300        17
47.320        30
47.340        10
47.360        17
47.380        10
47.400        13
47.420        10
47.440        13
47.460        23
47.480        13
47.500        17
47.520        13
47.540        13
47.560        17
47.580        40
47.600        27
47.620        17
47.640        23
47.660        17
47.680        13
47.700        27
47.720        20
47.740        17
47.760        47
47.780        33
47.800        33
47.820        17
47.840        37
47.860        13
47.880        10
47.900        20
47.920        30
47.940        27
47.960        33
47.980        17
48.000        10
48.020        30
48.040        17
48.060        10
48.080        13
48.100        23
48.120         7
48.140        20
48.160        23
48.180        10
48.200        20
48.220        10
48.240        30
48.260        27
48.280        30
48.300        37
48.320        20
48.340        30
48.360        17
48.380         7
48.400        20
48.420         7
48.440        30
48.460        10
48.480        13
48.500        13
48.520        10
48.540        23
48.560        30
48.580        33
48.600        30
48.620        13
48.640        23
48.660        13
48.680        17
48.700        17
48.720        30
48.740        10
48.760        17
48.780        20
48.800        10
48.820        23
48.840        10
48.860        17
48.880        20
48.900        20
48.920        20
48.940        13
48.960        23
48.980        20
49.000        27
49.020        23
49.040        13
49.060        17
49.080        10
49.100        23
49.120        30
49.140        17
49.160        23
49.180        17
49.200        20
49.220        33
49.240         3
49.260         7
49.280        30
49.300         7
49.320        23
49.340        17
49.360        17
49.380        17
49.400        27
49.420        13
49.440        10
49.460        23
49.480        10
49.500        17
49.520        17
49.540        17
49.560         7
49.580        17
49.600        27
49.620         3
49.640        23
49.660         7
49.680        13
49.700        10
49.720        20
49.740         7
49.760        37
49.780        23
49.800        23
49.820         7
49.840        13
49.860        10
49.880        20
49.900        10
49.920         7
49.940        23
49.960        23
49.980        23
50.000         3
50.020        33
50.040        27
50.060        23
50.080        13
50.100        10
50.120        20
50.140        20
50.160         3
50.180         7
50.200        27
50.220        20
50.240        40
50.260         3
50.280        23
50.300        17
50.320         3
50.340        10
50.360        23
50.380         7
50.400        17
50.420        27
50.440        10
50.460        27
50.480        20
50.500        20
50.520        17
50.540        23
50.560        17
50.580        23
50.600        10
50.620        10
50.640        10
50.660        23
50.680        13
50.700        17
50.720        13
50.740        17
50.760        27
50.780        17
50.800        23
50.820        10
50.840        13
50.860        13
50.880        17
50.900        13
50.920        20
50.940        27
50.960        23
50.980         7
51.000        23
51.020        20
51.040        17
51.060        20
51.080        13
51.100        30
51.120         7
51.140        20
51.160         7
51.180        37
51.200        10
51.220        13
51.240        10
51.260        10
51.280         7
51.300        20
51.320         7
51.340        27
51.360        17
51.380        30
51.400        17
51.420        10
51.440        10
51.460        20
51.480        13
51.500        20
51.520        17
51.540         7
51.560        17
51.580        13
51.600        20
51.620        40
51.640        37
51.660        27
51.680        17
51.700        13
51.720        33
51.740        10
51.760        30
51.780        33
51.800        13
51.820        13
51.840        13
51.860        13
51.880        17
51.900        20
51.920         7
51.940        37
51.960        13
51.980        23
52.000         3
52.020        17
52.040        20
52.060        13
52.080        17
52.100         7
52.120        17
52.140        33
52.160        13
52.180        10
52.200        13
52.220        17
52.240        10
52.260        17
52.280        20
52.300        13
52.320        17
52.340        23
52.360        10
52.380        30
52.400        40
52.420        37
52.440        23
52.460        27
52.480        37
52.500        50
52.520        30
52.540        40
52.560        57
52.580       113
52.600        97
52.620       127
52.640       133
52.660        90
52.680        30
52.700        57
52.720        27
52.740        80
52.760        73
52.780        70
52.800        63
52.820        43
52.840         7
52.860        13
52.880        27
52.900        10
52.920        20
52.940        23
52.960        30
52.980        17
53.000        23
53.020        10
53.040        17
53.060        20
53.080         7
53.100        17
53.120        23
53.140        20
53.160        13
53.180         7
53.200        23
53.220        10
53.240        13
53.260        17
53.280        17
53.300        17
53.320        10
53.340        33
53.360        27
53.380        20
53.400        20
53.420        13
53.440        23
53.460        10
53.480        20
53.500        10
53.520         7
53.540        10
53.560        17
53.580         7
53.600        17
53.620        23
53.640        10
53.660        13
53.680        17
53.700        10
53.720        17
53.740        10
53.760        20
53.780        23
53.800        17
53.820         7
53.840        13
53.860        20
53.880         7
53.900         3
53.920        13
53.940        13
53.960         7
53.980        13
54.000        17
54.020        17
54.040        10
54.060        23
54.080        20
54.100        13
54.120        10
54.140        13
54.160        13
54.180        13
54.200        20
54.220         3
54.240        10
54.260        13
54.280        13
54.300        10
54.320        23
54.340        20
54.360        17
54.380        13
54.400        10
54.420        17
54.440        13
54.460        23
54.480        10
54.500         7
54.520        20
54.540         7
54.560        23
54.580        30
54.600        33
54.620        10
54.640         3
54.660        13
54.680        20
54.700        10
54.720        27
54.740        13
54.760         7
54.780        10
54.800        30
54.820        17
54.840        17
54.860        10
54.880        13
54.900        17
54.920        10
54.940        20
54.960        17
54.980        17
55.000        23
55.020        20
55.040        10
55.060        17
55.080        20
55.100        17
55.120        23
55.140        10
55.160         3
55.180        10
55.200        13
55.220         7
55.240        10
55.260        13
55.280        10
55.300         7
55.320        17
55.340         3
55.360         7
55.380         3
55.400        20
55.420        10
55.440        13
55.460        17
55.480        13
55.500        23
55.520        13
55.540         3
55.560        13
55.580        20
55.600        17
55.620        17
55.640        13
55.660        20
55.680        13
55.700        13
55.720        20
55.740        27
55.760        20
55.780        17
55.800        17
55.820        23
55.840        30
55.860        27
55.880        17
55.900        23
55.920        17
55.940        13
55.960        20
55.980        17
56.000        17
56.020        20
56.040        37
56.060        30
56.080        20
56.100         0
56.120        13
56.140        23
56.160        13
56.180        13
56.200        23
56.220        17
56.240        27
56.260        13
56.280        20
56.300        23
56.320        13
56.340        10
56.360        13
56.380        23
56.400        10
56.420        23
56.440        17
56.460        30
56.480        13
56.500        20
56.520        23
56.540        13
56.560        23
56.580        27
56.600        10
56.620        23
56.640        17
56.660        27
56.680        20
56.700        23
56.720        33
56.740        17
56.760        27
56.780        40
56.800        47
56.820        30
56.840        40
56.860        47
56.880        57
56.900        50
56.920       100
56.940        80
56.960        90
56.980       120
57.000       103
57.020       110
57.040       107
57.060       120
57.080       120
57.100       133
57.120       127
57.140       130
57.160       160
57.180        83
57.200       137
57.220       123
57.240       103
57.260        70
57.280       103
57.300        83
57.320       103
57.340        63
57.360        73
57.380        73
57.400        73
57.420        93
57.440        97
57.460       177
57.480       147
57.500       207
57.520       340
57.540       506
57.560       546
57.580       533
57.600       407
57.620       307
57.640       163
57.660       173
57.680       197
57.700       283
57.720       293
57.740       227
57.760       207
57.780       117
57.800        53
57.820        53
57.840        40
57.860        20
57.880        33
57.900        30
57.920        13
57.940        27
57.960        23
57.980        20
58.000        20
58.020        17
58.040        27
58.060        17
58.080        17
58.100        17
58.120         7
58.140        20
58.160        17
58.180        27
58.200        20
58.220        13
58.240        20
58.260         7
58.280        20
58.300        13
58.320        10
58.340        10
58.360        13
58.380        17
58.400         3
58.420        17
58.440        13
58.460        23
58.480        23
58.500        10
58.520        30
58.540         7
58.560        13
58.580        27
58.600        17
58.620         7
58.640        13
58.660         0
58.680        17
58.700        20
58.720        10
58.740        10
58.760         7
58.780        17
58.800        20
58.820        20
58.840        10
58.860        23
58.880        10
58.900        23
58.920        23
58.940        30
58.960        10
58.980         7
59.000        10
59.020        10
59.040        10
59.060         3
59.080        17
59.100        20
59.120        23
59.140        13
59.160        30
59.180        13
59.200        27
59.220         3
59.240        23
59.260        20
59.280        13
59.300        17
59.320        13
59.340        17
59.360        20
59.380        30
59.400        13
59.420        13
59.440        13
59.460        17
59.480        27
59.500        30
59.520         0
59.540        27
59.560        17
59.580        13
59.600        10
59.620         7
59.640        13
59.660        17
59.680        23
59.700        17
59.720        10
59.740        33
59.760        17
59.780         7
59.800        17
59.820        17
59.840        20
59.860        23
59.880        30
59.900        10
59.920         7
59.940        17
59.960        10
59.980        20
60.000         7
