20.000        50
20.020        50
20.040        73
20.060        87
20.080        97
20.100        70
20.120        97
20.140       130
20.160        97
20.180       130
20.200        80
20.220        77
20.240       100
20.260        83
20.280        90
20.300        93
20.320        90
20.340        97
20.360        93
20.380       123
20.400        97
20.420       110
20.440       100
20.460        83
20.480       100
20.500        53
20.520        90
20.540        93
20.560        60
20.580       100
20.600        57
20.620        97
20.640       110
20.660        83
20.680        87
20.700        80
20.720       100
20.740        83
20.760        93
20.780       120
20.800       100
20.820        83
20.840        90
20.860        70
20.880        80
20.900       117
20.920        73
20.940        67
20.960       127
20.980        97
21.000        87
21.020        87
21.040        97
21.060        63
21.080        73
21.100       100
21.120        57
21.140        87
21.160       117
21.180       137
21.200       107
21.220        93
21.240       107
21.260        87
21.280       100
21.300        87
21.320       110
21.340       107
21.360       120
21.380        87
21.400       103
21.420        97
21.440        77
21.460        77
21.480       100
21.500        87
21.520        93
21.540        90
21.560        83
21.580        83
21.600        73
21.620        90
21.640        97
21.660       113
21.680       130
21.700       107
21.720       160
21.740       110
21.760        97
21.780       130
21.800       137
21.820       123
21.840       120
21.860       107
21.880       127
21.900       130
21.920       137
21.940       123
21.960       137
21.980       133
22.000       137
22.020       147
22.040        93
22.060       163
22.080       153
22.100       150
22.120       163
22.140       133
22.160       167
22.180       123
22.200       147
22.220       133
22.240       123
22.260       167
22.280       203
22.300       143
22.320       167
22.340       127
22.360       160
22.380       180
22.400       117
22.420       120
22.440       177
22.460       160
22.480       147
22.500       123
22.520       147
22.540       133
22.560       127
22.580       123
22.600       153
22.620       137
22.640       137
22.660       153
22.680       163
22.700       127
22.720       173
22.740       143
22.760       140
22.780       177
22.800       150
22.820       137
22.840       150
22.860       173
22.880       163
22.900       160
22.920       173
22.940       223
22.960       183
22.980       220
23.000       173
23.020       197
23.040       267
23.060       277
23.080       426
23.100       953
23.120      1299
23.140      1163
23.160       843
23.180       423
23.200       257
23.220       230
23.240       230
23.260       280
23.280       233
23.300       203
23.320       190
23.340       193
23.360       200
23.380       213
23.400       180
23.420       197
23.440       153
23.460       183
23.480       180
23.500       167
23.520       193
23.540       190
23.560       190
23.580       197
23.600       167
23.620       177
23.640       200
23.660       197
23.680       173
23.700       213
23.720       143
23.740       227
23.760       173
23.780       180
23.800       200
23.820       207
23.840       193
23.860       183
23.880       127
23.900       187
23.920       187
23.940       163
23.960       167
23.980       243
24.000       223
24.020       213
24.040       213
24.060       163
24.080       193
24.100       187
24.120       227
24.140       167
24.160       190
24.180       180
24.200       163
24.220       193
24.240       177
24.260       153
24.280       170
24.300       143
24.320       170
24.340       167
24.360       163
24.380       210
24.400       190
24.420       177
24.440       160
24.460       177
24.480       197
24.500       187
24.520       210
24.540       227
24.560       183
24.580       200
24.600       187
24.620       217
24.640       173
24.660       190
24.680       207
24.700       243
24.720       267
24.740       443
24.760       426
24.780       540
24.800       550
24.820       520
24.840       523
24.860       506
24.880       570
24.900       583
24.920       590
24.940       563
24.960       563
24.980       613
25.000       543
25.020       500
25.040       543
25.060       563
25.080       603
25.100       626
25.120       546
25.140       560
25.160       523
25.180       556
25.200       576
25.220       596
25.240       660
25.260       593
25.280       610
25.300       646
25.320       610
25.340       693
25.360       676
25.380       866
25.400       976
25.420      1153
25.440      1783
25.460      2592
25.480      3895
25.500      5248
25.520      6387
25.540      7530
25.560     10702
25.580     34066
25.600     80481
25.620    105988
25.640    111275
25.660    100223
25.680     73171
25.700     61489
25.720     47834
25.740     21448
25.760      9016
25.780      6594
25.800      5198
25.820      3875
25.840      2759
25.860      2016
25.880      1549
25.900       970
25.920       903
25.940       830
25.960       743
25.980       696
26.000       740
26.020       730
26.040       610
26.060       716
26.080       703
26.100       576
26.120       640
26.140       603
26.160       496
26.180       646
26.200       600
26.220       560
26.240       533
26.260       486
26.280       450
26.300       453
26.320       483
26.340       526
26.360       490
26.380       486
26.400       486
26.420       363
26.440       503
26.460       450
26.480       403
26.500       430
26.520       453
26.540       520
26.560       410
26.580       403
26.600       443
26.620       387
26.640       443
26.660       353
26.680       463
26.700       397
26.720       400
26.740       387
26.760       383
26.780       350
26.800       500
26.820       486
26.840       377
26.860       440
26.880       360
26.900       373
26.920       423
26.940       357
26.960       343
26.980       330
27.000       337
27.020       420
27.040       410
27.060       367
27.080       357
27.100       397
27.120       370
27.140       340
27.160       357
27.180       380
27.200       350
27.220       397
27.240       383
27.260       377
27.280       417
27.300       363
27.320       317
27.340       403
27.360       363
27.380       393
27.400       363
27.420       367
27.440       357
27.460       343
27.480       320
27.500       297
27.520       363
27.540       297
27.560       347
27.580       350
27.600       337
27.620       340
27.640       353
27.660       357
27.680       443
27.700       313
27.720       367
27.740       300
27.760       303
27.780       327
27.800       330
27.820       373
27.840       313
27.860       377
27.880       327
27.900       327
27.920       300
27.940       350
27.960       347
27.980       330
28.000       357
28.020       253
28.040       280
28.060       403
28.080       313
28.100       340
28.120       337
28.140       280
28.160       313
28.180       390
28.200       297
28.220       313
28.240       317
28.260       293
28.280       310
28.300       340
28.320       340
28.340       323
28.360       267
28.380       300
28.400       340
28.420       373
28.440       287
28.460       317
28.480       357
28.500       270
28.520       327
28.540       277
28.560       303
28.580       337
28.600       347
28.620       313
28.640       327
28.660       253
28.680       283
28.700       283
28.720       287
28.740       280
28.760       363
28.780       333
28.800       277
28.820       307
28.840       317
28.860       303
28.880       283
28.900       363
28.920       247
28.940       287
28.960       297
28.980       303
29.000       300
29.020       287
29.040       297
29.060       253
29.080       260
29.100       283
29.120       323
29.140       287
29.160       257
29.180       270
29.200       337
29.220       310
29.240       243
29.260       267
29.280       240
29.300       300
29.320       313
29.340       327
29.360       240
29.380       300
29.400       340
29.420       227
29.440       257
29.460       257
29.480       293
29.500       297
29.520       287
29.540       210
29.560       287
29.580       250
29.600       293
29.620       280
29.640       320
29.660       243
29.680       297
29.700       300
29.720       257
29.740       270
29.760       307
29.780       247
29.800       280
29.820       243
29.840       263
29.860       280
29.880       273
29.900       283
29.920       220
29.940       347
29.960       283
29.980       257
30.000       237
30.020       293
30.040       237
30.060       240
30.080       253
30.100       253
30.120       253
30.140       260
30.160       210
30.180       260
30.200       240
30.220       200
30.240       230
30.260       253
30.280       287
30.300       220
30.320       253
30.340       267
30.360       257
30.380       260
30.400       253
30.420       197
30.440       227
30.460       223
30.480       217
30.500       220
30.520       243
30.540       197
30.560       273
30.580       223
30.600       260
30.620       270
30.640       237
30.660       187
30.680       203
30.700       287
30.720       230
30.740       237
30.760       227
30.780       167
30.800       270
30.820       240
30.840       240
30.860       257
30.880       230
30.900       230
30.920       247
30.940       227
30.960       227
30.980       263
31.000       260
31.020       240
31.040       253
31.060       240
31.080       233
31.100       240
31.120       217
31.140       247
31.160       203
31.180       283
31.200       280
31.220       243
31.240       257
31.260       247
31.280       190
31.300       247
31.320       233
31.340       203
31.360       300
31.380       277
31.400       303
31.420       283
31.440       370
31.460       330
31.480       293
31.500       383
31.520       417
31.540       466
31.560       417
31.580       456
31.600       453
31.620       523
31.640       653
31.660       606
31.680       596
31.700       626
31.720       723
31.740       680
31.760       600
31.780       563
31.800       426
31.820       466
31.840       400
31.860       393
31.880       363
31.900       343
31.920       310
31.940       257
31.960       273
31.980       237
32.000       260
32.020       260
32.040       247
32.060       273
32.080       240
32.100       217
32.120       200
32.140       227
32.160       207
32.180       143
32.200       190
32.220       180
32.240       233
32.260       233
32.280       207
32.300       207
32.320       230
32.340       240
32.360       210
32.380       160
32.400       163
32.420       197
32.440       213
32.460       180
32.480       203
32.500       173
32.520       187
32.540       177
32.560       183
32.580       230
32.600       170
32.620       160
32.640       157
32.660       200
32.680       137
32.700       150
32.720       200
32.740       193
32.760       153
32.780       153
32.800       157
32.820       177
32.840       147
32.860       207
32.880       210
32.900       120
32.920       213
32.940       110
32.960       167
32.980       150
33.000       153
33.020       120
33.040       130
33.060       153
33.080       160
33.100       170
33.120       130
33.140       143
33.160       167
33.180       217
33.200       177
33.220       140
33.240       187
33.260       130
33.280       217
33.300       143
33.320       153
33.340       163
33.360       163
33.380       173
33.400       143
33.420       170
33.440       150
33.460       200
33.480       150
33.500       157
33.520       173
33.540       140
33.560       107
33.580       147
33.600       147
33.620       143
33.640       150
33.660       160
33.680       113
33.700       127
33.720       167
33.740       133
33.760       163
33.780       137
33.800       143
33.820       133
33.840       160
33.860       127
33.880       120
33.900       157
33.920       143
33.940       143
33.960       140
33.980       137
34.000       153
34.020       140
34.040       133
34.060       167
34.080       133
34.100       163
34.120       123
34.140       147
34.160       160
34.180       100
34.200       107
34.220       123
34.240       143
34.260       117
34.280       120
34.300       143
34.320       150
34.340       150
34.360        87
34.380       140
34.400       120
34.420       117
34.440       143
34.460       153
34.480       120
34.500       130
34.520       103
34.540       133
34.560       133
34.580       120
34.600       133
34.620       133
34.640       100
34.660       137
34.680       120
34.700       130
34.720       140
34.740       113
34.760        63
34.780       143
34.800        97
34.820        97
34.840       120
34.860       133
34.880       130
34.900       110
34.920       117
34.940       103
34.960       117
34.980       133
35.000        87
35.020       133
35.040       120
35.060       133
35.080       143
35.100       100
35.120       120
35.140        93
35.160       133
35.180       103
35.200       113
35.220       150
35.240       123
35.260        97
35.280        83
35.300       100
35.320        97
35.340       100
35.360       117
35.380       107
35.400       110
35.420        83
35.440        83
35.460       127
35.480        97
35.500       120
35.520        73
35.540       127
35.560       123
35.580       103
35.600        97
35.620        93
35.640       107
35.660       110
35.680        87
35.700       117
35.720       107
35.740       110
35.760       113
35.780        97
35.800       113
35.820       133
35.840        80
35.860       143
35.880       100
35.900       123
35.920       127
35.940        77
35.960       100
35.980       100
36.000        90
36.020       100
36.040        90
36.060        67
36.080        90
36.100        90
36.120        73
36.140       100
36.160        93
36.180        93
36.200       107
36.220       127
36.240        93
36.260        87
36.280       100
36.300        97
36.320        83
36.340       103
36.360        73
36.380        77
36.400        67
36.420       103
36.440        93
36.460        93
36.480        70
36.500       117
36.520       107
36.540       100
36.560        83
36.580       130
36.600        73
36.620        90
36.640        87
36.660        90
36.680        83
36.700        93
36.720        77
36.740       107
36.760        50
36.780       107
36.800        73
36.820        93
36.840        87
36.860        80
36.880       100
36.900        63
36.920       107
36.940        47
36.960        77
36.980        87
37.000        67
37.020        77
37.040        80
37.060        83
37.080        80
37.100        57
37.120        90
37.140        97
37.160       107
37.180        73
37.200        70
37.220        80
37.240        80
37.260        63
37.280       100
37.300        83
37.320        67
37.340        87
37.360        53
37.380        80
37.400        67
37.420        83
37.440        33
37.460        67
37.480        63
37.500        87
37.520        87
37.540        57
37.560        87
37.580        93
37.600        97
37.620        73
37.640        43
37.660        77
37.680        77
37.700        90
37.720        60
37.740        93
37.760        70
37.780        67
37.800        83
37.820        87
37.840        63
37.860        87
37.880        73
37.900        80
37.920        73
37.940        37
37.960        90
37.980        53
38.000        53
38.020        73
38.040        73
38.060        63
38.080        70
38.100        77
38.120        63
38.140        93
38.160        43
38.180        90
38.200        50
38.220        93
38.240        43
38.260        60
38.280        80
38.300        90
38.320        83
38.340        67
38.360        93
38.380        67
38.400        70
38.420        97
38.440        63
38.460       103
38.480        77
38.500        73
38.520        27
38.540        57
38.560        83
38.580        63
38.600        67
38.620        57
38.640        60
38.660        80
38.680        63
38.700        70
38.720        70
38.740        67
38.760        70
38.780        43
38.800        90
38.820        87
38.840        60
38.860        90
38.880        87
38.900        60
38.920        93
38.940       113
38.960        97
38.980       120
39.000       133
39.020       123
39.040       190
39.060       200
39.080       200
39.100       213
39.120       267
39.140       337
39.160       390
39.180       436
39.200       513
39.220       453
39.240       453
39.260       340
39.280       387
39.300       327
39.320       287
39.340       213
39.360       250
39.380       193
39.400       143
39.420       120
39.440       133
39.460       130
39.480        90
39.500       110
39.520       107
39.540        87
39.560        77
39.580        83
39.600        73
39.620        67
39.640       127
39.660        83
39.680        70
39.700        53
39.720        70
39.740        73
39.760        53
39.780        87
39.800        77
39.820        60
39.840        87
39.860        43
39.880        57
39.900        47
39.920        87
39.940        97
39.960        83
39.980        47
40.000        73
40.020        70
40.040        73
40.060        80
40.080        60
40.100        70
40.120        53
40.140        57
40.160        60
40.180        67
40.200        77
40.220        70
40.240        43
40.260        57
40.280        50
40.300        57
40.320        63
40.340        43
40.360        40
40.380        60
40.400        53
40.420        63
40.440        60
40.460        63
40.480        67
40.500        50
40.520        53
40.540        50
40.560        70
40.580        60
40.600        40
40.620        40
40.640        57
40.660        40
40.680        47
40.700        57
40.720        50
40.740        37
40.760        47
40.780        67
40.800        40
40.820        33
40.840        47
40.860        50
40.880        30
40.900        60
40.920        70
40.940        57
40.960        43
40.980        77
41.000        50
41.020        53
41.040        40
41.060        67
41.080        63
41.100        40
41.120        53
41.140        47
41.160        53
41.180        37
41.200        27
41.220        57
41.240        23
41.260        53
41.280        53
41.300        50
41.320        43
41.340        43
41.360        60
41.380        53
41.400        57
41.420        37
41.440        30
41.460        33
41.480        57
41.500        40
41.520        47
41.540        50
41.560        27
41.580        33
41.600        57
41.620        47
41.640        63
41.660        60
41.680        30
41.700        53
41.720        43
41.740        40
41.760        63
41.780        27
41.800        37
41.820        33
41.840        23
41.860        57
41.880        43
41.900        57
41.920        43
41.940        47
41.960        30
41.980        53
42.000        43
42.020        43
42.040        20
42.060        43
42.080        33
42.100        53
42.120        70
42.140        27
42.160        63
42.180        47
42.200        33
42.220        53
42.240        53
42.260        47
42.280        67
42.300        47
42.320        43
42.340        50
42.360        33
42.380        27
42.400        40
42.420        73
42.440        33
42.460        37
42.480        27
42.500        43
42.520        27
42.540        33
42.560        30
42.580        50
42.600        33
42.620        43
42.640        37
42.660        50
42.680        37
42.700        27
42.720        13
42.740        37
42.760        47
42.780        23
42.800        43
42.820        33
42.840        43
42.860        53
42.880        30
42.900        40
42.920        27
42.940        27
42.960        17
42.980        47
43.000        30
43.020        53
43.040        47
43.060        43
43.080        37
43.100        50
43.120        30
43.140        40
43.160        37
43.180        40
43.200        43
43.220        53
43.240        43
43.260        20
43.280        43
43.300        33
43.320        40
43.340        37
43.360        20
43.380        23
43.400        43
43.420        23
43.440        43
43.460        10
43.480        30
43.500        33
43.520        43
43.540        27
43.560        33
43.580        37
43.600        33
43.620        70
43.640        47
43.660        37
43.680        20
43.700        30
43.720        40
43.740        37
43.760        40
43.780        43
43.800        27
43.820        37
43.840        23
43.860        20
43.880        53
43.900        37
43.920        23
43.940        20
43.960        27
43.980        20
44.000        30
44.020        50
44.040        33
44.060        40
44.080        47
44.100        40
44.120        57
44.140        17
44.160        23
44.180        53
44.200        47
44.220        40
44.240        43
44.260        37
44.280        47
44.300        33
44.320        30
44.340        47
44.360        60
44.380        57
44.400        50
44.420        20
44.440        37
44.460        23
44.480        27
44.500        47
44.520        33
44.540        30
44.560        43
44.580        33
44.600        77
44.620        17
44.640        23
44.660        40
44.680        30
44.700        33
44.720        37
44.740        47
44.760        40
44.780        40
44.800        50
44.820        47
44.840        13
44.860        40
44.880        30
44.900        30
44.920        63
44.940        43
44.960        40
44.980        27
45.000        33
45.020        60
45.040        30
45.060        37
45.080        30
45.100        30
45.120        50
45.140        47
45.160        60
45.180        33
45.200        30
45.220        37
45.240        43
45.260        53
45.280        63
45.300        50
45.320        30
45.340        53
45.360        57
45.380        60
45.400        37
45.420        73
45.440        57
45.460        67
45.480        77
45.500        37
45.520        47
45.540        63
45.560        67
45.580        50
45.600        37
45.620        77
45.640        50
45.660        90
45.680        60
45.700        70
45.720        43
45.740        37
45.760        27
45.780        73
45.800        43
45.820        47
45.840        23
45.860        23
45.880        50
45.900        40
45.920        37
45.940        10
45.960        33
45.980        27
46.000        40
46.020        37
46.040        33
46.060        27
46.080        37
46.100        50
46.120        37
46.140        20
46.160        13
46.180        27
46.200        20
46.220        33
46.240        23
46.260        47
46.280        37
46.300        37
46.320        30
46.340        33
46.360        23
46.380        33
46.400        50
46.420        67
46.440        33
46.460        50
46.480        40
46.500        60
46.520        33
46.540        47
46.560        20
46.580        47
46.600        30
46.620        50
46.640        50
46.660        43
46.680        47
46.700        50
46.720        40
46.740        37
46.760        43
46.780        53
46.800        73
46.820        93
46.840        87
46.860        93
46.880        83
46.900        43
46.920        73
46.940        57
46.960        70
46.980        73
47.000        80
47.020        97
47.040       117
47.060       120
47.080        87
47.100       143
47.120       157
47.140       207
47.160       407
47.180       770
47.200      1076
47.220      1326
47.240      1126
47.260       816
47.280       463
47.300       220
47.320       140
47.340       140
47.360       103
47.380       107
47.400        80
47.420       113
47.440        70
47.460        53
47.480        63
47.500        27
47.520        53
47.540        70
47.560        63
47.580        43
47.600        57
47.620        83
47.640        50
47.660        53
47.680        40
47.700        73
47.720        43
47.740        50
47.760        57
47.780        73
47.800        43
47.820        43
47.840        43
47.860        30
47.880        43
47.900        53
47.920        33
47.940        67
47.960        70
47.980        53
48.000        47
48.020        63
48.040        33
48.060        30
48.080        30
48.100        30
48.120        33
48.140        27
48.160        47
48.180        33
48.200        40
48.220        30
48.240        43
48.260        40
48.280        43
48.300        53
48.320        33
48.340        33
48.360        63
48.380        37
48.400        33
48.420        37
48.440        27
48.460        33
48.480        20
48.500        20
48.520        40
48.540        23
48.560        23
48.580        33
48.600        23
48.620         7
48.640        33
48.660        47
48.680        43
48.700        27
48.720        33
48.740        20
48.760        60
48.780        27
48.800        37
48.820        37
48.840        47
48.860        47
48.880        37
48.900        33
48.920        27
48.940        27
48.960        53
48.980        27
49.000        43
49.020        47
49.040        37
49.060        40
49.080        30
49.100        40
49.120        20
49.140        63
49.160        37
49.180        40
49.200        40
49.220        40
49.240        53
49.260        27
49.280        30
49.300        37
49.320        33
49.340        37
49.360        43
49.380        20
49.400        20
49.420        37
49.440        13
49.460        30
49.480        30
49.500        50
49.520        27
49.540        27
49.560        33
49.580        40
49.600        40
49.620        27
49.640        27
49.660        50
49.680        33
49.700        43
49.720        57
49.740        30
49.760        27
49.780        27
49.800        37
49.820        43
49.840        27
49.860        27
49.880        50
49.900        37
49.920        57
49.940        27
49.960        23
49.980        33
50.000        27
50.020        23
50.040        37
50.060        30
50.080        40
50.100        47
50.120        27
50.140        53
50.160        40
50.180        30
50.200        43
50.220        40
50.240        27
50.260        37
50.280        50
50.300        33
50.320        70
50.340        37
50.360        33
50.380        37
50.400        40
50.420        30
50.440        63
50.460        43
50.480        40
50.500        47
50.520        17
50.540        33
50.560        53
50.580        57
50.600        60
50.620        67
50.640        57
50.660       120
50.680       140
50.700       213
50.720       300
50.740       253
50.760       267
50.780       337
50.800       273
50.820       307
50.840       397
50.860       300
50.880       363
50.900       367
50.920       373
50.940       313
50.960       350
50.980       293
51.000       310
51.020       293
51.040       323
51.060       317
51.080       387
51.100       270
51.120       310
51.140       330
51.160       290
51.180       413
51.200       343
51.220       350
51.240       347
51.260       307
51.280       283
51.300       323
51.320       307
51.340       333
51.360       383
51.380       340
51.400       337
51.420       347
51.440       357
51.460       297
51.480       310
51.500       297
51.520       357
51.540       320
51.560       360
51.580       417
51.600       317
51.620       363
51.640       343
51.660       403
51.680       337
51.700       380
51.720       353
51.740       373
51.760       400
51.780       450
51.800       373
51.820       393
51.840       403
51.860       400
51.880       373
51.900       420
51.920       463
51.940       370
51.960       446
51.980       460
52.000       367
52.020       456
52.040       483
52.060       520
52.080       480
52.100       556
52.120       556
52.140       546
52.160       633
52.180       660
52.200       683
52.220       803
52.240       830
52.260       986
52.280      1003
52.300      1423
52.320      1583
52.340      1929
52.360      2352
52.380      2732
52.400      3099
52.420      3882
52.440      4935
52.460      6461
52.480      7890
52.500      9563
52.520     12442
52.540     20042
52.560     46032
52.580     98357
52.600    137555
52.620    146088
52.640    123367
52.660     70488
52.680     36525
52.700     36482
52.720     60409
52.740     81068
52.760     85366
52.780     68416
52.800     38191
52.820     16897
52.840      9243
52.860      6954
52.880      5671
52.900      4635
52.920      3782
52.940      2452
52.960      1926
52.980      1399
53.000      1176
53.020       986
53.040       953
53.060       896
53.080       823
53.100       713
53.120       710
53.140       833
53.160       660
53.180       646
53.200       586
53.220       580
53.240       550
53.260       553
53.280       516
53.300       483
53.320       403
53.340       526
53.360       476
53.380       506
53.400       476
53.420       466
53.440       450
53.460       367
53.480       463
53.500       363
53.520       456
53.540       357
53.560       357
53.580       363
53.600       320
53.620       377
53.640       317
53.660       387
53.680       310
53.700       327
53.720       337
53.740       350
53.760       343
53.780       407
53.800       337
53.820       273
53.840       300
53.860       343
53.880       307
53.900       323
53.920       277
53.940       307
53.960       320
53.980       307
54.000       247
54.020       213
54.040       280
54.060       247
54.080       270
54.100       293
54.120       227
54.140       250
54.160       283
54.180       233
54.200       257
54.220       247
54.240       280
54.260       237
54.280       223
54.300       270
54.320       240
54.340       250
54.360       243
54.380       250
54.400       260
54.420       233
54.440       203
54.460       227
54.480       240
54.500       213
54.520       237
54.540       257
54.560       233
54.580       220
54.600       220
54.620       257
54.640       183
54.660       223
54.680       240
54.700       230
54.720       220
54.740       177
54.760       193
54.780       233
54.800       183
54.820       200
54.840       167
54.860       177
54.880       210
54.900       207
54.920       263
54.940       197
54.960       220
54.980       237
55.000       160
55.020       200
55.040       237
55.060       200
55.080       213
55.100       163
55.120       177
55.140       210
55.160       207
55.180       177
55.200       220
55.220       180
55.240       200
55.260       200
55.280       173
55.300       173
55.320       200
55.340       190
55.360       173
55.380       173
55.400       203
55.420       193
55.440       220
55.460       210
55.480       157
55.500       147
55.520       213
55.540       190
55.560       187
55.580       203
55.600       203
55.620       163
55.640       180
55.660       160
55.680       187
55.700       190
55.720       127
55.740       190
55.760       153
55.780       167
55.800       157
55.820       177
55.840       213
55.860       163
55.880       170
55.900       203
55.920       183
55.940       160
55.960       217
55.980       170
56.000       180
56.020       170
56.040       180
56.060       137
56.080       173
56.100       217
56.120       177
56.140       153
56.160       167
56.180       167
56.200       153
56.220       177
56.240       170
56.260       163
56.280       260
56.300       170
56.320       143
56.340       140
56.360       177
56.380       190
56.400       223
56.420       197
56.440       220
56.460       250
56.480       187
56.500       253
56.520       247
56.540       237
56.560       197
56.580       247
56.600       260
56.620       247
56.640       280
56.660       277
56.680       267
56.700       250
56.720       320
56.740       217
56.760       250
56.780       250
56.800       217
56.820       203
56.840       227
56.860       183
56.880       213
56.900       200
56.920       143
56.940       177
56.960       170
56.980       213
57.000       177
57.020       193
57.040       183
57.060       153
57.080       123
57.100       157
57.120       130
57.140       143
57.160       127
57.180       180
57.200       130
57.220       157
57.240       137
57.260       170
57.280       170
57.300       133
57.320       177
57.340       120
57.360       143
57.380       147
57.400       143
57.420       143
57.440       143
57.460       140
57.480       140
57.500       147
57.520       163
57.540       160
57.560       133
57.580       140
57.600       127
57.620       133
57.640       170
57.660       123
57.680       117
57.700       173
57.720       137
57.740       117
57.760       107
57.780       140
57.800        93
57.820       143
57.840       133
57.860       167
57.880       133
57.900       110
57.920       137
57.940        77
57.960        83
57.980       153
58.000       140
58.020       160
58.040       117
58.060       160
58.080       117
58.100       157
58.120       130
58.140       110
58.160       137
58.180       100
58.200       110
58.220       120
58.240       123
58.260       127
58.280       133
58.300       123
58.320       120
58.340       123
58.360       123
58.380        83
58.400       117
58.420       153
58.440       137
58.460       117
58.480        90
58.500       157
58.520       133
58.540       110
58.560       133
58.580       113
58.600       103
58.620       103
58.640       123
58.660       113
58.680       140
58.700       120
58.720       107
58.740       127
58.760       103
58.780       143
58.800       103
58.820       113
58.840       143
58.860       113
58.880       113
58.900       117
58.920        93
58.940       123
58.960       150
58.980       103
59.000        80
59.020       117
59.040       110
59.060       143
59.080       117
59.100        90
59.120        90
59.140        87
59.160       110
59.180       103
59.200        90
59.220        80
59.240       117
59.260       110
59.280       107
59.300        93
59.320       117
59.340        73
59.360        97
59.380       103
59.400        77
59.420        90
59.440        73
59.460       103
59.480       107
59.500        87
59.520       100
59.540        97
59.560       113
59.580       100
59.600        90
59.620       123
59.640       107
59.660        90
59.680       143
59.700        93
59.720        90
59.740       120
59.760       140
59.780       113
59.800       113
59.820       103
59.840       123
59.860       107
59.880        87
59.900       100
59.920        80
59.940       123
59.960        90
59.980        77
60.000        87
