20.000        37
20.020        37
20.040        50
20.060        63
20.080        33
20.100        43
20.120        63
20.140        60
20.160        60
20.180        43
20.200        40
20.220        43
20.240        57
20.260        40
20.280        33
20.300        53
20.320        27
20.340        47
20.360        33
20.380        27
20.400        43
20.420        47
20.440        37
20.460        50
20.480        50
20.500        53
20.520        53
20.540        43
20.560        53
20.580        53
20.600        67
20.620        33
20.640        67
20.660        50
20.680        37
20.700        57
20.720        30
20.740        27
20.760        57
20.780        47
20.800        50
20.820        50
20.840        33
20.860        30
20.880        30
20.900        37
20.920        37
20.940        53
20.960        50
20.980        33
21.000        47
21.020        37
21.040        40
21.060        37
21.080        60
21.100        53
21.120        60
21.140        30
21.160        60
21.180        43
21.200        47
21.220        57
21.240        43
21.260        57
21.280        27
21.300        30
21.320        63
21.340        33
21.360        47
21.380        73
21.400        57
21.420        37
21.440        40
21.460        50
21.480        53
21.500        27
21.520        30
21.540        40
21.560        43
21.580        63
21.600        47
21.620        57
21.640        43
21.660        60
21.680        40
21.700        67
21.720        43
21.740        63
21.760        73
21.780        43
21.800        43
21.820        60
21.840        73
21.860        50
21.880        70
21.900        37
21.920        57
21.940        50
21.960        63
21.980        80
22.000        83
22.020        80
22.040        73
22.060        73
22.080        57
22.100        87
22.120       113
22.140        97
22.160        97
22.180        87
22.200       107
22.220        73
22.240       103
22.260       123
22.280       117
22.300        77
22.320       107
22.340        87
22.360        63
22.380        80
22.400        70
22.420        60
22.440        57
22.460        63
22.480        47
22.500        53
22.520        57
22.540        57
22.560        43
22.580        67
22.600        87
22.620        47
22.640        53
22.660        57
22.680        40
22.700        57
22.720        33
22.740        27
22.760        53
22.780        27
22.800        63
22.820        67
22.840        53
22.860        63
22.880        57
22.900        53
22.920        63
22.940        67
22.960        90
22.980        43
23.000        47
23.020        43
23.040        43
23.060        57
23.080        37
23.100        60
23.120        47
23.140        37
23.160        63
23.180        63
23.200        40
23.220        30
23.240        40
23.260        50
23.280        43
23.300        47
23.320        33
23.340        50
23.360        47
23.380        47
23.400        43
23.420        57
23.440        43
23.460        57
23.480        40
23.500        53
23.520        67
23.540        57
23.560        63
23.580        60
23.600        53
23.620        43
23.640        47
23.660        53
23.680        37
23.700        43
23.720        33
23.740        50
23.760        50
23.780        33
23.800        53
23.820        50
23.840        23
23.860        33
23.880        30
23.900        50
23.920        47
23.940        70
23.960        23
23.980        47
24.000        50
24.020        67
24.040        47
24.060        60
24.080        47
24.100        40
24.120        30
24.140        43
24.160        43
24.180        50
24.200        30
24.220        57
24.240        37
24.260        63
24.280        50
24.300        27
24.320        53
24.340        37
24.360        43
24.380        53
24.400        43
24.420        47
24.440        30
24.460        27
24.480        30
24.500        57
24.520        47
24.540        50
24.560        33
24.580        47
24.600        57
24.620        33
24.640        70
24.660        37
24.680        53
24.700        50
24.720        37
24.740        47
24.760        53
24.780        57
24.800        70
24.820        70
24.840        63
24.860        80
24.880        67
24.900        93
24.920        40
24.940        50
24.960        53
24.980        47
25.000        57
25.020        47
25.040        67
25.060        37
25.080        70
25.100        83
25.120        50
25.140        53
25.160        57
25.180        90
25.200        67
25.220        90
25.240        93
25.260       100
25.280       177
25.300       273
25.320       490
25.340       740
25.360      1060
25.380      1443
25.400      1906
25.420      2063
25.440      2436
25.460      2642
25.480      2809
25.500      2909
25.520      2542
25.540      2502
25.560      2056
25.580      1669
25.600      1313
25.620      1409
25.640      1399
25.660       593
25.680       383
25.700       530
25.720       213
25.740       103
25.760        90
25.780        90
25.800        57
25.820        90
25.840        87
25.860        83
25.880        87
25.900        83
25.920        87
25.940        53
25.960        60
25.980        53
26.000        97
26.020        60
26.040        47
26.060        60
26.080        53
26.100        83
26.120        57
26.140        60
26.160        73
26.180        47
26.200        57
26.220        37
26.240        63
26.260        50
26.280        57
26.300        77
26.320        57
26.340        53
26.360        50
26.380        47
26.400        63
26.420        43
26.440        43
26.460        83
26.480        53
26.500        40
26.520        47
26.540        43
26.560        40
26.580        63
26.600        37
26.620        53
26.640        17
26.660        47
26.680        47
26.700        50
26.720        43
26.740        40
26.760        53
26.780        60
26.800        60
26.820        43
26.840        47
26.860        40
26.880        57
26.900        50
26.920        43
26.940        33
26.960        33
26.980        67
27.000        63
27.020        47
27.040        37
27.060        40
27.080        43
27.100        50
27.120        43
27.140        73
27.160        33
27.180        37
27.200        37
27.220        60
27.240        30
27.260        43
27.280        47
27.300        53
27.320        33
27.340        43
27.360        53
27.380        53
27.400        57
27.420        63
27.440        43
27.460        57
27.480        53
27.500        60
27.520        40
27.540        47
27.560        37
27.580        47
27.600        53
27.620        60
27.640        43
27.660        37
27.680        47
27.700        47
27.720        70
27.740        60
27.760        47
27.780        63
27.800        67
27.820        23
27.840        57
27.860        53
27.880        30
27.900        57
27.920        50
27.940        43
27.960        57
27.980        53
28.000        40
28.020        43
28.040        20
28.060        53
28.080        57
28.100        47
28.120        33
28.140        27
28.160        47
28.180        37
28.200        63
28.220        27
28.240        60
28.260        33
28.280        50
28.300        50
28.320        33
28.340        50
28.360        70
28.380        30
28.400        33
28.420        50
28.440        37
28.460        50
28.480        37
28.500        27
28.520        50
28.540        67
28.560        57
28.580        37
28.600        57
28.620        80
28.640        30
28.660        53
28.680        43
28.700        60
28.720        40
28.740        87
28.760        40
28.780        20
28.800        60
28.820        53
28.840        40
28.860        47
28.880        40
28.900        60
28.920        57
28.940        33
28.960        57
28.980        47
29.000        63
29.020        70
29.040        37
29.060        17
29.080        27
29.100        70
29.120        57
29.140        53
29.160        50
29.180        57
29.200        70
29.220        37
29.240        30
29.260        47
29.280        50
29.300        43
29.320        27
29.340        60
29.360        47
29.380        47
29.400        33
29.420        33
29.440        50
29.460        30
29.480        43
29.500        27
29.520        57
29.540        37
29.560        27
29.580        57
29.600        20
29.620        40
29.640        50
29.660        43
29.680        20
29.700        30
29.720        50
29.740        47
29.760        60
29.780        33
29.800        43
29.820        30
29.840        60
29.860        53
29.880        40
29.900        37
29.920        40
29.940        23
29.960        40
29.980        30
30.000        53
30.020        23
30.040        30
30.060        47
30.080        43
30.100        23
30.120        60
30.140        33
30.160        43
30.180        47
30.200        27
30.220        23
30.240        20
30.260        60
30.280        47
30.300        30
30.320        43
30.340        37
30.360        57
30.380        67
30.400        23
30.420        30
30.440        33
30.460        37
30.480        37
30.500        57
30.520        23
30.540        30
30.560        37
30.580        17
30.600        53
30.620        47
30.640        63
30.660        37
30.680        67
30.700        53
30.720        53
30.740        27
30.760        53
30.780        53
30.800        43
30.820        53
30.840        60
30.860        37
30.880        23
30.900        40
30.920        53
30.940        30
30.960        40
30.980        50
31.000        37
31.020        63
31.040        60
31.060        53
31.080        40
31.100        50
31.120        40
31.140        47
31.160        57
31.180        57
31.200        73
31.220        77
31.240        63
31.260       107
31.280        77
31.300        63
31.320       113
31.340       103
31.360        97
31.380       113
31.400       123
31.420       127
31.440       123
31.460       150
31.480       190
31.500       257
31.520       237
31.540       307
31.560       273
31.580       340
31.600       363
31.620       433
31.640       397
31.660       430
31.680       446
31.700       403
31.720       460
31.740       337
31.760       360
31.780       313
31.800       283
31.820       270
31.840       260
31.860       227
31.880       190
31.900       183
31.920       147
31.940       120
31.960       103
31.980        83
32.000       123
32.020       120
32.040       110
32.060        80
32.080       113
32.100        63
32.120        80
32.140       103
32.160        77
32.180        70
32.200       107
32.220        77
32.240        67
32.260        40
32.280        57
32.300        70
32.320        63
32.340        37
32.360        53
32.380        63
32.400        63
32.420        67
32.440        57
32.460        50
32.480        63
32.500        60
32.520        47
32.540        23
32.560        43
32.580        60
32.600        40
32.620        57
32.640        37
32.660        73
32.680        43
32.700        37
32.720        63
32.740        17
32.760        33
32.780        63
32.800        37
32.820        30
32.840        40
32.860        50
32.880        43
32.900        43
32.920        37
32.940        20
32.960        37
32.980        37
33.000        43
33.020        27
33.040        57
33.060        43
33.080        50
33.100        60
33.120        17
33.140        17
33.160        33
33.180        60
33.200        33
33.220        20
33.240        57
33.260        23
33.280        23
33.300        53
33.320        33
33.340        33
33.360        47
33.380        30
33.400        43
33.420        30
33.440        40
33.460        37
33.480        40
33.500        57
33.520        33
33.540        30
33.560        47
33.580        27
33.600        27
33.620        27
33.640        27
33.660        17
33.680        27
33.700        30
33.720        23
33.740        10
33.760        53
33.780        20
33.800        43
33.820        30
33.840        47
33.860        37
33.880        27
33.900        10
33.920        27
33.940        13
33.960        33
33.980        40
34.000        27
34.020        43
34.040        37
34.060        47
34.080        27
34.100        23
34.120        57
34.140        43
34.160        30
34.180        23
34.200        20
34.220        40
34.240        43
34.260        43
34.280        40
34.300        40
34.320        50
34.340        50
34.360        23
34.380        20
34.400        23
34.420        47
34.440        37
34.460        27
34.480        30
34.500        37
34.520        17
34.540        30
34.560        17
34.580        33
34.600        43
34.620        30
34.640        20
34.660        33
34.680        23
34.700        47
34.720        50
34.740        13
34.760        23
34.780        30
34.800        30
34.820        30
34.840        47
34.860        10
34.880        23
34.900        33
34.920        27
34.940        17
34.960        27
34.980        30
35.000        27
35.020        27
35.040        30
35.060        27
35.080        33
35.100        40
35.120        30
35.140        47
35.160        30
35.180        23
35.200        30
35.220        23
35.240        40
35.260        30
35.280        27
35.300        27
35.320        10
35.340        37
35.360        33
35.380        30
35.400        33
35.420        13
35.440        20
35.460        10
35.480        40
35.500        37
35.520        27
35.540        30
35.560        13
35.580        27
35.600        30
35.620        47
35.640        33
35.660        23
35.680        40
35.700        33
35.720        27
35.740        27
35.760        17
35.780        17
35.800        30
35.820        20
35.840        27
35.860        33
35.880        17
35.900        33
35.920        27
35.940        13
35.960        37
35.980        27
36.000        30
36.020        13
36.040        30
36.060        20
36.080        30
36.100        27
36.120        37
36.140        47
36.160        20
36.180        30
36.200        33
36.220        13
36.240        27
36.260        27
36.280        13
36.300        30
36.320        30
36.340        30
36.360        47
36.380        30
36.400        33
36.420        27
36.440        23
36.460        37
36.480        27
36.500        23
36.520        37
36.540        30
36.560        33
36.580        17
36.600        33
36.620        37
36.640        37
36.660        30
36.680        30
36.700        27
36.720        23
36.740        43
36.760        23
36.780        23
36.800        20
36.820        33
36.840        27
36.860        37
36.880        30
36.900        30
36.920        37
36.940        20
36.960        17
36.980        37
37.000        47
37.020        30
37.040        20
37.060        33
37.080        47
37.100        10
37.120        27
37.140        17
37.160        10
37.180        30
37.200        40
37.220        20
37.240        30
37.260        20
37.280        40
37.300        13
37.320        27
37.340        23
37.360        27
37.380        40
37.400        20
37.420        17
37.440        13
37.460        20
37.480        17
37.500        23
37.520        23
37.540        40
37.560        20
37.580        17
37.600        13
37.620        37
37.640        33
37.660        17
37.680        23
37.700        13
37.720        23
37.740        40
37.760        40
37.780        30
37.800        23
37.820        23
37.840        27
37.860        47
37.880        13
37.900        10
37.920        17
37.940        20
37.960        33
37.980         7
38.000        47
38.020        10
38.040        20
38.060        40
38.080        17
38.100        17
38.120        20
38.140        20
38.160        13
38.180        17
38.200        10
38.220        27
38.240        20
38.260        17
38.280        37
38.300        27
38.320        47
38.340        30
38.360        23
38.380        27
38.400        23
38.420        13
38.440        23
38.460        27
38.480        43
38.500        43
38.520        13
38.540        40
38.560        40
38.580        30
38.600        37
38.620        20
38.640        57
38.660        30
38.680        23
38.700        43
38.720        13
38.740        40
38.760        20
38.780        30
38.800        30
38.820        53
38.840        40
38.860        50
38.880        43
38.900        40
38.920        47
38.940        60
38.960        60
38.980        63
39.000        70
39.020        87
39.040       103
39.060       117
39.080       150
39.100       203
39.120       197
39.140       203
39.160       297
39.180       330
39.200       373
39.220       387
39.240       377
39.260       353
39.280       343
39.300       317
39.320       310
39.340       200
39.360       167
39.380       163
39.400       130
39.420       100
39.440        67
39.460        67
39.480        77
39.500        80
39.520        53
39.540        47
39.560        87
39.580        70
39.600        33
39.620        77
39.640        90
39.660        37
39.680        50
39.700        47
39.720        33
39.740        60
39.760        67
39.780        43
39.800        47
39.820        77
39.840        23
39.860        33
39.880        47
39.900        27
39.920        30
39.940        47
39.960        33
39.980        37
40.000        33
40.020        20
40.040        43
40.060        40
40.080        50
40.100        23
40.120        23
40.140        20
40.160        33
40.180        43
40.200        33
40.220        40
40.240        30
40.260        17
40.280        27
40.300        33
40.320        23
40.340        23
40.360        33
40.380        10
40.400        47
40.420        20
40.440        33
40.460        37
40.480        23
40.500        53
40.520        27
40.540        23
40.560        17
40.580        37
40.600        37
40.620        23
40.640        23
40.660        37
40.680        37
40.700        23
40.720        30
40.740        20
40.760        10
40.780         3
40.800        30
40.820        20
40.840        20
40.860        47
40.880        20
40.900        27
40.920         7
40.940        33
40.960        27
40.980        13
41.000        20
41.020        37
41.040        20
41.060        17
41.080        40
41.100        30
41.120        17
41.140        23
41.160        27
41.180        13
41.200        17
41.220        33
41.240        17
41.260        27
41.280        30
41.300        17
41.320        20
41.340        30
41.360        27
41.380        33
41.400        37
41.420        23
41.440        23
41.460        20
41.480        37
41.500        27
41.520        13
41.540        27
41.560        20
41.580        33
41.600        20
41.620        13
41.640        23
41.660        33
41.680        10
41.700         3
41.720        23
41.740         7
41.760        27
41.780        27
41.800        20
41.820        10
41.840        27
41.860        30
41.880        20
41.900        27
41.920        13
41.940        17
41.960        13
41.980        13
42.000        23
42.020        10
42.040        27
42.060         7
42.080        30
42.100        17
42.120        17
42.140        20
42.160        10
42.180        27
42.200        13
42.220        30
42.240        30
42.260        17
42.280        23
42.300        27
42.320        20
42.340        33
42.360        20
42.380        40
42.400        17
42.420        23
42.440        20
42.460        23
42.480        13
42.500         7
42.520        23
42.540        23
42.560        17
42.580        20
42.600        20
42.620        17
42.640        20
42.660        17
42.680        17
42.700         7
42.720        13
42.740        13
42.760        13
42.780        23
42.800        20
42.820        17
42.840        27
42.860        10
42.880        17
42.900        20
42.920        10
42.940        17
42.960        10
42.980        23
43.000        13
43.020        27
43.040        17
43.060        30
43.080        37
43.100        13
43.120        13
43.140        13
43.160        37
43.180        23
43.200        10
43.220        17
43.240        30
43.260        37
43.280        10
43.300        13
43.320        23
43.340         3
43.360        10
43.380        20
43.400        13
43.420        27
43.440        17
43.460        13
43.480        13
43.500         7
43.520         7
43.540        27
43.560        33
43.580        23
43.600        30
43.620        27
43.640        23
43.660        13
43.680        13
43.700        10
43.720        10
43.740        33
43.760        13
43.780        50
43.800        27
43.820        23
43.840        33
43.860        27
43.880        27
43.900        17
43.920        17
43.940         7
43.960        13
43.980        37
44.000        37
44.020         7
44.040        27
44.060        20
44.080        20
44.100        20
44.120        13
44.140        20
44.160        17
44.180        20
44.200        17
44.220        10
44.240        17
44.260        10
44.280        27
44.300        23
44.320        10
44.340        30
44.360        20
44.380        33
44.400        20
44.420        20
44.440        27
44.460        30
44.480        43
44.500        20
44.520        13
44.540        23
44.560        23
44.580        43
44.600        27
44.620        33
44.640        37
44.660        17
44.680        30
44.700        43
44.720        20
44.740        30
44.760        17
44.780        20
44.800        17
44.820        13
44.840        43
44.860        20
44.880        40
44.900        37
44.920        37
44.940        30
44.960        40
44.980        20
45.000        30
45.020        47
45.040        47
45.060        40
45.080        50
45.100        40
45.120        97
45.140        60
45.160        57
45.180        70
45.200        23
45.220        57
45.240        70
45.260        60
45.280        77
45.300        53
45.320        87
45.340       110
45.360       123
45.380        77
45.400       120
45.420        90
45.440        93
45.460        90
45.480       107
45.500        70
45.520       113
45.540        57
45.560        97
45.580       103
45.600        63
45.620        70
45.640        60
45.660        70
45.680        63
45.700        77
45.720        43
45.740        70
45.760        60
45.780        50
45.800        43
45.820        43
45.840        47
45.860        37
45.880        33
45.900        20
45.920        23
45.940        37
45.960        47
45.980        27
46.000        27
46.020        33
46.040        33
46.060        33
46.080        43
46.100        30
46.120        33
46.140        33
46.160        33
46.180        37
46.200        30
46.220        30
46.240        23
46.260        17
46.280        30
46.300        30
46.320        53
46.340        47
46.360        27
46.380        23
46.400        30
46.420        33
46.440        37
46.460        27
46.480        33
46.500        27
46.520        23
46.540        47
46.560        20
46.580        30
46.600        13
46.620        33
46.640        20
46.660        23
46.680        33
46.700        23
46.720        10
46.740        23
46.760        20
46.780        30
46.800        17
46.820        17
46.840        23
46.860        20
46.880        13
46.900        23
46.920        20
46.940        27
46.960        23
46.980        23
47.000        43
47.020        47
47.040        47
47.060        40
47.080        47
47.100        30
47.120        40
47.140        33
47.160        13
47.180        30
47.200        50
47.220        90
47.240        90
47.260        87
47.280        23
47.300        33
47.320        20
47.340        13
47.360        33
47.380        27
47.400        23
47.420        47
47.440        37
47.460        27
47.480        23
47.500        40
47.520        23
47.540        53
47.560        40
47.580        20
47.600        10
47.620        17
47.640        23
47.660        37
47.680        33
47.700        23
47.720        30
47.740        27
47.760        13
47.780        23
47.800        10
47.820        30
47.840        10
47.860        20
47.880        13
47.900        30
47.920        20
47.940        23
47.960        17
47.980        10
48.000        23
48.020        37
48.040        30
48.060        10
48.080        23
48.100        30
48.120        17
48.140        20
48.160        17
48.180        23
48.200        30
48.220        27
48.240        37
48.260        20
48.280        23
48.300        23
48.320        20
48.340        33
48.360        23
48.380         7
48.400        13
48.420        10
48.440        23
48.460        17
48.480        20
48.500         3
48.520        17
48.540        10
48.560        20
48.580        13
48.600        27
48.620        17
48.640        27
48.660        30
48.680         7
48.700        33
48.720        30
48.740        17
48.760        20
48.780         7
48.800        13
48.820        23
48.840        23
48.860        10
48.880        20
48.900        23
48.920        10
48.940        23
48.960        43
48.980        20
49.000        10
49.020        13
49.040        17
49.060        20
49.080        40
49.100        13
49.120        13
49.140        10
49.160        23
49.180        30
49.200        13
49.220        17
49.240        23
49.260        23
49.280         3
49.300        10
49.320        23
49.340        20
49.360        10
49.380        27
49.400        17
49.420         7
49.440        40
49.460        23
49.480        10
49.500        13
49.520        17
49.540        27
49.560        23
49.580        20
49.600        27
49.620        13
49.640        23
49.660        10
49.680        17
49.700        17
49.720        33
49.740        33
49.760        23
49.780         7
49.800        17
49.820        13
49.840        20
49.860       113
49.880        23
49.900        30
49.920        23
49.940        20
49.960        33
49.980         3
50.000        13
50.020        30
50.040        30
50.060        23
50.080        13
50.100        23
50.120        10
50.140        13
50.160        23
50.180        23
50.200        17
50.220        33
50.240         7
50.260        13
50.280        27
50.300        17
50.320        30
50.340        27
50.360        20
50.380        23
50.400        20
50.420        13
50.440        17
50.460        33
50.480        23
50.500        33
50.520        27
50.540        13
50.560        20
50.580        17
50.600        33
50.620        20
50.640        40
50.660        33
50.680        33
50.700        33
50.720        57
50.740        37
50.760        60
50.780        37
50.800        50
50.820        57
50.840        30
50.860        43
50.880        53
50.900        63
50.920        40
50.940        47
50.960        23
50.980        70
51.000        43
51.020        50
51.040        53
51.060        43
51.080        47
51.100        47
51.120        30
51.140        73
51.160        33
51.180        33
51.200        43
51.220        50
51.240        73
51.260        50
51.280        47
51.300        60
51.320        63
51.340        50
51.360        30
51.380        47
51.400        40
51.420        50
51.440        37
51.460        50
51.480        47
51.500        43
51.520        67
51.540        50
51.560        63
51.580        53
51.600        47
51.620        53
51.640        33
51.660        60
51.680        40
51.700        50
51.720        73
51.740        70
51.760        50
51.780        47
51.800        50
51.820        47
51.840        73
51.860        77
51.880        47
51.900        87
51.920        73
51.940        67
51.960        67
51.980        60
52.000        70
52.020       100
52.040        93
52.060       117
52.080        83
52.100        90
52.120       100
52.140        87
52.160       133
52.180       150
52.200       170
52.220       177
52.240       230
52.260       273
52.280       440
52.300       570
52.320       770
52.340      1060
52.360      1589
52.380      2069
52.400      2766
52.420      3032
52.440      3215
52.460      3559
52.480      3662
52.500      3725
52.520      4008
52.540      4092
52.560      4322
52.580      5318
52.600      8637
52.620     13555
52.640     12079
52.660      5524
52.680      2832
52.700      2139
52.720      2276
52.740      3735
52.760      5398
52.780      4961
52.800      2259
52.820       933
52.840       443
52.860       317
52.880       310
52.900       197
52.920       227
52.940       200
52.960        93
52.980       140
53.000       137
53.020        93
53.040       117
53.060       100
53.080       140
53.100        87
53.120       107
53.140        80
53.160       117
53.180        97
53.200        77
53.220        83
53.240        93
53.260        80
53.280        53
53.300        63
53.320        50
53.340        80
53.360        77
53.380        77
53.400        83
53.420        67
53.440        73
53.460        53
53.480        60
53.500        37
53.520        63
53.540        60
53.560        63
53.580        83
53.600        40
53.620        40
53.640        77
53.660        40
53.680        83
53.700        63
53.720        40
53.740        53
53.760        83
53.780        70
53.800        77
53.820        60
53.840        53
53.860        53
53.880        57
53.900        37
53.920        40
53.940        43
53.960        23
53.980        33
54.000        37
54.020        43
54.040        30
54.060        37
54.080        67
54.100        47
54.120        43
54.140        33
54.160        23
54.180        47
54.200        33
54.220        47
54.240        43
54.260        33
54.280        43
54.300        47
54.320        33
54.340        47
54.360        40
54.380        23
54.400        30
54.420        63
54.440        50
54.460        43
54.480        40
54.500        33
54.520        43
54.540        33
54.560        27
54.580        33
54.600        37
54.620        30
54.640        43
54.660        30
54.680        43
54.700        37
54.720        30
54.740        30
54.760        30
54.780        30
54.800        17
54.820        33
54.840        37
54.860        40
54.880        40
54.900        50
54.920        40
54.940        30
54.960        23
54.980        20
55.000        40
55.020        53
55.040        23
55.060        40
55.080        50
55.100        43
55.120        40
55.140        23
55.160        27
55.180        30
55.200        30
55.220        33
55.240        33
55.260        47
55.280        23
55.300        33
55.320        37
55.340        23
55.360        33
55.380        23
55.400        47
55.420        40
55.440        17
55.460        17
55.480        37
55.500        27
55.520        47
55.540        30
55.560        23
55.580        30
55.600        27
55.620        23
55.640        37
55.660        50
55.680        43
55.700        67
55.720        50
55.740        40
55.760        33
55.780        37
55.800        20
55.820        17
55.840        13
55.860        23
55.880        43
55.900        27
55.920        60
55.940        40
55.960        23
55.980        27
56.000        40
56.020        30
56.040        23
56.060        63
56.080        40
56.100        30
56.120        37
56.140        33
56.160        53
56.180        30
56.200        47
56.220        27
56.240        33
56.260        27
56.280        53
56.300        50
56.320        53
56.340        53
56.360        70
56.380        60
56.400        80
56.420        57
56.440        67
56.460       103
56.480        73
56.500        63
56.520        77
56.540       103
56.560       140
56.580       130
56.600       113
56.620       130
56.640        90
56.660        83
56.680       133
56.700        87
56.720       120
56.740       120
56.760        77
56.780        70
56.800        50
56.820        90
56.840        77
56.860        50
56.880        60
56.900        77
56.920        27
56.940        77
56.960        50
56.980        60
57.000        30
57.020        53
57.040        40
57.060        50
57.080        30
57.100        50
57.120        47
57.140        37
57.160        47
57.180        43
57.200        23
57.220        23
57.240        33
57.260        37
57.280        37
57.300        40
57.320        23
57.340        23
57.360        37
57.380        27
57.400        33
57.420        43
57.440        37
57.460        33
57.480        13
57.500        47
57.520        40
57.540        37
57.560        30
57.580        13
57.600        20
57.620        40
57.640        27
57.660        27
57.680        27
57.700        27
57.720        27
57.740        13
57.760        27
57.780        20
57.800        30
57.820        10
57.840        43
57.860        27
57.880        20
57.900         3
57.920        40
57.940        27
57.960        20
57.980        27
58.000        23
58.020        10
58.040        27
58.060        33
58.080        17
58.100        23
58.120        27
58.140        20
58.160        10
58.180        33
58.200        20
58.220        10
58.240        23
58.260        30
58.280        23
58.300        17
58.320        17
58.340        17
58.360        47
58.380        27
58.400        23
58.420        27
58.440        23
58.460        27
58.480        40
58.500        30
58.520        37
58.540        23
58.560        23
58.580        10
58.600        43
58.620        27
58.640        23
58.660        17
58.680        17
58.700        20
58.720        20
58.740        20
58.760        30
58.780        37
58.800        30
58.820        37
58.840        17
58.860        10
58.880        20
58.900        17
58.920        10
58.940        13
58.960        30
58.980        37
59.000        20
59.020        17
59.040        20
59.060        40
59.080        23
59.100        23
59.120        20
59.140        23
59.160        30
59.180        10
59.200        30
59.220        20
59.240        20
59.260        27
59.280        27
59.300        20
59.320        20
59.340        37
59.360        30
59.380        30
59.400        23
59.420        27
59.440        23
59.460        57
59.480        13
59.500        23
59.520        27
59.540        27
59.560        20
59.580        17
59.600        20
59.620        30
59.640        13
59.660        23
59.680        13
59.700        23
59.720        23
59.740        27
59.760        33
59.780        33
59.800        20
59.820        20
59.840        20
59.860        27
59.880        30
59.900        20
59.920        27
59.940        23
59.960        27
59.980        30
60.000        30
