20.000        50
20.020        47
20.040        40
20.060        47
20.080        47
20.100        50
20.120        43
20.140        37
20.160        37
20.180        43
20.200        37
20.220        40
20.240        53
20.260        57
20.280        40
20.300        53
20.320        53
20.340        33
20.360        20
20.380        33
20.400        17
20.420        67
20.440        40
20.460        47
20.480        37
20.500        40
20.520        47
20.540        27
20.560        27
20.580        37
20.600        33
20.620        30
20.640        50
20.660        40
20.680        47
20.700        30
20.720        20
20.740        37
20.760        50
20.780        27
20.800        30
20.820        40
20.840        57
20.860        17
20.880        43
20.900        37
20.920        30
20.940        37
20.960        47
20.980        47
21.000        43
21.020        60
21.040        37
21.060        37
21.080        47
21.100        37
21.120        40
21.140        40
21.160        30
21.180        33
21.200        37
21.220        40
21.240        37
21.260        50
21.280        43
21.300        43
21.320        20
21.340        43
21.360        33
21.380        47
21.400        43
21.420        33
21.440        53
21.460        37
21.480        23
21.500        27
21.520        30
21.540        33
21.560        40
21.580        33
21.600        33
21.620        47
21.640        23
21.660        57
21.680        20
21.700        53
21.720        50
21.740        47
21.760        40
21.780        40
21.800        60
21.820        70
21.840        53
21.860        40
21.880        47
21.900        70
21.920        53
21.940        43
21.960        37
21.980        60
22.000        47
22.020        93
22.040        77
22.060        27
22.080        70
22.100        67
22.120        53
22.140        60
22.160        70
22.180        50
22.200        27
22.220        40
22.240        33
22.260        43
22.280        37
22.300        63
22.320        27
22.340        37
22.360        30
22.380        73
22.400        23
22.420        27
22.440        50
22.460        40
22.480        30
22.500        30
22.520        47
22.540        67
22.560        43
22.580        37
22.600        40
22.620        40
22.640        50
22.660        30
22.680        33
22.700        17
22.720        60
22.740        43
22.760        57
22.780        10
22.800        33
22.820        23
22.840        40
22.860        57
22.880        43
22.900        40
22.920        33
22.940        30
22.960        63
22.980        30
23.000        33
23.020        10
23.040        37
23.060        53
23.080        40
23.100        27
23.120        20
23.140        63
23.160        27
23.180        30
23.200        43
23.220        53
23.240        17
23.260        43
23.280        40
23.300        37
23.320        53
23.340        33
23.360        33
23.380        40
23.400        50
23.420        53
23.440        17
23.460        33
23.480        43
23.500        33
23.520        57
23.540        30
23.560        17
23.580        47
23.600        23
23.620        40
23.640        30
23.660        43
23.680        47
23.700        37
23.720        17
23.740        23
23.760        47
23.780        30
23.800        33
23.820        57
23.840        43
23.860        27
23.880        30
23.900        33
23.920        37
23.940        57
23.960        33
23.980        30
24.000        20
24.020        47
24.040        20
24.060        27
24.080        10
24.100        47
24.120        50
24.140        43
24.160        27
24.180        23
24.200        37
24.220        30
24.240        13
24.260        27
24.280        43
24.300        20
24.320        13
24.340        23
24.360        33
24.380        40
24.400        33
24.420        23
24.440        53
24.460        37
24.480        30
24.500        43
24.520        20
24.540        27
24.560        33
24.580        37
24.600        27
24.620        37
24.640        23
24.660        60
24.680        23
24.700        50
24.720        47
24.740        50
24.760        20
24.780        30
24.800        33
24.820        37
24.840        23
24.860        47
24.880        40
24.900        40
24.920        27
24.940        30
24.960        20
24.980        10
25.000        53
25.020        30
25.040        23
25.060        50
25.080        40
25.100        27
25.120        33
25.140        27
25.160        40
25.180        13
25.200        43
25.220        33
25.240        33
25.260        40
25.280        40
25.300        23
25.320        30
25.340        33
25.360        30
25.380        23
25.400        47
25.420        47
25.440        47
25.460        60
25.480        47
25.500        63
25.520        87
25.540       150
25.560       257
25.580       323
25.600       237
25.620       250
25.640       237
25.660       167
25.680       143
25.700        80
25.720        83
25.740        30
25.760        53
25.780        33
25.800        47
25.820        37
25.840        37
25.860        17
25.880        40
25.900        33
25.920        43
25.940        27
25.960        17
25.980        50
26.000        20
26.020        30
26.040        27
26.060        30
26.080        17
26.100        33
26.120        23
26.140        13
26.160        30
26.180        40
26.200        37
26.220        40
26.240        47
26.260        40
26.280        33
26.300        20
26.320        43
26.340        23
26.360        17
26.380        40
26.400        20
26.420        20
26.440        33
26.460        23
26.480        33
26.500        33
26.520        33
26.540        33
26.560        33
26.580        33
26.600        37
26.620        20
26.640        23
26.660        17
26.680        27
26.700         7
26.720        37
26.740        20
26.760        23
26.780        40
26.800        37
26.820        43
26.840        40
26.860        37
26.880        23
26.900        47
26.920        30
26.940        10
26.960        30
26.980        23
27.000        20
27.020        20
27.040        27
27.060        47
27.080        20
27.100        10
27.120        43
27.140        40
27.160        20
27.180        17
27.200        40
27.220         7
27.240        40
27.260        37
27.280        27
27.300        23
27.320        20
27.340        10
27.360        27
27.380        17
27.400        17
27.420        37
27.440        27
27.460        30
27.480        33
27.500         0
27.520        33
27.540        27
27.560        27
27.580        27
27.600        27
27.620        23
27.640        33
27.660        40
27.680        17
27.700        33
27.720        33
27.740        27
27.760        27
27.780        10
27.800         7
27.820        43
27.840        30
27.860        30
27.880        30
27.900        37
27.920        13
27.940        23
27.960        20
27.980        27
28.000        23
28.020        23
28.040        20
28.060        23
28.080        13
28.100        23
28.120        33
28.140        10
28.160        10
28.180        33
28.200        30
28.220        23
28.240        23
28.260        20
28.280        50
28.300        43
28.320        27
28.340        27
28.360        30
28.380        13
28.400        23
28.420        23
28.440        17
28.460        13
28.480        23
28.500         3
28.520        30
28.540        37
28.560        23
28.580        33
28.600        23
28.620        17
28.640        23
28.660        17
28.680        27
28.700        27
28.720        20
28.740        33
28.760        27
28.780        40
28.800        27
28.820        17
28.840        40
28.860        27
28.880        30
28.900        20
28.920        20
28.940        30
28.960        20
28.980        27
29.000        13
29.020        27
29.040        23
29.060        23
29.080        30
29.100        17
29.120        30
29.140        33
29.160        37
29.180        20
29.200        53
29.220        33
29.240        67
29.260        60
29.280        50
29.300        57
29.320        60
29.340        43
29.360        60
29.380        50
29.400        53
29.420        30
29.440        30
29.460        33
29.480        40
29.500        33
29.520        23
29.540        20
29.560        30
29.580         7
29.600        37
29.620        20
29.640         7
29.660        27
29.680        47
29.700        30
29.720         7
29.740        43
29.760        13
29.780        30
29.800        17
29.820        33
29.840        27
29.860        27
29.880        30
29.900        20
29.920        23
29.940        23
29.960        30
29.980        37
30.000        20
30.020        27
30.040        20
30.060        27
30.080        27
30.100        37
30.120        23
30.140        20
30.160        33
30.180        23
30.200        27
30.220         3
30.240        30
30.260        13
30.280        23
30.300        27
30.320        17
30.340        27
30.360        30
30.380        23
30.400        27
30.420        17
30.440        17
30.460        30
30.480        37
30.500        27
30.520        17
30.540        23
30.560        33
30.580        27
30.600        30
30.620        17
30.640        27
30.660        23
30.680        47
30.700        33
30.720        30
30.740        27
30.760        23
30.780        27
30.800        30
30.820        30
30.840        23
30.860        37
30.880        17
30.900        23
30.920        30
30.940        33
30.960        40
30.980        37
31.000        40
31.020        30
31.040        43
31.060        43
31.080        23
31.100        67
31.120        30
31.140        53
31.160        40
31.180        80
31.200        60
31.220        73
31.240        47
31.260        67
31.280        80
31.300        77
31.320       100
31.340        73
31.360        70
31.380        70
31.400       110
31.420       120
31.440       110
31.460       160
31.480       137
31.500       113
31.520       150
31.540       137
31.560       103
31.580        97
31.600        80
31.620       120
31.640       117
31.660        93
31.680        77
31.700        60
31.720        73
31.740        73
31.760        80
31.780        73
31.800        63
31.820        80
31.840        57
31.860        53
31.880        37
31.900        67
31.920        33
31.940        47
31.960        43
31.980        57
32.000        50
32.020        40
32.040        27
32.060        30
32.080        27
32.100        43
32.120        30
32.140        50
32.160        17
32.180        27
32.200        47
32.220        27
32.240        27
32.260        30
32.280        37
32.300         7
32.320        23
32.340        47
32.360        20
32.380        37
32.400        47
32.420        23
32.440        23
32.460        40
32.480        27
32.500        13
32.520        40
32.540        17
32.560        33
32.580        40
32.600        17
32.620        27
32.640        27
32.660        27
32.680         7
32.700        37
32.720        27
32.740        17
32.760        30
32.780        23
32.800        43
32.820        27
32.840        30
32.860        13
32.880        30
32.900        20
32.920        33
32.940        23
32.960        17
32.980        20
33.000        17
33.020        23
33.040        17
33.060        37
33.080        27
33.100        30
33.120        13
33.140        27
33.160        20
33.180        27
33.200        27
33.220        10
33.240        20
33.260        17
33.280        10
33.300        17
33.320        17
33.340        20
33.360        30
33.380        23
33.400        20
33.420        23
33.440        33
33.460        10
33.480        10
33.500        23
33.520        23
33.540        13
33.560        23
33.580        17
33.600        17
33.620        30
33.640        27
33.660        23
33.680        23
33.700        30
33.720        17
33.740        10
33.760        30
33.780        23
33.800        13
33.820        10
33.840        23
33.860        17
33.880        20
33.900        17
33.920        17
33.940        20
33.960        20
33.980        17
34.000        20
34.020        10
34.040        17
34.060        10
34.080        17
34.100        30
34.120        40
34.140        20
34.160        27
34.180        20
34.200         7
34.220        17
34.240        20
34.260        23
34.280        13
34.300         7
34.320        23
34.340        20
34.360        33
34.380        23
34.400         7
34.420         7
34.440        17
34.460        17
34.480        20
34.500        23
34.520        33
34.540        17
34.560        33
34.580        17
34.600        10
34.620        23
34.640        30
34.660        13
34.680        33
34.700        23
34.720        37
34.740        23
34.760        30
34.780        43
34.800        13
34.820        27
34.840        13
34.860        10
34.880        20
34.900        23
34.920        30
34.940        13
34.960        37
34.980        13
35.000        10
35.020        17
35.040        20
35.060        30
35.080        17
35.100        13
35.120        23
35.140        30
35.160         7
35.180        27
35.200        13
35.220        20
35.240        20
35.260        30
35.280        10
35.300        30
35.320        27
35.340        13
35.360        17
35.380        13
35.400        27
35.420         7
35.440        20
35.460        13
35.480        17
35.500        33
35.520        30
35.540        23
35.560        17
35.580        20
35.600        30
35.620        40
35.640        23
35.660        20
35.680        20
35.700        17
35.720        23
35.740        13
35.760        17
35.780        20
35.800         3
35.820        23
35.840        13
35.860        17
35.880        13
35.900        50
35.920        17
35.940        20
35.960        20
35.980        23
36.000        27
36.020        30
36.040        27
36.060        23
36.080        13
36.100        40
36.120        17
36.140        10
36.160        27
36.180        10
36.200        13
36.220         3
36.240        20
36.260        27
36.280        23
36.300        17
36.320        20
36.340        43
36.360        10
36.380        17
36.400        13
36.420        13
36.440        23
36.460        33
36.480        20
36.500        20
36.520        30
36.540        30
36.560        20
36.580        17
36.600        17
36.620        10
36.640        17
36.660        40
36.680        13
36.700        20
36.720        23
36.740        23
36.760        33
36.780        30
36.800         3
36.820        20
36.840        13
36.860        17
36.880        23
36.900        13
36.920        17
36.940        20
36.960        30
36.980        20
37.000        17
37.020        13
37.040        13
37.060        10
37.080        23
37.100        13
37.120        20
37.140         7
37.160        23
37.180        20
37.200        10
37.220        17
37.240        13
37.260        13
37.280        13
37.300        13
37.320        17
37.340        10
37.360        23
37.380        17
37.400        20
37.420        20
37.440        23
37.460        17
37.480        37
37.500         7
37.520        33
37.540        17
37.560        13
37.580        23
37.600         7
37.620        30
37.640        33
37.660        13
37.680        30
37.700        10
37.720        30
37.740        20
37.760        27
37.780        33
37.800        20
37.820        20
37.840        20
37.860        13
37.880        30
37.900        20
37.920        13
37.940        10
37.960        33
37.980        23
38.000        13
38.020        30
38.040        40
38.060        33
38.080        13
38.100        17
38.120        10
38.140        13
38.160        10
38.180        17
38.200        27
38.220        23
38.240        30
38.260        17
38.280        17
38.300        13
38.320        10
38.340        13
38.360        20
38.380        23
38.400        13
38.420        17
38.440        20
38.460        27
38.480        47
38.500        33
38.520        20
38.540        37
38.560         7
38.580        40
38.600        20
38.620        30
38.640        17
38.660        30
38.680        27
38.700        23
38.720        37
38.740        23
38.760        23
38.780        23
38.800        17
38.820        43
38.840        27
38.860        23
38.880        53
38.900        50
38.920        57
38.940        50
38.960        70
38.980        73
39.000        67
39.020        83
39.040        93
39.060        50
39.080        93
39.100        73
39.120        93
39.140        57
39.160        73
39.180        67
39.200        40
39.220        50
39.240        67
39.260        53
39.280        30
39.300        30
39.320        50
39.340        47
39.360        23
39.380        47
39.400        23
39.420        37
39.440        37
39.460        20
39.480        23
39.500        40
39.520        23
39.540        17
39.560        27
39.580        23
39.600        23
39.620        33
39.640        27
39.660        13
39.680        27
39.700        13
39.720        13
39.740        40
39.760        33
39.780        30
39.800        17
39.820        23
39.840        13
39.860        33
39.880        27
39.900        17
39.920         7
39.940        33
39.960        27
39.980        17
40.000        13
40.020        20
40.040        17
40.060        27
40.080        30
40.100        10
40.120        17
40.140        23
40.160        17
40.180        17
40.200        27
40.220        33
40.240        20
40.260        27
40.280        20
40.300        27
40.320        17
40.340        20
40.360        17
40.380        27
40.400        20
40.420        23
40.440        30
40.460        27
40.480        30
40.500        10
40.520        27
40.540        27
40.560        23
40.580        10
40.600        17
40.620        23
40.640        17
40.660        27
40.680        10
40.700        33
40.720         3
40.740        20
40.760        23
40.780        17
40.800        23
40.820        33
40.840        23
40.860        13
40.880        27
40.900        30
40.920        13
40.940        27
40.960        20
40.980        20
41.000        27
41.020        27
41.040        13
41.060        20
41.080        43
41.100        17
41.120        23
41.140        20
41.160         7
41.180        27
41.200        17
41.220        10
41.240        33
41.260        23
41.280        17
41.300        27
41.320        17
41.340        20
41.360        30
41.380        17
41.400        20
41.420        13
41.440        13
41.460        10
41.480        17
41.500        17
41.520        17
41.540        30
41.560        13
41.580        23
41.600        20
41.620        27
41.640        27
41.660        17
41.680        13
41.700        10
41.720        17
41.740        23
41.760        23
41.780        20
41.800        27
41.820        20
41.840         3
41.860        13
41.880        13
41.900        20
41.920        20
41.940        20
41.960        20
41.980        13
42.000        23
42.020        37
42.040        50
42.060        20
42.080        27
42.100        13
42.120        10
42.140        13
42.160        13
42.180        27
42.200        37
42.220        30
42.240        10
42.260        30
42.280        20
42.300        10
42.320        23
42.340        30
42.360         7
42.380        37
42.400        20
42.420        30
42.440        20
42.460        33
42.480        23
42.500        13
42.520        37
42.540        13
42.560        20
42.580        20
42.600        27
42.620        30
42.640        13
42.660        17
42.680        23
42.700        23
42.720        23
42.740        30
42.760        17
42.780        13
42.800        23
42.820        13
42.840        13
42.860        13
42.880        20
42.900        17
42.920         7
42.940        43
42.960        10
42.980        13
43.000        17
43.020        13
43.040        33
43.060        23
43.080        23
43.100        20
43.120        23
43.140        53
43.160        33
43.180        27
43.200        30
43.220        27
43.240        40
43.260        17
43.280        10
43.300        23
43.320        33
43.340        17
43.360        17
43.380        23
43.400        33
43.420        23
43.440        27
43.460        27
43.480        23
43.500        13
43.520        13
43.540        27
43.560        17
43.580        27
43.600        33
43.620        13
43.640        33
43.660        20
43.680        20
43.700        43
43.720        17
43.740         3
43.760        23
43.780        20
43.800        33
43.820        27
43.840        20
43.860        23
43.880        10
43.900        33
43.920        20
43.940        27
43.960        17
43.980        33
44.000        13
44.020        30
44.040        20
44.060        10
44.080        13
44.100        23
44.120        37
44.140        30
44.160        30
44.180        30
44.200        30
44.220        30
44.240        27
44.260        37
44.280        37
44.300        47
44.320        20
44.340        27
44.360        30
44.380        37
44.400        13
44.420        20
44.440        20
44.460        37
44.480        27
44.500        47
44.520        20
44.540        30
44.560        57
44.580        27
44.600        40
44.620        57
44.640        43
44.660        27
44.680        43
44.700        43
44.720        40
44.740        57
44.760        77
44.780        30
44.800        60
44.820        67
44.840        43
44.860        63
44.880        63
44.900        43
44.920        87
44.940        30
44.960        80
44.980        63
45.000        57
45.020       100
45.040       100
45.060       100
45.080        47
45.100        87
45.120        40
45.140        80
45.160        57
45.180        97
45.200        60
45.220        97
45.240        60
45.260        20
45.280        70
45.300        70
45.320        50
45.340        63
45.360        47
45.380        87
45.400        60
45.420        30
45.440        43
45.460        53
45.480        40
45.500        53
45.520        63
45.540        53
45.560        57
45.580        33
45.600        37
45.620        50
45.640        60
45.660        27
45.680        47
45.700        53
45.720        53
45.740        37
45.760        23
45.780        37
45.800        43
45.820        30
45.840        27
45.860        47
45.880        27
45.900        37
45.920        50
45.940        37
45.960        37
45.980        30
46.000        30
46.020        20
46.040        20
46.060        23
46.080        40
46.100        27
46.120        33
46.140        10
46.160        33
46.180        37
46.200        23
46.220        27
46.240        37
46.260        23
46.280        33
46.300        40
46.320        27
46.340        27
46.360        37
46.380        43
46.400        23
46.420        23
46.440        33
46.460        23
46.480        37
46.500        20
46.520        30
46.540        20
46.560        40
46.580        33
46.600        27
46.620        17
46.640        37
46.660        50
46.680        57
46.700        37
46.720        30
46.740        30
46.760        17
46.780        37
46.800        27
46.820        17
46.840        33
46.860        23
46.880        40
46.900        43
46.920        20
46.940        43
46.960        40
46.980        23
47.000        63
47.020        33
47.040        50
47.060        60
47.080        63
47.100        93
47.120       150
47.140       203
47.160       367
47.180       313
47.200       197
47.220       137
47.240        87
47.260        77
47.280        47
47.300        60
47.320        63
47.340        67
47.360        40
47.380        47
47.400        27
47.420        27
47.440        33
47.460        40
47.480        60
47.500        43
47.520        37
47.540        33
47.560        43
47.580        40
47.600        37
47.620        23
47.640        33
47.660        40
47.680        37
47.700        20
47.720        20
47.740        20
47.760        30
47.780        27
47.800        20
47.820        17
47.840        33
47.860        27
47.880        40
47.900        17
47.920        23
47.940        27
47.960        20
47.980        10
48.000        27
48.020        23
48.040         7
48.060        30
48.080        27
48.100        13
48.120        30
48.140        43
48.160        30
48.180        37
48.200        23
48.220        27
48.240        10
48.260        37
48.280        40
48.300        23
48.320        43
48.340        27
48.360        33
48.380        23
48.400        53
48.420        47
48.440        50
48.460        17
48.480        43
48.500        67
48.520        37
48.540        40
48.560        27
48.580        30
48.600        47
48.620        20
48.640        23
48.660        27
48.680        23
48.700        23
48.720        17
48.740        23
48.760        33
48.780        17
48.800        27
48.820        17
48.840        27
48.860        10
48.880        20
48.900        23
48.920        30
48.940        30
48.960        17
48.980        13
49.000         0
49.020        13
49.040        23
49.060        20
49.080        23
49.100        27
49.120        17
49.140        20
49.160         7
49.180        20
49.200        13
49.220        17
49.240        17
49.260        27
49.280        27
49.300        33
49.320        20
49.340        13
49.360        13
49.380        23
49.400        20
49.420        30
49.440        23
49.460        10
49.480        10
49.500        23
49.520        23
49.540        17
49.560        17
49.580        20
49.600        17
49.620        13
49.640        20
49.660        20
49.680        20
49.700        53
49.720        20
49.740        27
49.760        23
49.780        27
49.800        17
49.820        27
49.840        20
49.860        30
49.880        20
49.900        43
49.920        30
49.940        17
49.960        13
49.980        27
50.000        17
50.020        10
50.040        30
50.060        27
50.080        20
50.100        27
50.120        23
50.140        33
50.160        33
50.180        20
50.200        27
50.220        20
50.240        33
50.260        20
50.280        37
50.300        53
50.320        23
50.340        33
50.360        13
50.380        20
50.400        23
50.420        27
50.440        33
50.460        17
50.480        37
50.500        23
50.520        17
50.540        27
50.560        27
50.580        30
50.600        33
50.620        47
50.640        27
50.660       107
50.680        63
50.700       103
50.720       113
50.740       120
50.760       113
50.780       130
50.800       187
50.820       137
50.840       140
50.860        87
50.880       193
50.900       133
50.920       133
50.940       147
50.960        70
50.980       140
51.000       143
51.020       113
51.040       130
51.060       120
51.080       150
51.100       127
51.120       153
51.140       180
51.160       110
51.180       143
51.200       113
51.220       113
51.240       123
51.260       143
51.280       110
51.300       113
51.320       130
51.340       140
51.360       123
51.380       103
51.400       127
51.420       143
51.440       147
51.460       127
51.480        90
51.500       107
51.520       180
51.540       150
51.560       140
51.580       140
51.600       147
51.620       153
51.640       133
51.660       133
51.680       177
51.700       157
51.720       120
51.740       120
51.760       147
51.780       177
51.800       147
51.820       137
51.840       157
51.860       170
51.880       177
51.900       157
51.920       190
51.940       173
51.960       190
51.980       197
52.000       210
52.020       167
52.040       193
52.060       227
52.080       190
52.100       207
52.120       183
52.140       260
52.160       227
52.180       280
52.200       280
52.220       367
52.240       403
52.260       520
52.280       603
52.300       840
52.320       860
52.340       966
52.360      1063
52.380      1076
52.400      1110
52.420      1213
52.440      1623
52.460      2326
52.480      4108
52.500      7907
52.520     18716
52.540     42740
52.560     60286
52.580     59376
52.600     44899
52.620     23007
52.640     13065
52.660     15634
52.680     26376
52.700     34493
52.720     33723
52.740     24617
52.760     12148
52.780      5694
52.800      4108
52.820      3225
52.840      2722
52.860      1899
52.880      1376
52.900       883
52.920       613
52.940       556
52.960       433
52.980       463
53.000       506
53.020       343
53.040       370
53.060       290
53.080       293
53.100       293
53.120       243
53.140       320
53.160       243
53.180       230
53.200       247
53.220       230
53.240       233
53.260       233
53.280       230
53.300       210
53.320       193
53.340       150
53.360       233
53.380       197
53.400       167
53.420       190
53.440       130
53.460       147
53.480       157
53.500       180
53.520       177
53.540       167
53.560       170
53.580       143
53.600       177
53.620       193
53.640       140
53.660       143
53.680       127
53.700       147
53.720       103
53.740       143
53.760       140
53.780       127
53.800       123
53.820       147
53.840       120
53.860       127
53.880       150
53.900        87
53.920       163
53.940       147
53.960       120
53.980       120
54.000       100
54.020       103
54.040       113
54.060       130
54.080       103
54.100       110
54.120       117
54.140       110
54.160       127
54.180        90
54.200       130
54.220        87
54.240       117
54.260        77
54.280       120
54.300       123
54.320        93
54.340        73
54.360       103
54.380        83
54.400       100
54.420       100
54.440       117
54.460        97
54.480       133
54.500        83
54.520        80
54.540        90
54.560       113
54.580        87
54.600       113
54.620        87
54.640        93
54.660        80
54.680       110
54.700       110
54.720        87
54.740       110
54.760        93
54.780        77
54.800        87
54.820        90
54.840        83
54.860        90
54.880       113
54.900        93
54.920       137
54.940        93
54.960        80
54.980       107
55.000        63
55.020        73
55.040       100
55.060        90
55.080        90
55.100        73
55.120       107
55.140       120
55.160       107
55.180        83
55.200       103
55.220        53
55.240        73
55.260       103
55.280        93
55.300        67
55.320        87
55.340        73
55.360        67
55.380        80
55.400        63
55.420        77
55.440        93
55.460       100
55.480        87
55.500        93
55.520       100
55.540       103
55.560        80
55.580        97
55.600       103
55.620        50
55.640        57
55.660        80
55.680        87
55.700        87
55.720        83
55.740        87
55.760       103
55.780        73
55.800        83
55.820        77
55.840        73
55.860        90
55.880        63
55.900        67
55.920        73
55.940        60
55.960        70
55.980        67
56.000       107
56.020        60
56.040       113
56.060        63
56.080        87
56.100        87
56.120        83
56.140        63
56.160       103
56.180        60
56.200        70
56.220        90
56.240        80
56.260        97
56.280       100
56.300        70
56.320        57
56.340        87
56.360        93
56.380       100
56.400        87
56.420        80
56.440        90
56.460        90
56.480       117
56.500        83
56.520        60
56.540        77
56.560        73
56.580        70
56.600        77
56.620        90
56.640        53
56.660        60
56.680       100
56.700       103
56.720        47
56.740        73
56.760        93
56.780        83
56.800        93
56.820        90
56.840        77
56.860        77
56.880        67
56.900        80
56.920        80
56.940        73
56.960        53
56.980        73
57.000        73
57.020        70
57.040        47
57.060        77
57.080        43
57.100        77
57.120        70
57.140        87
57.160        67
57.180        60
57.200        57
57.220        47
57.240        83
57.260        80
57.280        73
57.300        83
57.320        73
57.340        80
57.360        67
57.380        73
57.400        57
57.420        83
57.440        87
57.460        57
57.480        53
57.500        70
57.520        57
57.540        77
57.560        57
57.580        80
57.600        37
57.620        47
57.640        63
57.660        57
57.680        50
57.700        73
57.720        73
57.740        63
57.760        83
57.780        93
57.800        70
57.820        43
57.840        60
57.860        90
57.880        70
57.900        67
57.920        83
57.940        57
57.960        80
57.980        80
58.000        60
58.020        73
58.040        70
58.060        63
58.080        73
58.100        70
58.120        50
58.140        83
58.160        63
58.180        67
58.200        70
58.220       100
58.240        60
58.260        53
58.280        73
58.300        67
58.320        80
58.340        70
58.360        53
58.380        53
58.400        67
58.420        63
58.440        60
58.460        77
58.480        53
58.500        80
58.520        73
58.540        67
58.560        70
58.580        60
58.600        40
58.620        47
58.640        43
58.660        80
58.680        40
58.700        80
58.720        47
58.740        73
58.760        50
58.780        63
58.800        33
58.820        70
58.840        57
58.860        57
58.880        53
58.900        70
58.920        47
58.940        67
58.960        53
58.980        53
59.000        67
59.020        60
59.040        67
59.060        63
59.080        50
59.100        37
59.120        67
59.140        67
59.160        27
59.180        47
59.200        63
59.220        67
59.240        80
59.260        53
59.280        50
59.300        40
59.320        57
59.340        63
59.360        47
59.380        47
59.400        53
59.420        40
59.440        40
59.460        83
59.480        33
59.500        63
59.520        63
59.540        47
59.560        60
59.580        57
59.600        47
59.620        40
59.640        50
59.660        50
59.680        60
59.700        27
59.720        57
59.740        37
59.760        57
59.780        63
59.800        63
59.820        53
59.840        40
59.860        50
59.880        30
59.900        30
59.920        67
59.940        73
59.960        40
59.980        37
60.000        37
