20.000        90
20.020        83
20.040        63
20.060       117
20.080       107
20.100        90
20.120        90
20.140       100
20.160        80
20.180        97
20.200        70
20.220        87
20.240       103
20.260        83
20.280       113
20.300        97
20.320        70
20.340       140
20.360        97
20.380        87
20.400        97
20.420        83
20.440        97
20.460       140
20.480        90
20.500       120
20.520       113
20.540       100
20.560        63
20.580        70
20.600        73
20.620        73
20.640        87
20.660       127
20.680        67
20.700        63
20.720        90
20.740        90
20.760        93
20.780        97
20.800        47
20.820        97
20.840        93
20.860        97
20.880        77
20.900       100
20.920        87
20.940        67
20.960        63
20.980        67
21.000       113
21.020       120
21.040       127
21.060       117
21.080        93
21.100        87
21.120        80
21.140       100
21.160       107
21.180        97
21.200        63
21.220        93
21.240        87
21.260        77
21.280       117
21.300        87
21.320        80
21.340        90
21.360       103
21.380        90
21.400       100
21.420        90
21.440        90
21.460       117
21.480        83
21.500       120
21.520        83
21.540       140
21.560       107
21.580        77
21.600        97
21.620        93
21.640        90
21.660        93
21.680       120
21.700       147
21.720       123
21.740       140
21.760        97
21.780       140
21.800       120
21.820       127
21.840        83
21.860       130
21.880        97
21.900       120
21.920       140
21.940       100
21.960       130
21.980       143
22.000       160
22.020       177
22.040       180
22.060       133
22.080       120
22.100       153
22.120       107
22.140       137
22.160       123
22.180       177
22.200       190
22.220       113
22.240       163
22.260       150
22.280       110
22.300        97
22.320       130
22.340       173
22.360       130
22.380       143
22.400       110
22.420       113
22.440       140
22.460       147
22.480       160
22.500       137
22.520       117
22.540       127
22.560       127
22.580       137
22.600       127
22.620       133
22.640       163
22.660       143
22.680       177
22.700       133
22.720       113
22.740       127
22.760       147
22.780       123
22.800       127
22.820       107
22.840       150
22.860       140
22.880       197
22.900       173
22.920       170
22.940       247
22.960       240
22.980       193
23.000       160
23.020       200
23.040       190
23.060       253
23.080       403
23.100       830
23.120      1180
23.140      1030
23.160       900
23.180       520
23.200       277
23.220       270
23.240       220
23.260       220
23.280       167
23.300       190
23.320       190
23.340       210
23.360       187
23.380       233
23.400       173
23.420       173
23.440       217
23.460       203
23.480       177
23.500       177
23.520       187
23.540       213
23.560       177
23.580       187
23.600       143
23.620       177
23.640       180
23.660       177
23.680       197
23.700       173
23.720       147
23.740       203
23.760       210
23.780       197
23.800       153
23.820       177
23.840       180
23.860       160
23.880       133
23.900       210
23.920       220
23.940       193
23.960       177
23.980       140
24.000       127
24.020       157
24.040       190
24.060       200
24.080       180
24.100       170
24.120       140
24.140       140
24.160       183
24.180       227
24.200       163
24.220       170
24.240       137
24.260       200
24.280       140
24.300       160
24.320       177
24.340       197
24.360       180
24.380       247
24.400       157
24.420       187
24.440       163
24.460       150
24.480       150
24.500       130
24.520       167
24.540       207
24.560       177
24.580       170
24.600       200
24.620       197
24.640       133
24.660       233
24.680       197
24.700       187
24.720       207
24.740       337
24.760       426
24.780       483
24.800       483
24.820       546
24.840       586
24.860       616
24.880       590
24.900       563
24.920       530
24.940       616
24.960       606
24.980       610
25.000       596
25.020       536
25.040       510
25.060       530
25.080       566
25.100       560
25.120       543
25.140       706
25.160       713
25.180       630
25.200       646
25.220       630
25.240       693
25.260       620
25.280       753
25.300       810
25.320       743
25.340       760
25.360       883
25.380       980
25.400      1306
25.420      1749
25.440      2592
25.460      3858
25.480      5085
25.500      6477
25.520      7794
25.540      8846
25.560     12848
25.580     33043
25.600     87348
25.620    118896
25.640    123727
25.660    118569
25.680     88418
25.700     71002
25.720     59426
25.740     29895
25.760     11285
25.780      7001
25.800      5731
25.820      4218
25.840      2949
25.860      2262
25.880      1693
25.900      1220
25.920       910
25.940      1000
25.960       920
25.980       853
26.000       796
26.020       783
26.040       793
26.060       720
26.080       650
26.100       703
26.120       586
26.140       616
26.160       490
26.180       520
26.200       566
26.220       630
26.240       730
26.260       596
26.280       583
26.300       496
26.320       590
26.340       503
26.360       556
26.380       506
26.400       513
26.420       446
26.440       500
26.460       480
26.480       520
26.500       523
26.520       463
26.540       500
26.560       510
26.580       493
26.600       510
26.620       496
26.640       490
26.660       480
26.680       503
26.700       407
26.720       460
26.740       420
26.760       426
26.780       436
26.800       393
26.820       413
26.840       387
26.860       516
26.880       520
26.900       410
26.920       450
26.940       363
26.960       440
26.980       426
27.000       407
27.020       430
27.040       403
27.060       426
27.080       397
27.100       456
27.120       466
27.140       433
27.160       390
27.180       293
27.200       410
27.220       373
27.240       423
27.260       390
27.280       377
27.300       390
27.320       353
27.340       363
27.360       410
27.380       340
27.400       430
27.420       393
27.440       456
27.460       436
27.480       380
27.500       410
27.520       330
27.540       363
27.560       377
27.580       413
27.600       357
27.620       380
27.640       436
27.660       350
27.680       347
27.700       413
27.720       367
27.740       393
27.760       460
27.780       350
27.800       400
27.820       350
27.840       397
27.860       333
27.880       373
27.900       433
27.920       327
27.940       293
27.960       357
27.980       320
28.000       343
28.020       347
28.040       357
28.060       380
28.080       333
28.100       360
28.120       327
28.140       353
28.160       320
28.180       370
28.200       327
28.220       293
28.240       340
28.260       413
28.280       293
28.300       337
28.320       360
28.340       317
28.360       310
28.380       323
28.400       347
28.420       313
28.440       380
28.460       317
28.480       330
28.500       320
28.520       373
28.540       290
28.560       283
28.580       327
28.600       303
28.620       253
28.640       340
28.660       327
28.680       360
28.700       247
28.720       297
28.740       327
28.760       317
28.780       337
28.800       343
28.820       297
28.840       297
28.860       387
28.880       320
28.900       370
28.920       337
28.940       363
28.960       293
28.980       327
29.000       377
29.020       377
29.040       387
29.060       377
29.080       370
29.100       397
29.120       393
29.140       297
29.160       313
29.180       340
29.200       360
29.220       317
29.240       357
29.260       367
29.280       310
29.300       283
29.320       360
29.340       297
29.360       317
29.380       337
29.400       337
29.420       307
29.440       290
29.460       273
29.480       323
29.500       247
29.520       307
29.540       317
29.560       313
29.580       347
29.600       307
29.620       293
29.640       213
29.660       360
29.680       283
29.700       323
29.720       283
29.740       250
29.760       347
29.780       210
29.800       317
29.820       250
29.840       250
29.860       290
29.880       247
29.900       263
29.920       290
29.940       310
29.960       310
29.980       257
30.000       280
30.020       280
30.040       283
30.060       237
30.080       230
30.100       253
30.120       240
30.140       280
30.160       250
30.180       220
30.200       260
30.220       310
30.240       313
30.260       230
30.280       280
30.300       243
30.320       243
30.340       240
30.360       287
30.380       283
30.400       257
30.420       260
30.440       243
30.460       330
30.480       187
30.500       217
30.520       247
30.540       220
30.560       233
30.580       237
30.600       223
30.620       240
30.640       270
30.660       270
30.680       220
30.700       240
30.720       240
30.740       250
30.760       173
30.780       240
30.800       263
30.820       253
30.840       293
30.860       233
30.880       243
30.900       220
30.920       250
30.940       233
30.960       250
30.980       227
31.000       200
31.020       177
31.040       187
31.060       193
31.080       240
31.100       250
31.120       233
31.140       247
31.160       267
31.180       213
31.200       233
31.220       223
31.240       217
31.260       260
31.280       223
31.300       230
31.320       280
31.340       260
31.360       247
31.380       230
31.400       220
31.420       237
31.440       230
31.460       223
31.480       210
31.500       227
31.520       250
31.540       277
31.560       277
31.580       260
31.600       293
31.620       240
31.640       267
31.660       237
31.680       263
31.700       220
31.720       197
31.740       190
31.760       243
31.780       240
31.800       213
31.820       210
31.840       213
31.860       213
31.880       223
31.900       237
31.920       237
31.940       207
31.960       230
31.980       200
32.000       203
32.020       167
32.040       213
32.060       197
32.080       170
32.100       163
32.120       183
32.140       137
32.160       180
32.180       170
32.200       183
32.220       167
32.240       183
32.260       197
32.280       173
32.300       137
32.320       143
32.340       187
32.360       167
32.380       113
32.400       163
32.420       183
32.440       193
32.460       150
32.480       187
32.500       210
32.520       137
32.540       147
32.560       180
32.580       193
32.600       157
32.620       167
32.640       173
32.660       200
32.680       150
32.700       140
32.720       147
32.740       143
32.760       117
32.780       173
32.800       173
32.820       160
32.840       137
32.860       190
32.880       130
32.900       140
32.920       160
32.940       113
32.960       167
32.980       140
33.000       160
33.020       203
33.040       147
33.060       137
33.080       143
33.100       187
33.120       170
33.140       133
33.160       160
33.180       140
33.200       153
33.220       147
33.240       187
33.260       177
33.280       153
33.300       120
33.320       133
33.340       110
33.360       150
33.380       157
33.400       150
33.420       143
33.440        97
33.460       117
33.480       157
33.500       133
33.520       183
33.540       120
33.560       100
33.580       170
33.600       137
33.620       130
33.640       107
33.660        97
33.680       153
33.700       110
33.720       160
33.740       143
33.760       150
33.780       127
33.800       163
33.820       100
33.840       120
33.860       150
33.880       147
33.900       120
33.920       153
33.940       127
33.960       110
33.980       150
34.000       143
34.020       117
34.040       173
34.060       137
34.080       120
34.100       120
34.120       127
34.140       140
34.160        90
34.180       130
34.200        97
34.220       180
34.240        90
34.260       117
34.280       127
34.300       110
34.320       107
34.340       160
34.360       127
34.380       117
34.400       130
34.420       110
34.440       120
34.460       107
34.480        83
34.500       100
34.520       113
34.540       140
34.560       153
34.580       100
34.600       103
34.620       107
34.640        97
34.660       153
34.680       120
34.700        97
34.720       120
34.740       120
34.760       117
34.780       110
34.800       113
34.820        97
34.840        97
34.860       137
34.880       123
34.900        87
34.920       103
34.940       120
34.960       113
34.980       100
35.000       133
35.020        93
35.040       113
35.060       150
35.080        93
35.100       133
35.120       127
35.140        97
35.160       110
35.180       117
35.200       133
35.220       110
35.240       103
35.260       100
35.280        87
35.300       120
35.320       110
35.340       103
35.360       100
35.380        83
35.400        80
35.420        83
35.440        87
35.460        90
35.480       107
35.500        80
35.520       117
35.540        83
35.560        87
35.580        70
35.600       103
35.620        67
35.640       113
35.660        87
35.680       103
35.700        63
35.720        93
35.740       103
35.760        97
35.780        73
35.800        77
35.820        93
35.840       110
35.860       100
35.880       103
35.900        67
35.920        67
35.940        67
35.960        87
35.980        80
36.000        73
36.020        73
36.040        63
36.060       123
36.080       120
36.100        67
36.120        77
36.140        90
36.160       117
36.180       103
36.200        77
36.220        63
36.240        80
36.260       107
36.280        77
36.300       100
36.320        67
36.340        73
36.360        67
36.380        93
36.400       103
36.420        80
36.440        57
36.460        87
36.480        67
36.500        93
36.520       103
36.540        90
36.560        90
36.580        50
36.600        93
36.620       113
36.640        67
36.660        63
36.680        63
36.700        93
36.720        93
36.740        90
36.760       113
36.780        77
36.800        93
36.820        87
36.840        90
36.860        53
36.880        83
36.900        83
36.920        97
36.940        93
36.960        60
36.980        70
37.000        77
37.020        60
37.040        60
37.060        80
37.080       100
37.100        83
37.120        70
37.140        90
37.160        83
37.180        27
37.200        70
37.220        73
37.240        93
37.260        57
37.280        87
37.300        63
37.320        70
37.340        63
37.360        63
37.380        73
37.400        67
37.420        77
37.440        83
37.460        70
37.480        67
37.500        70
37.520        60
37.540        57
37.560       100
37.580        67
37.600        70
37.620        83
37.640        60
37.660        63
37.680        40
37.700        77
37.720        50
37.740        70
37.760        57
37.780        57
37.800        77
37.820        63
37.840        83
37.860        47
37.880        37
37.900        47
37.920        83
37.940        60
37.960        83
37.980        67
38.000        57
38.020        80
38.040        77
38.060        63
38.080        60
38.100        87
38.120        30
38.140        70
38.160        67
38.180        63
38.200        67
38.220        60
38.240        63
38.260        67
38.280        50
38.300        70
38.320        63
38.340        57
38.360        67
38.380        63
38.400        80
38.420        80
38.440        57
38.460        70
38.480        57
38.500        53
38.520        33
38.540        70
38.560        87
38.580        63
38.600        73
38.620        60
38.640        60
38.660        77
38.680        87
38.700        63
38.720        87
38.740        77
38.760        80
38.780        80
38.800        60
38.820        63
38.840        87
38.860        63
38.880        70
38.900        93
38.920        53
38.940        87
38.960        70
38.980        73
39.000       120
39.020        83
39.040        80
39.060       110
39.080       153
39.100       133
39.120        90
39.140        93
39.160        87
39.180        83
39.200        73
39.220        77
39.240        67
39.260        97
39.280        77
39.300        63
39.320        60
39.340        63
39.360        57
39.380        53
39.400        83
39.420        50
39.440        43
39.460        77
39.480        63
39.500        63
39.520        63
39.540        43
39.560        53
39.580        27
39.600        57
39.620        70
39.640        80
39.660        57
39.680        67
39.700        57
39.720        70
39.740        47
39.760        57
39.780        57
39.800        53
39.820        50
39.840        53
39.860        53
39.880        37
39.900        73
39.920        60
39.940        43
39.960        63
39.980        53
40.000        90
40.020        63
40.040        40
40.060        47
40.080        43
40.100        60
40.120        77
40.140        50
40.160        47
40.180        53
40.200        57
40.220        57
40.240        67
40.260        67
40.280        50
40.300        63
40.320        53
40.340        50
40.360        47
40.380        50
40.400        27
40.420        57
40.440        47
40.460        27
40.480        37
40.500        60
40.520        27
40.540        63
40.560        50
40.580        53
40.600        37
40.620        57
40.640        60
40.660        37
40.680        43
40.700        53
40.720        40
40.740        77
40.760        47
40.780        17
40.800        67
40.820        57
40.840        67
40.860        60
40.880        67
40.900        43
40.920        40
40.940        47
40.960        63
40.980        53
41.000        47
41.020        47
41.040        33
41.060        50
41.080        63
41.100        43
41.120        33
41.140        50
41.160        27
41.180        50
41.200        67
41.220        43
41.240        33
41.260        63
41.280        47
41.300        40
41.320        50
41.340        57
41.360        70
41.380        37
41.400        50
41.420        50
41.440        37
41.460        60
41.480        57
41.500        30
41.520        57
41.540        53
41.560        53
41.580        33
41.600        50
41.620        40
41.640        37
41.660        33
41.680        33
41.700        37
41.720        47
41.740        50
41.760        53
41.780        63
41.800        70
41.820        47
41.840        53
41.860        53
41.880        40
41.900        57
41.920        33
41.940        40
41.960        33
41.980        40
42.000        50
42.020        47
42.040        37
42.060        37
42.080        47
42.100        67
42.120        57
42.140        27
42.160        27
42.180        27
42.200        53
42.220        57
42.240        37
42.260        37
42.280        47
42.300        40
42.320        33
42.340        50
42.360        63
42.380        37
42.400        93
42.420        27
42.440        67
42.460        43
42.480        33
42.500        33
42.520        43
42.540        47
42.560        60
42.580        57
42.600        33
42.620        77
42.640        47
42.660        40
42.680        80
42.700        40
42.720        40
42.740        63
42.760        33
42.780        43
42.800        57
42.820        40
42.840        33
42.860        60
42.880        47
42.900        33
42.920        77
42.940        33
42.960        57
42.980        47
43.000        47
43.020        50
43.040        43
43.060        43
43.080        40
43.100        53
43.120        40
43.140        27
43.160        60
43.180        43
43.200        53
43.220        57
43.240        60
43.260        43
43.280        37
43.300        27
43.320        37
43.340        50
43.360        37
43.380        50
43.400        57
43.420        40
43.440        23
43.460        53
43.480        37
43.500        37
43.520        50
43.540        43
43.560        47
43.580        63
43.600        40
43.620        40
43.640        57
43.660        43
43.680        67
43.700        50
43.720        30
43.740        50
43.760        43
43.780        47
43.800        37
43.820        60
43.840        53
43.860        50
43.880        57
43.900        80
43.920        57
43.940        70
43.960        53
43.980        47
44.000        43
44.020        73
44.040        40
44.060        47
44.080        63
44.100        60
44.120       107
44.140       117
44.160        60
44.180       103
44.200        57
44.220        67
44.240        57
44.260        53
44.280       100
44.300        87
44.320        77
44.340        80
44.360        77
44.380        77
44.400        67
44.420        63
44.440        63
44.460        67
44.480        73
44.500        80
44.520        73
44.540        93
44.560        97
44.580        87
44.600        67
44.620        70
44.640        67
44.660        83
44.680       103
44.700        80
44.720        80
44.740        83
44.760       100
44.780        73
44.800       127
44.820       103
44.840        63
44.860       113
44.880       110
44.900        80
44.920        90
44.940        97
44.960        93
44.980        73
45.000        87
45.020       107
45.040        63
45.060       113
45.080       110
45.100       117
45.120       107
45.140       100
45.160       120
45.180       100
45.200       130
45.220       100
45.240       100
45.260        87
45.280        87
45.300        77
45.320        93
45.340       100
45.360        93
45.380       130
45.400       100
45.420        53
45.440        73
45.460        83
45.480        70
45.500        43
45.520        77
45.540       103
45.560        57
45.580        50
45.600        90
45.620        70
45.640        60
45.660        57
45.680        60
45.700        77
45.720        97
45.740        93
45.760        83
45.780        47
45.800        40
45.820        53
45.840        80
45.860        47
45.880        50
45.900        57
45.920        60
45.940        57
45.960        43
45.980        60
46.000        50
46.020        83
46.040        70
46.060        33
46.080        40
46.100        60
46.120        50
46.140        57
46.160        50
46.180        60
46.200        47
46.220        80
46.240        47
46.260        63
46.280        67
46.300        53
46.320        57
46.340        47
46.360        77
46.380        67
46.400        57
46.420        53
46.440        67
46.460        40
46.480        70
46.500        57
46.520        40
46.540        33
46.560        43
46.580        50
46.600        47
46.620        53
46.640        90
46.660        33
46.680        60
46.700        47
46.720        47
46.740        63
46.760        70
46.780        67
46.800        93
46.820        60
46.840       100
46.860        40
46.880        73
46.900       110
46.920        67
46.940        77
46.960        93
46.980        80
47.000        93
47.020        63
47.040        77
47.060        90
47.080       110
47.100       150
47.120       207
47.140       203
47.160       433
47.180       836
47.200      1040
47.220      1250
47.240      1166
47.260       810
47.280       410
47.300       247
47.320       177
47.340       153
47.360       150
47.380       160
47.400        50
47.420        93
47.440        87
47.460       113
47.480        73
47.500        70
47.520        87
47.540        73
47.560        60
47.580        60
47.600        90
47.620        53
47.640        40
47.660        77
47.680        53
47.700        57
47.720        37
47.740        83
47.760        60
47.780        47
47.800        90
47.820        60
47.840        50
47.860        47
47.880        50
47.900        57
47.920        40
47.940        50
47.960        67
47.980        73
48.000        63
48.020        53
48.040        37
48.060        70
48.080        43
48.100        43
48.120        77
48.140        70
48.160        43
48.180        47
48.200        53
48.220        47
48.240        47
48.260        67
48.280        47
48.300        67
48.320        53
48.340        37
48.360        37
48.380        73
48.400        80
48.420        20
48.440        40
48.460        33
48.480        67
48.500        57
48.520        70
48.540        50
48.560        47
48.580        37
48.600        30
48.620        40
48.640        67
48.660        57
48.680        50
48.700        53
48.720        67
48.740        43
48.760        53
48.780        53
48.800        67
48.820        63
48.840        33
48.860        37
48.880        43
48.900        63
48.920        57
48.940        37
48.960        33
48.980        67
49.000        47
49.020        50
49.040        40
49.060        40
49.080        27
49.100        37
49.120        53
49.140        47
49.160        37
49.180        47
49.200        83
49.220        37
49.240        23
49.260        43
49.280        40
49.300        33
49.320        43
49.340        43
49.360        37
49.380        37
49.400        30
49.420        37
49.440        40
49.460        67
49.480        43
49.500        37
49.520        40
49.540        67
49.560        57
49.580        30
49.600        30
49.620        50
49.640        30
49.660        47
49.680        57
49.700        63
49.720        40
49.740        33
49.760        37
49.780        50
49.800        40
49.820        53
49.840        43
49.860        33
49.880        27
49.900        43
49.920        50
49.940        77
49.960        80
49.980        37
50.000        23
50.020        37
50.040        60
50.060        47
50.080        53
50.100        43
50.120        50
50.140        63
50.160        40
50.180        40
50.200        47
50.220        37
50.240        37
50.260        57
50.280        23
50.300        33
50.320        37
50.340        50
50.360        50
50.380        63
50.400        60
50.420        50
50.440        43
50.460        30
50.480        30
50.500        73
50.520        50
50.540        33
50.560        47
50.580        60
50.600        80
50.620        87
50.640        77
50.660       147
50.680       147
50.700       233
50.720       297
50.740       330
50.760       297
50.780       320
50.800       270
50.820       370
50.840       380
50.860       370
50.880       317
50.900       320
50.920       320
50.940       300
50.960       340
50.980       357
51.000       387
51.020       370
51.040       337
51.060       303
51.080       367
51.100       350
51.120       297
51.140       360
51.160       350
51.180       360
51.200       300
51.220       370
51.240       323
51.260       350
51.280       360
51.300       337
51.320       340
51.340       350
51.360       380
51.380       350
51.400       343
51.420       373
51.440       363
51.460       333
51.480       353
51.500       423
51.520       367
51.540       333
51.560       353
51.580       347
51.600       337
51.620       333
51.640       363
51.660       317
51.680       377
51.700       340
51.720       413
51.740       426
51.760       450
51.780       407
51.800       393
51.820       343
51.840       466
51.860       446
51.880       400
51.900       500
51.920       463
51.940       526
51.960       446
51.980       383
52.000       403
52.020       536
52.040       583
52.060       446
52.080       460
52.100       443
52.120       530
52.140       670
52.160       696
52.180       706
52.200       673
52.220       776
52.240       840
52.260       866
52.280      1060
52.300      1456
52.320      1783
52.340      2362
52.360      2606
52.380      3155
52.400      3532
52.420      4495
52.440      5395
52.460      6651
52.480      7754
52.500      9913
52.520     13784
52.540     22861
52.560     49900
52.580    103075
52.600    139241
52.620    144126
52.640    121651
52.660     68369
52.680     35296
52.700     37455
52.720     60946
52.740     81004
52.760     83970
52.780     68902
52.800     36969
52.820     15920
52.840      8747
52.860      6088
52.880      4978
52.900      4042
52.920      3542
52.940      2516
52.960      1819
52.980      1443
53.000      1329
53.020      1120
53.040      1086
53.060       920
53.080       850
53.100       870
53.120       760
53.140       643
53.160       620
53.180       603
53.200       666
53.220       693
53.240       593
53.260       573
53.280       546
53.300       590
53.320       500
53.340       546
53.360       520
53.380       473
53.400       553
53.420       456
53.440       473
53.460       433
53.480       453
53.500       483
53.520       446
53.540       410
53.560       426
53.580       373
53.600       353
53.620       340
53.640       390
53.660       397
53.680       407
53.700       403
53.720       320
53.740       327
53.760       370
53.780       320
53.800       283
53.820       310
53.840       300
53.860       290
53.880       327
53.900       303
53.920       277
53.940       307
53.960       287
53.980       340
54.000       347
54.020       283
54.040       283
54.060       300
54.080       310
54.100       280
54.120       287
54.140       290
54.160       317
54.180       300
54.200       253
54.220       300
54.240       310
54.260       250
54.280       257
54.300       260
54.320       230
54.340       313
54.360       240
54.380       280
54.400       267
54.420       257
54.440       207
54.460       293
54.480       270
54.500       237
54.520       200
54.540       270
54.560       203
54.580       277
54.600       253
54.620       230
54.640       250
54.660       237
54.680       223
54.700       257
54.720       270
54.740       257
54.760       243
54.780       213
54.800       247
54.820       283
54.840       243
54.860       257
54.880       287
54.900       237
54.920       227
54.940       223
54.960       180
54.980       230
55.000       243
55.020       230
55.040       200
55.060       233
55.080       210
55.100       220
55.120       263
55.140       260
55.160       190
55.180       223
55.200       223
55.220       237
55.240       193
55.260       247
55.280       233
55.300       253
55.320       207
55.340       233
55.360       197
55.380       240
55.400       237
55.420       253
55.440       237
55.460       213
55.480       220
55.500       227
55.520       233
55.540       297
55.560       170
55.580       247
55.600       227
55.620       183
55.640       197
55.660       163
55.680       237
55.700       163
55.720       187
55.740       133
55.760       200
55.780       190
55.800       223
55.820       217
55.840       170
55.860       190
55.880       177
55.900       173
55.920       233
55.940       200
55.960       187
55.980       193
56.000       203
56.020       147
56.040       217
56.060       210
56.080       177
56.100       210
56.120       190
56.140       193
56.160       190
56.180       200
56.200       227
56.220       197
56.240       163
56.260       170
56.280       173
56.300       153
56.320       160
56.340       203
56.360       157
56.380       247
56.400       193
56.420       203
56.440       153
56.460       183
56.480       157
56.500       133
56.520       210
56.540       143
56.560       187
56.580       177
56.600       137
56.620       223
56.640       183
56.660       160
56.680       143
56.700       183
56.720       160
56.740       147
56.760       177
56.780       163
56.800       120
56.820       117
56.840       187
56.860       153
56.880       153
56.900       160
56.920       160
56.940       193
56.960       143
56.980       200
57.000       170
57.020       187
57.040       150
57.060       120
57.080       117
57.100       163
57.120       163
57.140       160
57.160       193
57.180       137
57.200       137
57.220       147
57.240       160
57.260       157
57.280       183
57.300       153
57.320       140
57.340       153
57.360       173
57.380       137
57.400       163
57.420       130
57.440       133
57.460       130
57.480       130
57.500       143
57.520       130
57.540       150
57.560       160
57.580       130
57.600       150
57.620       153
57.640       173
57.660       140
57.680       153
57.700       137
57.720       197
57.740       140
57.760       167
57.780       157
57.800       143
57.820       150
57.840       170
57.860       167
57.880       153
57.900       170
57.920       123
57.940       133
57.960       137
57.980       140
58.000       153
58.020       167
58.040       153
58.060       133
58.080       143
58.100       120
58.120       147
58.140       137
58.160       117
58.180        93
58.200       160
58.220       160
58.240       167
58.260        93
58.280       180
58.300       120
58.320       133
58.340       157
58.360       127
58.380       117
58.400       110
58.420       103
58.440       133
58.460       143
58.480       130
58.500       147
58.520       113
58.540       123
58.560       117
58.580       140
58.600       117
58.620       190
58.640       123
58.660       150
58.680       140
58.700       127
58.720       113
58.740       147
58.760       153
58.780       140
58.800       143
58.820       173
58.840       100
58.860       127
58.880        73
58.900        97
58.920       137
58.940       103
58.960       157
58.980        80
59.000       123
59.020       103
59.040       147
59.060       107
59.080       153
59.100       140
59.120       117
59.140       100
59.160       133
59.180       123
59.200       113
59.220       117
59.240        90
59.260       120
59.280       137
59.300       113
59.320       110
59.340       123
59.360       123
59.380       130
59.400       130
59.420       160
59.440       107
59.460        77
59.480       137
59.500       113
59.520       110
59.540       100
59.560       123
59.580       110
59.600       130
59.620       120
59.640       153
59.660       107
59.680       173
59.700       113
59.720       103
59.740       177
59.760       133
59.780       133
59.800       127
59.820        97
59.840       153
59.860       133
59.880       120
59.900       173
59.920       113
59.940       120
59.960        97
59.980       140
60.000        90
60.020       133
60.040       143
60.060       120
60.080       127
60.100       127
60.120       127
60.140        83
60.160       120
60.180        97
60.200       110
60.220       103
60.240       110
60.260       137
60.280       127
60.300       100
60.320       107
60.340        73
60.360       130
60.380       117
60.400       123
60.420       123
60.440        97
60.460       110
60.480       110
60.500       117
60.520       110
60.540       100
60.560       137
60.580        77
60.600       110
60.620       130
60.640        77
60.660        80
60.680       143
60.700       130
60.720       123
60.740        97
60.760       123
60.780       120
60.800       100
60.820       147
60.840        97
60.860       103
60.880       100
60.900       130
60.920        67
60.940       110
60.960       117
60.980        97
61.000       100
61.020        77
61.040       103
61.060       110
61.080       120
61.100       103
61.120       103
61.140       120
61.160        67
61.180        87
61.200       143
61.220       137
61.240        93
61.260       133
61.280       123
61.300       110
61.320       130
61.340        73
61.360       120
61.380       110
61.400       107
61.420       123
61.440       113
61.460       110
61.480        80
61.500       110
61.520       113
61.540        97
61.560       100
61.580       110
61.600        63
61.620        97
61.640       110
61.660        70
61.680       130
61.700        83
61.720       120
61.740        90
61.760       100
61.780       110
61.800        67
61.820        87
61.840        73
61.860       100
61.880        67
61.900        87
61.920       130
61.940        87
61.960        77
61.980        90
62.000        53
62.020        73
62.040       103
62.060        90
62.080       100
62.100        73
62.120        93
62.140        93
62.160        87
62.180       120
62.200       100
62.220        97
62.240        70
62.260       120
62.280       110
62.300        97
62.320       107
62.340        90
62.360        90
62.380        93
62.400       103
62.420       100
62.440       110
62.460        63
62.480        93
62.500        93
62.520        90
62.540        97
62.560       107
62.580        80
62.600        80
62.620        93
62.640        70
62.660        87
62.680        83
62.700        77
62.720        87
62.740       100
62.760        97
62.780        60
62.800        67
62.820       107
62.840        77
62.860        67
62.880       100
62.900       103
62.920        63
62.940        73
62.960       107
62.980        73
63.000       100
63.020       103
63.040        63
63.060        77
63.080        93
63.100        97
63.120       103
63.140       107
63.160        87
63.180        77
63.200        90
63.220        77
63.240       103
63.260       120
63.280        63
63.300       100
63.320        90
63.340        93
63.360        97
63.380        80
63.400       120
63.420       123
63.440        83
63.460        97
63.480        57
63.500        67
63.520        33
63.540       100
63.560        70
63.580        77
63.600        57
63.620        63
63.640        70
63.660        83
63.680        57
63.700        57
63.720       107
63.740        87
63.760        80
63.780        60
63.800        60
63.820        90
63.840       100
63.860        90
63.880        97
63.900       100
63.920       120
63.940        93
63.960        83
63.980        77
64.000        73
64.020        87
64.040        80
64.060       120
64.080        53
64.100        63
64.120        63
64.140        67
64.160        97
64.180        87
64.200        70
64.220       117
64.240        97
64.260        70
64.280        57
64.300        67
64.320        67
64.340        77
64.360        80
64.380        73
64.400        50
64.420        83
64.440        83
64.460        83
64.480        97
64.500        33
64.520        93
64.540        47
64.560        80
64.580       100
64.600        63
64.620        93
64.640        90
64.660        90
64.680        60
64.700        77
64.720        47
64.740        53
64.760        57
64.780        53
64.800        63
64.820        57
64.840        43
64.860        87
64.880       117
64.900        77
64.920        63
64.940        80
64.960        97
64.980        93
65.000        77
65.020        70
65.040        77
65.060       110
65.080        83
65.100        77
65.120        60
65.140        90
65.160        83
65.180        80
65.200        83
65.220       103
65.240        67
65.260        63
65.280        60
65.300        60
65.320        83
65.340        90
65.360        73
65.380        90
65.400        80
65.420        80
65.440        60
65.460        53
65.480        80
65.500        90
65.520        77
65.540        93
65.560        73
65.580        53
65.600        77
65.620        90
65.640        53
65.660        70
65.680        57
65.700        43
65.720        70
65.740        90
65.760        60
65.780        80
65.800        60
65.820        93
65.840        77
65.860        83
65.880        80
65.900        70
65.920        53
65.940        63
65.960        70
65.980        63
66.000        57
66.020        77
66.040        93
66.060        67
66.080        60
66.100        60
66.120        67
66.140        70
66.160        87
66.180        90
66.200        63
66.220        70
66.240        70
66.260        47
66.280        50
66.300        77
66.320        60
66.340        70
66.360        53
66.380        73
66.400        67
66.420        37
66.440        53
66.460        47
66.480        70
66.500        73
66.520        30
66.540        33
66.560        60
66.580        90
66.600        60
66.620        57
66.640        57
66.660        60
66.680        50
66.700        67
66.720        63
66.740        80
66.760        60
66.780        57
66.800        53
66.820        60
66.840        70
66.860        77
66.880        57
66.900        57
66.920        50
66.940        70
66.960        73
66.980        53
67.000        63
67.020        63
67.040        50
67.060        77
67.080        40
67.100        43
67.120        60
67.140        73
67.160        63
67.180        80
67.200        30
67.220        67
67.240        50
67.260        73
67.280        43
67.300        50
67.320        40
67.340        63
67.360        50
67.380        60
67.400        47
67.420        40
67.440        83
67.460        80
67.480        47
67.500        53
67.520        63
67.540        63
67.560        50
67.580        47
67.600        23
67.620        40
67.640        60
67.660        43
67.680        53
67.700        73
67.720        63
67.740        77
67.760        73
67.780        83
67.800        63
67.820        67
67.840        37
67.860        43
67.880        50
67.900        50
67.920        70
67.940        53
67.960        53
67.980        47
68.000        53
68.020        30
68.040        67
68.060        43
68.080        60
68.100        73
68.120        63
68.140        37
68.160        43
68.180        67
68.200        57
68.220        60
68.240        60
68.260        63
68.280        73
68.300        63
68.320        43
68.340        67
68.360        30
68.380        60
68.400        40
68.420        47
68.440        57
68.460        63
68.480        60
68.500        53
68.520        33
68.540        57
68.560        73
68.580        37
68.600        43
68.620        43
68.640        47
68.660        53
68.680        53
68.700        87
68.720        70
68.740        47
68.760        47
68.780        47
68.800        37
68.820        53
68.840        40
68.860        40
68.880        33
68.900        50
68.920        50
68.940        40
68.960        53
68.980        37
69.000        17
69.020        47
69.040        40
69.060        37
69.080        37
69.100        67
69.120        40
69.140        33
69.160        43
69.180        37
69.200        47
69.220        60
69.240        53
69.260        40
69.280        63
69.300        37
69.320        70
69.340        67
69.360        40
69.380        60
69.400        70
69.420        53
69.440        67
69.460        50
69.480        23
69.500        20
69.520        43
69.540        37
69.560        70
69.580        30
69.600        50
69.620        33
69.640        40
69.660        57
69.680        37
69.700        43
69.720        17
69.740        40
69.760        57
69.780        43
69.800        43
69.820        43
69.840        30
69.860        67
69.880        43
69.900        50
69.920        57
69.940        47
69.960        37
69.980        60
70.000        63
70.020        47
70.040        73
70.060        50
70.080        73
70.100        57
70.120        73
70.140        37
70.160        60
70.180        53
70.200        50
70.220        50
70.240        43
70.260        33
70.280        53
70.300        50
70.320        63
70.340        43
70.360        47
70.380        50
70.400        40
70.420        87
70.440        57
70.460        50
70.480        37
70.500        60
70.520        63
70.540        37
70.560        47
70.580        23
70.600        47
70.620        57
70.640        37
70.660        63
70.680        37
70.700        63
70.720        40
70.740        40
70.760        30
70.780        30
70.800        37
70.820        43
70.840        50
70.860        43
70.880        47
70.900        53
70.920        37
70.940        43
70.960        57
70.980        40
71.000        50
71.020        47
71.040        20
71.060        33
71.080        57
71.100        57
71.120        57
71.140        57
71.160        67
71.180        37
71.200        47
71.220        47
71.240        43
71.260        40
71.280        30
71.300        37
71.320        13
71.340        60
71.360        33
71.380        40
71.400        40
71.420        30
71.440        50
71.460        20
71.480        40
71.500        30
71.520        30
71.540        40
71.560        53
71.580        30
71.600        57
71.620        20
71.640        23
71.660        33
71.680        43
71.700        43
71.720        30
71.740        47
71.760        53
71.780        50
71.800        40
71.820        37
71.840        53
71.860        37
71.880        27
71.900        20
71.920        50
71.940        40
71.960        50
71.980        20
72.000        23
72.020        37
72.040        33
72.060        30
72.080        40
72.100        57
72.120        43
72.140        37
72.160        63
72.180        40
72.200        30
72.220        37
72.240        33
72.260        27
72.280        33
72.300        17
72.320        40
72.340        50
72.360        33
72.380        30
72.400        30
72.420        60
72.440        30
72.460        17
72.480        37
72.500        47
72.520        30
72.540        47
72.560        30
72.580        30
72.600        33
72.620        47
72.640        37
72.660        40
72.680        27
72.700        47
72.720        37
72.740        47
72.760        50
72.780        43
72.800        23
72.820        57
72.840        50
72.860        23
72.880        43
72.900        43
72.920        33
72.940        27
72.960        30
72.980        33
73.000        43
73.020        33
73.040        33
73.060        23
73.080        30
73.100        33
73.120        27
73.140        33
73.160        30
73.180        33
73.200        17
73.220        37
73.240        40
73.260        33
73.280        37
73.300        47
73.320        30
73.340        20
73.360        40
73.380        23
73.400        30
73.420        27
73.440        30
73.460        17
73.480        47
73.500        40
73.520        47
73.540        43
73.560        27
73.580        17
73.600        33
73.620        40
73.640        53
73.660        40
73.680        43
73.700        40
73.720        60
73.740        80
73.760        67
73.780        97
73.800        83
73.820        97
73.840        60
73.860        53
73.880        97
73.900        53
73.920        50
73.940        33
73.960        50
73.980        53
74.000        57
74.020        43
74.040        23
74.060        40
74.080        33
74.100        47
74.120        50
74.140        47
74.160        30
74.180        30
74.200        33
74.220        40
74.240        50
74.260        23
74.280        23
74.300        23
74.320        37
74.340        53
74.360        20
74.380        27
74.400        37
74.420        17
74.440        33
74.460        33
74.480        40
74.500        40
74.520         7
74.540        27
74.560        33
74.580        57
74.600        37
74.620        37
74.640        27
74.660        23
74.680        30
74.700        50
74.720        27
74.740        27
74.760        57
74.780        33
74.800        27
74.820        23
74.840        33
74.860        37
74.880        30
74.900        50
74.920        27
74.940        27
74.960        30
74.980        60
75.000        60
