20.000        17
20.020        17
20.040        63
20.060        37
20.080        30
20.100        50
20.120        60
20.140        33
20.160        40
20.180        50
20.200        43
20.220        47
20.240        17
20.260        33
20.280        50
20.300        37
20.320        30
20.340        37
20.360        37
20.380        40
20.400        47
20.420        53
20.440        30
20.460        37
20.480        40
20.500        23
20.520        43
20.540        53
20.560        27
20.580        50
20.600        37
20.620        37
20.640        40
20.660        33
20.680        57
20.700        47
20.720        17
20.740        40
20.760        23
20.780        40
20.800        37
20.820        47
20.840        60
20.860        43
20.880        43
20.900        23
20.920        37
20.940        50
20.960        47
20.980        33
21.000        33
21.020        40
21.040        47
21.060        50
21.080        67
21.100        43
21.120        33
21.140        33
21.160        30
21.180        57
21.200        57
21.220        50
21.240        67
21.260        50
21.280        33
21.300        50
21.320        40
21.340        70
21.360        60
21.380        30
21.400        47
21.420        43
21.440        47
21.460        47
21.480        23
21.500        57
21.520        27
21.540        70
21.560        50
21.580        50
21.600        40
21.620        70
21.640        37
21.660        50
21.680        50
21.700        50
21.720        50
21.740        77
21.760        33
21.780        43
21.800        47
21.820        20
21.840        47
21.860        43
21.880        37
21.900        60
21.920        50
21.940        40
21.960        63
21.980        57
22.000        30
22.020        60
22.040        47
22.060        63
22.080        50
22.100        50
22.120        63
22.140        57
22.160        63
22.180        70
22.200        73
22.220        33
22.240        63
22.260        60
22.280        63
22.300        50
22.320        43
22.340        60
22.360        53
22.380        57
22.400        53
22.420        40
22.440        50
22.460        53
22.480        37
22.500        70
22.520        43
22.540        50
22.560        53
22.580        53
22.600        47
22.620        47
22.640        70
22.660        53
22.680        57
22.700        43
22.720        63
22.740        50
22.760        53
22.780        50
22.800        47
22.820        33
22.840        50
22.860        57
22.880        37
22.900        57
22.920        33
22.940        37
22.960        40
22.980        33
23.000        47
23.020        37
23.040        40
23.060        43
23.080        30
23.100        50
23.120        67
23.140        60
23.160        43
23.180        40
23.200        37
23.220        30
23.240        50
23.260        40
23.280        30
23.300        47
23.320        40
23.340        27
23.360        40
23.380        30
23.400        20
23.420        37
23.440        20
23.460        30
23.480        23
23.500        37
23.520        47
23.540        63
23.560        23
23.580        47
23.600        27
23.620        30
23.640        37
23.660        20
23.680        37
23.700        43
23.720        30
23.740        37
23.760        43
23.780        30
23.800        30
23.820        40
23.840        17
23.860        33
23.880        20
23.900        33
23.920        23
23.940        43
23.960        47
23.980        33
24.000        17
24.020        17
24.040        37
24.060        23
24.080        33
24.100        50
24.120        33
24.140        47
24.160        20
24.180        30
24.200        30
24.220        43
24.240        27
24.260        13
24.280        30
24.300        40
24.320        20
24.340        20
24.360        37
24.380        23
24.400        27
24.420        60
24.440        33
24.460        37
24.480        33
24.500        57
24.520        50
24.540        37
24.560        27
24.580        37
24.600        20
24.620        33
24.640        37
24.660        40
24.680        23
24.700        33
24.720        37
24.740        50
24.760        53
24.780        33
24.800        57
24.820        40
24.840        60
24.860        63
24.880        73
24.900        37
24.920        53
24.940        47
24.960        53
24.980        53
25.000        40
25.020        27
25.040        57
25.060        43
25.080        43
25.100        60
25.120        60
25.140        43
25.160        63
25.180        37
25.200        57
25.220        83
25.240        53
25.260        57
25.280        40
25.300        60
25.320        87
25.340        57
25.360        60
25.380        77
25.400       130
25.420        87
25.440       113
25.460       127
25.480       143
25.500       220
25.520       260
25.540       407
25.560       786
25.580      1653
25.600      2712
25.620      3432
25.640      3442
25.660      3332
25.680      2806
25.700      2542
25.720      2332
25.740      1899
25.760      1343
25.780       983
25.800       776
25.820       636
25.840       363
25.860       203
25.880       120
25.900        73
25.920        93
25.940        53
25.960        83
25.980        67
26.000        73
26.020        80
26.040        83
26.060        57
26.080        37
26.100        30
26.120        60
26.140        53
26.160        30
26.180        40
26.200        40
26.220        37
26.240        57
26.260        70
26.280        63
26.300        33
26.320        63
26.340        33
26.360        53
26.380        37
26.400        43
26.420        20
26.440        37
26.460        27
26.480        57
26.500        37
26.520        63
26.540        43
26.560        43
26.580        43
26.600        73
26.620        43
26.640        33
26.660        37
26.680        43
26.700        33
26.720        40
26.740        50
26.760        37
26.780        67
26.800        13
26.820        47
26.840        37
26.860        33
26.880        43
26.900        67
26.920        37
26.940        60
26.960        60
26.980        33
27.000        50
27.020        50
27.040        30
27.060        33
27.080        30
27.100        23
27.120        40
27.140        40
27.160        30
27.180        37
27.200        43
27.220        30
27.240        30
27.260        43
27.280        50
27.300        53
27.320        47
27.340        47
27.360        40
27.380        30
27.400        30
27.420        37
27.440        27
27.460        53
27.480        30
27.500        47
27.520        40
27.540        40
27.560        43
27.580        57
27.600        50
27.620        43
27.640        40
27.660        43
27.680        53
27.700        60
27.720        77
27.740        40
27.760        70
27.780        30
27.800        43
27.820        77
27.840        37
27.860        50
27.880        50
27.900        60
27.920        23
27.940        23
27.960        70
27.980        20
28.000        57
28.020        43
28.040        40
28.060        30
28.080        43
28.100        60
28.120        20
28.140        53
28.160        47
28.180        43
28.200        23
28.220        23
28.240        57
28.260        43
28.280        57
28.300        27
28.320        40
28.340        60
28.360        30
28.380        63
28.400        43
28.420        30
28.440        37
28.460        47
28.480        67
28.500        47
28.520        23
28.540        47
28.560        30
28.580        57
28.600        33
28.620        40
28.640        53
28.660        37
28.680        50
28.700        67
28.720        37
28.740        47
28.760        37
28.780        43
28.800        50
28.820        57
28.840        43
28.860        37
28.880        40
28.900        63
28.920        40
28.940        30
28.960        33
28.980        53
29.000        47
29.020        43
29.040        50
29.060        47
29.080        43
29.100        50
29.120        40
29.140        33
29.160        77
29.180        37
29.200        43
29.220        40
29.240        73
29.260        50
29.280        43
29.300        53
29.320        43
29.340        57
29.360        57
29.380        60
29.400        47
29.420        40
29.440        33
29.460        53
29.480        23
29.500        30
29.520        43
29.540        43
29.560        50
29.580        50
29.600        43
29.620        33
29.640        43
29.660        50
29.680        40
29.700        20
29.720        70
29.740        20
29.760        53
29.780        40
29.800        40
29.820        37
29.840        37
29.860        43
29.880        33
29.900        53
29.920        60
29.940        43
29.960        70
29.980        50
30.000        53
30.020        43
30.040        37
30.060        37
30.080        40
30.100        37
30.120        47
30.140        57
30.160        80
30.180        27
30.200        47
30.220        43
30.240        50
30.260        33
30.280        57
30.300        37
30.320        67
30.340        40
30.360        40
30.380        50
30.400        40
30.420        43
30.440        60
30.460        40
30.480        63
30.500        40
30.520        63
30.540        23
30.560        50
30.580        67
30.600        67
30.620        57
30.640        43
30.660        43
30.680        67
30.700        33
30.720        53
30.740        50
30.760        53
30.780        57
30.800        40
30.820        33
30.840        40
30.860        50
30.880        47
30.900        47
30.920        70
30.940        53
30.960        53
30.980        33
31.000        20
31.020        50
31.040        30
31.060        40
31.080        53
31.100        50
31.120        77
31.140        47
31.160        40
31.180        33
31.200        47
31.220        53
31.240        67
31.260        67
31.280        57
31.300        67
31.320        57
31.340        53
31.360        73
31.380        43
31.400        63
31.420        70
31.440        43
31.460        53
31.480        80
31.500        67
31.520        77
31.540        77
31.560       100
31.580        97
31.600        93
31.620        83
31.640        87
31.660        60
31.680        83
31.700        57
31.720        93
31.740        67
31.760        87
31.780        40
31.800        83
31.820        90
31.840        60
31.860        87
31.880        73
31.900        63
31.920        33
31.940        70
31.960        77
31.980        60
32.000        80
32.020        57
32.040        33
32.060        57
32.080        63
32.100        50
32.120        73
32.140        43
32.160        50
32.180        47
32.200        57
32.220        73
32.240        47
32.260        57
32.280        43
32.300        90
32.320        57
32.340        37
32.360        40
32.380        40
32.400        50
32.420        57
32.440        27
32.460        57
32.480       103
32.500        63
32.520        40
32.540        43
32.560        50
32.580        67
32.600        60
32.620        43
32.640        63
32.660        63
32.680        73
32.700        37
32.720        77
32.740        30
32.760        47
32.780        63
32.800        50
32.820        40
32.840        70
32.860        40
32.880        60
32.900        50
32.920        70
32.940        37
32.960        53
32.980        33
33.000        87
33.020        77
33.040        67
33.060        33
33.080        73
33.100        60
33.120        67
33.140        40
33.160        73
33.180        33
33.200        33
33.220        57
33.240        50
33.260        57
33.280        77
33.300        43
33.320        67
33.340        53
33.360        53
33.380        60
33.400        60
33.420        50
33.440        43
33.460        57
33.480        57
33.500        63
33.520        63
33.540        60
33.560        53
33.580        77
33.600        43
33.620        90
33.640        67
33.660        47
33.680        73
33.700        77
33.720        47
33.740        60
33.760        37
33.780        67
33.800        30
33.820        67
33.840        53
33.860        50
33.880        67
33.900        43
33.920        77
33.940        53
33.960        83
33.980        83
34.000        37
34.020        43
34.040        40
34.060        80
34.080        50
34.100        53
34.120        60
34.140        67
34.160        40
34.180        33
34.200        50
34.220        57
34.240        63
34.260        53
34.280        47
34.300        77
34.320        43
34.340        60
34.360        53
34.380        47
34.400        20
34.420        50
34.440        73
34.460        53
34.480        33
34.500        53
34.520        63
34.540        63
34.560        43
34.580        50
34.600        53
34.620        23
34.640        53
34.660        43
34.680        47
34.700        63
34.720        37
34.740        37
34.760        67
34.780        53
34.800        57
34.820        63
34.840        47
34.860        53
34.880        67
34.900        60
34.920        63
34.940        47
34.960        57
34.980        47
35.000        43
35.020        53
35.040        43
35.060        63
35.080        43
35.100        47
35.120        57
35.140        63
35.160        63
35.180        37
35.200        60
35.220        73
35.240        50
35.260        57
35.280        40
35.300        43
35.320        47
35.340        47
35.360        77
35.380        53
35.400        37
35.420        60
35.440        67
35.460        63
35.480        40
35.500        47
35.520        37
35.540        43
35.560        53
35.580        50
35.600        60
35.620        33
35.640        60
35.660        50
35.680        60
35.700        67
35.720        53
35.740        57
35.760        23
35.780        73
35.800        43
35.820        43
35.840        63
35.860        43
35.880        77
35.900        50
35.920        47
35.940        47
35.960        53
35.980        53
36.000        53
36.020        43
36.040        80
36.060        60
36.080        40
36.100        53
36.120        37
36.140        33
36.160        53
36.180        60
36.200        47
36.220        43
36.240        40
36.260        30
36.280        67
36.300        33
36.320        23
36.340        40
36.360        73
36.380        60
36.400        53
36.420        37
36.440        83
36.460        43
36.480        37
36.500        53
36.520        50
36.540        47
36.560        30
36.580        60
36.600        50
36.620        33
36.640        33
36.660        33
36.680        40
36.700        43
36.720        47
36.740        40
36.760        47
36.780        97
36.800        40
36.820        73
36.840        50
36.860        50
36.880        57
36.900        47
36.920        47
36.940        37
36.960        47
36.980        37
37.000        20
37.020        70
37.040        70
37.060        43
37.080        50
37.100        33
37.120        40
37.140        63
37.160        47
37.180        73
37.200        60
37.220        70
37.240        67
37.260        63
37.280        73
37.300        47
37.320        37
37.340        57
37.360        50
37.380        30
37.400        50
37.420        73
37.440        30
37.460        63
37.480        33
37.500        70
37.520        47
37.540        37
37.560        50
37.580        23
37.600        57
37.620        47
37.640        33
37.660        57
37.680        57
37.700        57
37.720        47
37.740        30
37.760        67
37.780        57
37.800        30
37.820        40
37.840        57
37.860        40
37.880        80
37.900        37
37.920        40
37.940        47
37.960        30
37.980        57
38.000        33
38.020        40
38.040        40
38.060        47
38.080        43
38.100        37
38.120        40
38.140        53
38.160        43
38.180        57
38.200        57
38.220        33
38.240        37
38.260        27
38.280        47
38.300        53
38.320        47
38.340        50
38.360        70
38.380        43
38.400        47
38.420        57
38.440        53
38.460        63
38.480        40
38.500        47
38.520        43
38.540        47
38.560        63
38.580        40
38.600        67
38.620        47
38.640        43
38.660        50
38.680        60
38.700        77
38.720        50
38.740        80
38.760        93
38.780        50
38.800        93
38.820        40
38.840        80
38.860        77
38.880        67
38.900        63
38.920        67
38.940        63
38.960        60
38.980        83
39.000        80
39.020       100
39.040        80
39.060        70
39.080        77
39.100        80
39.120        83
39.140       100
39.160        87
39.180        63
39.200        73
39.220        70
39.240        93
39.260        97
39.280        50
39.300        50
39.320        87
39.340        70
39.360        43
39.380        60
39.400        73
39.420        57
39.440        43
39.460        53
39.480        73
39.500        47
39.520        63
39.540        67
39.560        40
39.580        70
39.600        63
39.620        37
39.640        60
39.660        43
39.680        57
39.700        57
39.720        53
39.740        33
39.760        70
39.780        47
39.800        37
39.820        63
39.840        80
39.860        37
39.880        63
39.900        43
39.920        33
39.940        23
39.960        53
39.980        27
40.000        43
40.020        43
40.040        53
40.060        67
40.080        53
40.100        37
40.120        17
40.140        50
40.160        43
40.180        40
40.200        50
40.220        30
40.240        37
40.260        57
40.280        37
40.300        30
40.320        50
40.340        60
40.360        43
40.380        40
40.400        50
40.420        20
40.440        47
40.460        53
40.480        33
40.500        30
40.520        40
40.540        40
40.560        47
40.580        40
40.600        23
40.620        30
40.640        47
40.660        63
40.680        53
40.700        47
40.720        53
40.740        43
40.760        43
40.780        27
40.800        70
40.820        43
40.840        40
40.860        37
40.880        27
40.900        60
40.920        40
40.940        40
40.960        27
40.980        33
41.000        53
41.020        37
41.040        47
41.060        40
41.080        53
41.100        40
41.120        47
41.140        57
41.160        43
41.180        43
41.200        43
41.220        40
41.240        37
41.260        23
41.280        50
41.300        27
41.320        57
41.340        50
41.360        30
41.380        43
41.400        33
41.420        33
41.440        57
41.460        33
41.480        50
41.500        23
41.520        30
41.540        43
41.560        53
41.580        50
41.600        40
41.620        47
41.640        50
41.660        40
41.680        67
41.700        40
41.720        70
41.740        27
41.760        20
41.780        43
41.800        57
41.820        43
41.840        57
41.860        33
41.880        37
41.900        67
41.920        33
41.940        43
41.960        67
41.980        43
42.000        47
42.020        63
42.040        37
42.060        37
42.080        37
42.100        43
42.120        33
42.140        50
42.160        57
42.180        53
42.200        47
42.220        60
42.240        43
42.260        43
42.280        47
42.300        37
42.320        27
42.340        27
42.360        30
42.380        70
42.400        67
42.420        17
42.440        47
42.460        50
42.480        37
42.500        27
42.520        37
42.540        33
42.560        23
42.580        57
42.600        57
42.620        50
42.640        33
42.660        57
42.680        43
42.700        33
42.720        37
42.740        33
42.760        33
42.780        27
42.800        37
42.820        13
42.840        40
42.860        70
42.880        33
42.900        50
42.920        37
42.940        53
42.960        20
42.980        43
43.000        47
43.020        50
43.040        57
43.060        43
43.080        53
43.100        40
43.120        50
43.140        63
43.160        63
43.180        53
43.200        20
43.220        50
43.240        63
43.260        47
43.280        67
43.300        27
43.320        47
43.340        37
43.360        30
43.380        33
43.400        27
43.420        30
43.440        40
43.460        47
43.480        40
43.500        53
43.520        27
43.540        30
43.560        47
43.580        63
43.600        40
43.620        40
43.640        27
43.660        33
43.680        57
43.700        67
43.720        23
43.740        50
43.760        50
43.780        27
43.800        50
43.820        53
43.840        27
43.860        33
43.880        57
43.900        73
43.920        37
43.940        53
43.960        43
43.980        33
44.000        30
44.020        63
44.040        47
44.060        37
44.080        73
44.100        63
44.120        43
44.140        83
44.160        60
44.180        50
44.200        70
44.220        47
44.240        37
44.260        40
44.280        40
44.300        87
44.320        37
44.340        40
44.360        67
44.380        77
44.400        47
44.420        73
44.440        73
44.460        70
44.480        53
44.500        30
44.520        50
44.540        70
44.560        67
44.580        63
44.600        60
44.620        77
44.640        63
44.660        87
44.680        83
44.700        83
44.720       103
44.740        73
44.760        53
44.780        67
44.800        73
44.820        83
44.840       103
44.860       110
44.880        83
44.900        57
44.920       100
44.940        90
44.960        97
44.980        83
45.000        67
45.020       103
45.040        83
45.060       100
45.080        93
45.100        93
45.120       103
45.140        87
45.160        80
45.180       113
45.200       113
45.220        83
45.240       117
45.260       127
45.280        77
45.300        73
45.320        90
45.340        93
45.360       117
45.380       130
45.400        90
45.420        60
45.440        93
45.460        80
45.480        93
45.500        93
45.520       130
45.540       107
45.560        97
45.580       100
45.600        67
45.620        57
45.640        93
45.660        63
45.680        83
45.700        97
45.720       110
45.740        67
45.760        80
45.780        60
45.800        50
45.820        80
45.840        60
45.860        70
45.880        70
45.900        60
45.920        70
45.940        73
45.960        60
45.980        67
46.000        67
46.020        70
46.040        53
46.060        60
46.080        50
46.100        33
46.120        53
46.140        47
46.160        93
46.180        50
46.200        63
46.220        47
46.240        43
46.260        50
46.280        73
46.300        53
46.320        77
46.340        47
46.360        70
46.380        33
46.400        33
46.420        33
46.440        47
46.460        27
46.480        47
46.500        23
46.520        53
46.540        57
46.560        63
46.580        80
46.600        67
46.620        70
46.640        53
46.660        57
46.680        37
46.700        50
46.720        60
46.740        63
46.760        70
46.780        57
46.800        57
46.820        97
46.840        80
46.860        67
46.880        83
46.900        60
46.920        87
46.940        60
46.960        83
46.980        53
47.000        77
47.020        77
47.040        77
47.060        70
47.080        73
47.100        83
47.120        63
47.140        97
47.160       150
47.180       213
47.200       310
47.220       576
47.240       836
47.260       880
47.280       743
47.300       490
47.320       290
47.340       207
47.360       117
47.380       117
47.400       120
47.420        67
47.440        67
47.460       103
47.480        53
47.500        70
47.520        63
47.540        60
47.560        97
47.580        33
47.600        80
47.620        67
47.640        80
47.660        43
47.680        43
47.700        23
47.720        43
47.740        63
47.760        47
47.780        57
47.800        53
47.820        30
47.840        40
47.860        43
47.880        47
47.900        63
47.920        30
47.940        40
47.960        20
47.980        53
48.000        20
48.020        60
48.040        47
48.060        37
48.080        23
48.100        60
48.120        33
48.140        33
48.160        43
48.180        53
48.200        53
48.220        43
48.240        37
48.260        33
48.280        50
48.300        40
48.320        27
48.340        40
48.360        43
48.380        40
48.400        53
48.420        60
48.440        50
48.460        63
48.480        53
48.500        63
48.520        30
48.540        30
48.560        27
48.580        53
48.600        43
48.620        47
48.640        43
48.660        27
48.680        37
48.700        47
48.720        57
48.740        40
48.760        37
48.780        40
48.800        67
48.820        23
48.840        13
48.860        53
48.880        43
48.900        37
48.920        23
48.940        70
48.960        40
48.980        33
49.000        67
49.020        53
49.040        43
49.060        40
49.080        30
49.100        33
49.120        30
49.140        20
49.160        37
49.180        53
49.200        40
49.220        73
49.240        37
49.260        40
49.280        40
49.300        43
49.320        30
49.340        37
49.360        60
49.380        47
49.400        43
49.420        27
49.440        47
49.460        60
49.480        23
49.500        43
49.520        30
49.540        40
49.560        50
49.580        43
49.600        17
49.620        33
49.640        33
49.660        40
49.680        30
49.700        57
49.720        30
49.740        27
49.760        27
49.780        60
49.800        27
49.820        73
49.840        33
49.860        67
49.880        40
49.900        47
49.920        30
49.940        40
49.960        50
49.980        40
50.000        33
50.020        50
50.040        50
50.060        30
50.080        37
50.100        33
50.120        43
50.140        30
50.160        33
50.180        33
50.200        57
50.220        37
50.240        23
50.260        27
50.280        53
50.300        40
50.320        50
50.340        60
50.360        37
50.380        27
50.400        57
50.420        50
50.440        37
50.460        40
50.480        33
50.500        43
50.520        43
50.540        27
50.560        43
50.580        23
50.600        27
50.620        70
50.640        60
50.660        50
50.680        70
50.700        67
50.720       100
50.740       140
50.760       193
50.780       190
50.800       210
50.820       193
50.840       243
50.860       217
50.880       257
50.900       173
50.920       210
50.940       247
50.960       290
50.980       247
51.000       240
51.020       210
51.040       220
51.060       277
51.080       223
51.100       247
51.120       257
51.140       227
51.160       230
51.180       223
51.200       253
51.220       203
51.240       280
51.260       200
51.280       260
51.300       247
51.320       270
51.340       293
51.360       247
51.380       237
51.400       217
51.420       253
51.440       317
51.460       240
51.480       250
51.500       247
51.520       203
51.540       223
51.560       263
51.580       247
51.600       240
51.620       237
51.640       230
51.660       253
51.680       270
51.700       230
51.720       323
51.740       273
51.760       237
51.780       247
51.800       297
51.820       240
51.840       273
51.860       260
51.880       300
51.900       257
51.920       250
51.940       320
51.960       280
51.980       323
52.000       347
52.020       297
52.040       310
52.060       330
52.080       377
52.100       290
52.120       317
52.140       353
52.160       373
52.180       373
52.200       446
52.220       480
52.240       410
52.260       496
52.280       460
52.300       560
52.320       663
52.340       876
52.360       990
52.380      1243
52.400      1446
52.420      1766
52.440      1886
52.460      1959
52.480      1873
52.500      2229
52.520      2689
52.540      3605
52.560      5814
52.580     10106
52.600     19802
52.620     43253
52.640     78822
52.660    101853
52.680    102669
52.700     78209
52.720     41360
52.740     24670
52.760     29875
52.780     45778
52.800     57890
52.820     57364
52.840     42110
52.860     21261
52.880      9520
52.900      5708
52.920      4508
52.940      3562
52.960      2669
52.980      1903
53.000      1549
53.020      1150
53.040       996
53.060       900
53.080       703
53.100       780
53.120       660
53.140       530
53.160       510
53.180       580
53.200       573
53.220       456
53.240       413
53.260       387
53.280       393
53.300       357
53.320       380
53.340       413
53.360       423
53.380       340
53.400       383
53.420       280
53.440       343
53.460       360
53.480       297
53.500       320
53.520       250
53.540       297
53.560       320
53.580       310
53.600       267
53.620       280
53.640       290
53.660       257
53.680       237
53.700       253
53.720       187
53.740       247
53.760       267
53.780       267
53.800       220
53.820       213
53.840       243
53.860       220
53.880       207
53.900       183
53.920       183
53.940       210
53.960       200
53.980       230
54.000       207
54.020       213
54.040       217
54.060       247
54.080       150
54.100       203
54.120       200
54.140       220
54.160       243
54.180       190
54.200       153
54.220       213
54.240       173
54.260       227
54.280       193
54.300       200
54.320       190
54.340       180
54.360       197
54.380       203
54.400       190
54.420       133
54.440       177
54.460       180
54.480       160
54.500       137
54.520       137
54.540       140
54.560       187
54.580       147
54.600       190
54.620       187
54.640       163
54.660       190
54.680       133
54.700       140
54.720       133
54.740       147
54.760       153
54.780       180
54.800       197
54.820       213
54.840       143
54.860       120
54.880       180
54.900       140
54.920       170
54.940       167
54.960       160
54.980       130
55.000       147
55.020       170
55.040        80
55.060       160
55.080       180
55.100       203
55.120       143
55.140       110
55.160       173
55.180       113
55.200       197
55.220       163
55.240        90
55.260       137
55.280       147
55.300       187
55.320       110
55.340       123
55.360       133
55.380       173
55.400       130
55.420       153
55.440       157
55.460       130
55.480       133
55.500       133
55.520       103
55.540       127
55.560       130
55.580       120
55.600       187
55.620       157
55.640       147
55.660       143
55.680       137
55.700       140
55.720       113
55.740       147
55.760       143
55.780       157
55.800       113
55.820       127
55.840       123
55.860       133
55.880       113
55.900       133
55.920       127
55.940       103
55.960       130
55.980       150
56.000       143
56.020       103
56.040       153
56.060       123
56.080       117
56.100       127
56.120        97
56.140       150
56.160       157
56.180       133
56.200       100
56.220       127
56.240       123
56.260       123
56.280        93
56.300       143
56.320       153
56.340       173
56.360       133
56.380        97
56.400       120
56.420       197
56.440       120
56.460       123
56.480       157
56.500       120
56.520       150
56.540       100
56.560       133
56.580       117
56.600       110
56.620       127
56.640       117
56.660       143
56.680       117
56.700       147
56.720       127
56.740        97
56.760        97
56.780       123
56.800       137
56.820       120
56.840       103
56.860       100
56.880       117
56.900       127
56.920       110
56.940       107
56.960       140
56.980       147
57.000       120
57.020       100
57.040       130
57.060        70
57.080       103
57.100        77
57.120       113
57.140        97
57.160       107
57.180       147
57.200       123
57.220       127
57.240       110
57.260       130
57.280       163
57.300        77
57.320       130
57.340       130
57.360        87
57.380        97
57.400       107
57.420       100
57.440       100
57.460       113
57.480        93
57.500       110
57.520       107
57.540       113
57.560       100
57.580       110
57.600        73
57.620        83
57.640        67
57.660       117
57.680        87
57.700       103
57.720       120
57.740       103
57.760       120
57.780       127
57.800       107
57.820        97
57.840       103
57.860        73
57.880       143
57.900       113
57.920       110
57.940       110
57.960       103
57.980       123
58.000       153
58.020       103
58.040       113
58.060        97
58.080       107
58.100        97
58.120        73
58.140        70
58.160        93
58.180        93
58.200        93
58.220        80
58.240       103
58.260       117
58.280        83
58.300        80
58.320       107
58.340       110
58.360       113
58.380        87
58.400       103
58.420        87
58.440        90
58.460        97
58.480       130
58.500       117
58.520       120
58.540       100
58.560       123
58.580        87
58.600        63
58.620       110
58.640        90
58.660       127
58.680        70
58.700       103
58.720        77
58.740       107
58.760        63
58.780        87
58.800        83
58.820        87
58.840        93
58.860        60
58.880        97
58.900        80
58.920        93
58.940        70
58.960        97
58.980       110
59.000        67
59.020        77
59.040        50
59.060        63
59.080        73
59.100       120
59.120        90
59.140        93
59.160        70
59.180        73
59.200       103
59.220       107
59.240        67
59.260        87
59.280       120
59.300        77
59.320        83
59.340        87
59.360        90
59.380        83
59.400       107
59.420        83
59.440        87
59.460        87
59.480        80
59.500        97
59.520       110
59.540        50
59.560        77
59.580        80
59.600        97
59.620        53
59.640        87
59.660        77
59.680        90
59.700       100
59.720       117
59.740        73
59.760        53
59.780        63
59.800        60
59.820        97
59.840        83
59.860        87
59.880        70
59.900        80
59.920        83
59.940        87
59.960       113
59.980        70
60.000        57
