20.000         0
20.020         0
20.040         0
20.060         0
20.080         0
20.100         0
20.120         0
20.140         0
20.160         0
20.180         0
20.200         0
20.220         0
20.240         0
20.260         3
20.280         0
20.300         0
20.320        10
20.340        50
20.360        37
20.380        27
20.400        33
20.420        53
20.440        50
20.460        47
20.480        10
20.500        37
20.520        23
20.540        40
20.560        27
20.580        37
20.600        50
20.620        50
20.640        60
20.660        47
20.680        33
20.700        20
20.720        40
20.740        37
20.760        30
20.780        67
20.800        50
20.820        50
20.840        33
20.860        37
20.880        47
20.900        37
20.920        50
20.940        20
20.960        37
20.980        37
21.000        17
21.020        53
21.040        50
21.060        40
21.080        43
21.100        50
21.120        37
21.140        43
21.160        30
21.180        37
21.200        23
21.220        33
21.240        30
21.260        30
21.280        17
21.300        30
21.320        70
21.340        40
21.360        70
21.380        60
21.400        43
21.420        33
21.440        60
21.460        27
21.480        23
21.500        57
21.520        37
21.540        20
21.560        53
21.580        43
21.600        23
21.620        43
21.640        43
21.660        33
21.680        43
21.700        33
21.720        50
21.740        40
21.760        40
21.780        40
21.800        60
21.820        30
21.840        37
21.860        40
21.880        50
21.900        17
21.920        33
21.940        50
21.960        57
21.980        33
22.000        43
22.020        53
22.040        57
22.060        27
22.080        53
22.100        37
22.120        47
22.140        60
22.160        37
22.180        70
22.200        40
22.220        53
22.240        50
22.260        63
22.280        83
22.300        63
22.320        57
22.340        50
22.360        73
22.380        33
22.400        47
22.420        37
22.440        53
22.460        37
22.480        47
22.500        43
22.520        17
22.540        27
22.560        37
22.580        33
22.600        33
22.620        43
22.640        30
22.660        37
22.680        33
22.700        27
22.720        47
22.740        33
22.760        23
22.780        30
22.800        60
22.820        17
22.840        37
22.860        27
22.880        43
22.900        50
22.920        37
22.940        30
22.960        40
22.980        37
23.000        33
23.020        27
23.040        53
23.060        30
23.080        37
23.100        40
23.120        33
23.140        17
23.160        43
23.180        33
23.200        47
23.220        23
23.240        23
23.260        33
23.280        37
23.300        20
23.320        43
23.340        33
23.360        63
23.380        33
23.400        40
23.420        30
23.440        40
23.460        20
23.480        47
23.500        43
23.520        30
23.540        53
23.560        33
23.580        27
23.600        33
23.620        40
23.640        57
23.660        33
23.680        43
23.700        43
23.720        27
23.740        27
23.760        43
23.780        37
23.800        27
23.820        37
23.840        43
23.860        33
23.880        33
23.900        47
23.920        30
23.940        23
23.960        50
23.980        23
24.000        40
24.020        23
24.040        30
24.060        47
24.080        20
24.100        37
24.120        23
24.140        50
24.160        27
24.180        47
24.200        20
24.220        33
24.240        40
24.260        27
24.280        37
24.300        33
24.320        37
24.340        23
24.360        43
24.380        43
24.400        47
24.420        30
24.440        37
24.460        43
24.480        13
24.500        33
24.520        20
24.540        20
24.560        47
24.580        10
24.600        30
24.620        30
24.640        40
24.660        40
24.680        23
24.700        43
24.720        37
24.740        33
24.760        43
24.780        43
24.800        47
24.820        40
24.840        27
24.860        33
24.880        43
24.900        37
24.920        23
24.940        27
24.960        57
24.980        40
25.000        30
25.020        30
25.040        40
25.060        20
25.080        53
25.100        20
25.120        30
25.140        47
25.160        40
25.180        40
25.200        20
25.220        30
25.240        70
25.260        27
25.280        17
25.300        53
25.320        20
25.340        33
25.360        27
25.380        27
25.400        17
25.420        33
25.440        20
25.460        40
25.480        50
25.500        37
25.520        43
25.540        40
25.560        33
25.580        17
25.600        50
25.620        37
25.640        37
25.660        57
25.680        33
25.700        33
25.720        43
25.740        20
25.760        43
25.780        23
25.800        30
25.820         7
25.840        27
25.860        37
25.880        33
25.900        37
25.920        27
25.940        33
25.960        10
25.980        27
26.000        10
26.020        27
26.040        27
26.060        30
26.080        17
26.100        37
26.120        27
26.140        33
26.160        17
26.180        43
26.200        47
26.220         7
26.240        37
26.260        40
26.280        30
26.300        40
26.320        43
26.340        17
26.360        17
26.380        30
26.400        23
26.420        20
26.440        20
26.460        53
26.480        57
26.500        47
26.520        37
26.540        27
26.560        30
26.580        13
26.600        40
26.620        30
26.640        17
26.660        43
26.680        23
26.700        30
26.720        20
26.740        40
26.760        33
26.780        33
26.800        33
26.820        43
26.840        30
26.860        43
26.880        17
26.900        37
26.920        37
26.940        30
26.960        27
26.980        40
27.000        33
27.020        17
27.040        20
27.060        27
27.080        47
27.100        30
27.120        33
27.140        37
27.160        17
27.180        27
27.200        47
27.220        37
27.240        33
27.260        27
27.280        23
27.300        27
27.320        33
27.340        20
27.360        37
27.380        20
27.400        43
27.420        27
27.440        33
27.460        20
27.480        47
27.500        30
27.520        23
27.540        33
27.560         7
27.580        37
27.600        63
27.620        13
27.640        57
27.660        17
27.680        40
27.700        20
27.720        30
27.740        30
27.760        20
27.780        30
27.800        13
27.820        33
27.840        33
27.860        23
27.880        30
27.900        30
27.920        30
27.940        27
27.960        23
27.980        57
28.000        37
28.020        33
28.040        20
28.060        17
28.080        23
28.100        40
28.120        27
28.140        27
28.160        20
28.180        23
28.200        50
28.220        23
28.240        20
28.260        30
28.280        30
28.300        30
28.320        37
28.340        30
28.360        13
28.380        23
28.400        30
28.420        47
28.440        23
28.460        53
28.480        23
28.500        30
28.520        43
28.540        30
28.560        27
28.580        27
28.600        23
28.620        30
28.640        40
28.660        27
28.680        13
28.700        33
28.720        30
28.740        13
28.760        27
28.780        23
28.800        43
28.820        20
28.840        13
28.860        20
28.880        10
28.900        33
28.920        17
28.940        27
28.960        10
28.980        33
29.000        30
29.020        17
29.040        30
29.060        33
29.080        30
29.100        17
29.120        20
29.140        30
29.160        27
29.180        37
29.200        27
29.220        33
29.240        20
29.260        33
29.280        53
29.300        37
29.320        50
29.340        40
29.360        33
29.380        67
29.400        60
29.420        30
29.440        30
29.460        40
29.480        27
29.500        33
29.520        27
29.540        23
29.560        23
29.580        37
29.600        17
29.620        20
29.640        27
29.660        37
29.680        20
29.700        23
29.720        40
29.740        30
29.760        17
29.780        13
29.800        30
29.820        27
29.840        30
29.860        30
29.880        27
29.900        33
29.920        30
29.940        17
29.960        20
29.980        30
30.000        43
30.020        40
30.040        20
30.060        23
30.080        27
30.100        33
30.120        33
30.140        27
30.160        33
30.180        30
30.200        23
30.220        27
30.240        20
30.260        23
30.280        17
30.300        33
30.320        30
30.340        37
30.360        23
30.380        30
30.400        30
30.420        17
30.440        23
30.460        37
30.480        23
30.500        13
30.520        40
30.540        20
30.560        17
30.580        20
30.600        30
30.620        23
30.640        37
30.660        30
30.680        60
30.700        23
30.720        27
30.740        27
30.760        30
30.780        17
30.800        40
30.820        30
30.840        27
30.860        23
30.880        40
30.900        40
30.920        40
30.940        20
30.960        20
30.980        20
31.000        27
31.020        47
31.040        20
31.060        43
31.080        87
31.100        20
31.120        43
31.140        60
31.160        37
31.180        23
31.200        40
31.220        50
31.240        27
31.260        20
31.280        40
31.300        53
31.320        47
31.340        43
31.360        57
31.380        43
31.400        67
31.420        67
31.440        67
31.460        50
31.480       100
31.500       120
31.520       123
31.540       137
31.560       157
31.580       133
31.600       180
31.620       180
31.640       207
31.660       190
31.680       237
31.700       230
31.720       237
31.740       217
31.760       210
31.780       230
31.800       210
31.820       173
31.840       127
31.860       123
31.880       133
31.900        80
31.920       100
31.940        97
31.960        63
31.980        90
32.000        83
32.020        53
32.040        40
32.060        47
32.080        27
32.100        50
32.120        47
32.140        27
32.160        53
32.180        27
32.200        33
32.220        33
32.240        20
32.260        37
32.280        43
32.300        27
32.320        43
32.340        37
32.360        10
32.380        47
32.400        33
32.420        23
32.440        23
32.460        43
32.480        37
32.500        30
32.520        50
32.540        40
32.560        30
32.580        33
32.600        33
32.620        23
32.640        37
32.660        17
32.680        20
32.700        33
32.720        27
32.740        30
32.760        23
32.780        13
32.800        13
32.820        20
32.840        50
32.860        33
32.880        37
32.900        43
32.920        27
32.940        20
32.960        33
32.980        33
33.000        10
33.020        37
33.040        20
33.060        23
33.080        20
33.100        47
33.120        10
33.140        17
33.160        33
33.180        33
33.200        30
33.220        20
33.240        37
33.260        53
33.280        13
33.300        37
33.320        27
33.340        27
33.360        23
33.380        20
33.400        27
33.420        33
33.440        30
33.460         0
33.480        30
33.500        33
33.520        20
33.540        27
33.560        20
33.580        33
33.600        30
33.620        23
33.640        27
33.660        20
33.680        40
33.700        20
33.720        30
33.740        13
33.760        33
33.780        23
33.800        27
33.820        33
33.840        33
33.860        17
33.880        20
33.900        27
33.920        20
33.940        30
33.960        10
33.980        30
34.000        27
34.020        27
34.040        20
34.060        10
34.080        10
34.100        20
34.120        20
34.140        23
34.160        13
34.180        20
34.200        17
34.220        17
34.240        27
34.260        10
34.280        30
34.300        13
34.320        23
34.340        23
34.360        40
34.380         3
34.400        27
34.420        43
34.440        23
34.460        23
34.480        10
34.500        40
34.520        20
34.540        27
34.560        40
34.580        20
34.600        17
34.620        17
34.640        30
34.660        20
34.680        13
34.700        23
34.720        33
34.740        20
34.760        23
34.780        23
34.800        33
34.820        37
34.840        23
34.860        23
34.880        30
34.900        17
34.920        10
34.940        17
34.960        30
34.980        23
35.000        23
35.020        47
35.040        23
35.060        27
35.080        13
35.100        30
35.120        50
35.140        67
35.160        63
35.180        70
35.200       110
35.220       160
35.240       200
35.260       130
35.280       127
35.300        97
35.320        83
35.340        90
35.360        43
35.380        33
35.400        30
35.420        27
35.440        23
35.460        27
35.480        20
35.500        27
35.520        10
35.540        10
35.560        20
35.580         3
35.600        13
35.620        23
35.640        30
35.660        30
35.680        17
35.700        20
35.720        30
35.740        20
35.760        20
35.780        30
35.800        23
35.820        33
35.840        33
35.860        23
35.880        17
35.900        10
35.920        23
35.940        23
35.960        17
35.980        30
36.000        17
36.020        23
36.040        20
36.060        23
36.080        17
36.100         7
36.120        20
36.140        30
36.160        20
36.180        37
36.200        33
36.220        27
36.240        20
36.260        20
36.280        17
36.300        30
36.320        17
36.340        23
36.360         7
36.380        23
36.400        40
36.420        33
36.440        20
36.460        10
36.480        20
36.500        10
36.520        27
36.540        17
36.560        23
36.580        33
36.600        20
36.620        20
36.640        33
36.660        30
36.680        27
36.700        10
36.720        13
36.740        20
36.760        37
36.780        37
36.800         7
36.820        17
36.840        23
36.860        10
36.880        17
36.900        10
36.920        23
36.940        23
36.960        17
36.980        17
37.000        17
37.020        17
37.040        30
37.060        27
37.080         7
37.100         7
37.120        23
37.140        20
37.160        10
37.180        27
37.200        27
37.220        17
37.240        23
37.260        20
37.280        37
37.300         7
37.320        37
37.340        23
37.360        27
37.380        27
37.400        13
37.420        10
37.440        23
37.460        10
37.480        23
37.500        23
37.520        17
37.540        10
37.560        17
37.580        37
37.600        23
37.620        27
37.640        17
37.660        20
37.680        33
37.700        10
37.720        13
37.740        17
37.760        23
37.780        37
37.800        37
37.820        30
37.840        63
37.860        30
37.880        47
37.900        30
37.920        20
37.940        40
37.960        47
37.980        43
38.000        13
38.020        27
38.040        27
38.060        17
38.080        23
38.100        20
38.120        17
38.140        20
38.160        17
38.180         7
38.200        10
38.220        30
38.240        23
38.260        37
38.280        23
38.300        27
38.320        20
38.340        37
38.360        10
38.380        13
38.400        37
38.420        27
38.440        27
38.460        20
38.480        23
38.500        33
38.520        30
38.540        17
38.560        17
38.580        43
38.600        27
38.620        40
38.640        17
38.660        20
38.680        27
38.700        23
38.720        20
38.740        20
38.760        20
38.780        43
38.800        30
38.820        30
38.840        23
38.860        20
38.880        40
38.900        37
38.920        17
38.940        43
38.960        43
38.980        27
39.000        47
39.020        33
39.040        43
39.060        70
39.080        57
39.100        80
39.120        93
39.140        83
39.160       107
39.180       120
39.200       163
39.220       163
39.240       163
39.260       150
39.280       113
39.300       127
39.320       130
39.340        83
39.360       113
39.380        73
39.400        60
39.420        60
39.440        53
39.460        57
39.480        47
39.500        33
39.520        17
39.540        43
39.560        37
39.580        30
39.600        37
39.620        33
39.640        20
39.660        43
39.680        33
39.700        17
39.720        30
39.740        40
39.760        23
39.780        23
39.800        23
39.820        17
39.840        30
39.860        13
39.880        23
39.900        27
39.920         7
39.940        23
39.960        27
39.980        27
40.000        30
40.020        13
40.040        17
40.060        17
40.080        27
40.100        17
40.120        33
40.140        27
40.160        27
40.180        23
40.200        13
40.220        27
40.240        43
40.260        17
40.280        37
40.300        17
40.320        23
40.340        20
40.360         3
40.380        20
40.400        30
40.420        27
40.440         7
40.460        20
40.480        17
40.500        13
40.520        17
40.540        17
40.560        13
40.580        27
40.600        27
40.620        17
40.640        10
40.660        23
40.680        13
40.700        17
40.720        23
40.740        20
40.760        13
40.780        37
40.800        30
40.820        17
40.840        20
40.860        13
40.880        17
40.900        23
40.920        20
40.940        27
40.960         3
40.980        10
41.000        27
41.020        17
41.040        23
41.060        23
41.080        23
41.100        40
41.120        20
41.140        23
41.160         7
41.180         7
41.200        20
41.220        17
41.240        10
41.260        40
41.280        23
41.300        37
41.320         0
41.340        23
41.360        33
41.380        13
41.400        33
41.420        17
41.440        20
41.460        23
41.480        20
41.500        17
41.520        27
41.540        23
41.560        23
41.580        20
41.600        33
41.620        57
41.640        47
41.660        40
41.680        60
41.700        70
41.720       133
41.740       183
41.760       207
41.780       143
41.800       117
41.820        73
41.840        80
41.860        87
41.880       137
41.900        47
41.920        67
41.940        27
41.960         7
41.980        13
42.000        37
42.020        27
42.040        20
42.060        17
42.080        33
42.100        13
42.120        30
42.140        23
42.160        30
42.180        17
42.200        23
42.220        30
42.240        23
42.260        20
42.280        20
42.300        20
42.320        20
42.340        10
42.360        17
42.380         7
42.400        17
42.420        33
42.440         7
42.460        17
42.480        37
42.500        13
42.520        20
42.540        20
42.560        27
42.580        10
42.600        13
42.620         7
42.640        40
42.660        30
42.680        13
42.700        23
42.720        27
42.740        30
42.760        30
42.780        33
42.800        17
42.820        20
42.840        37
42.860        23
42.880         7
42.900        13
42.920        23
42.940        30
42.960        17
42.980        13
43.000        20
43.020        30
43.040        37
43.060        47
43.080        30
43.100        23
43.120        17
43.140        33
43.160        27
43.180        17
43.200        23
43.220        30
43.240        23
43.260        17
43.280        17
43.300        20
43.320        20
43.340        17
43.360        37
43.380        27
43.400        33
43.420        27
43.440        37
43.460        13
43.480        20
43.500        20
43.520        23
43.540        33
43.560        23
43.580        17
43.600        13
43.620        20
43.640        23
43.660        20
43.680        30
43.700        33
43.720        23
43.740        17
43.760        23
43.780        10
43.800        17
43.820        17
43.840        40
43.860        20
43.880        20
43.900        33
43.920        23
43.940        13
43.960        33
43.980        33
44.000        37
44.020        20
44.040        23
44.060        33
44.080        37
44.100        17
44.120        33
44.140        17
44.160        20
44.180        20
44.200        13
44.220        33
44.240        13
44.260        17
44.280        17
44.300        27
44.320        17
44.340        23
44.360        13
44.380        10
44.400        47
44.420        23
44.440        23
44.460        27
44.480        33
44.500        23
44.520        27
44.540        23
44.560        13
44.580        33
44.600        10
44.620        40
44.640        20
44.660        27
44.680        33
44.700        27
44.720        23
44.740        27
44.760        30
44.780        17
44.800        23
44.820        30
44.840        33
44.860        43
44.880        13
44.900        47
44.920        40
44.940        33
44.960        37
44.980        27
45.000        37
45.020        53
45.040        27
45.060        47
45.080        30
45.100        37
45.120        50
45.140        27
45.160        50
45.180        30
45.200        60
45.220        60
45.240        97
45.260        47
45.280        57
45.300        50
45.320        80
45.340        97
45.360        87
45.380        73
45.400        83
45.420       107
45.440        93
45.460       113
45.480       133
45.500        60
45.520       113
45.540        67
45.560        87
45.580        73
45.600        70
45.620        60
45.640        77
45.660        80
45.680        60
45.700        37
45.720        50
45.740        50
45.760        40
45.780        47
45.800        53
45.820        53
45.840        40
45.860        20
45.880        33
45.900        20
45.920        33
45.940        30
45.960        27
45.980        53
46.000        37
46.020        27
46.040        47
46.060        27
46.080        30
46.100        27
46.120        23
46.140        27
46.160        33
46.180        33
46.200        13
46.220        30
46.240        37
46.260        33
46.280        43
46.300        30
46.320        30
46.340        17
46.360        13
46.380        27
46.400        23
46.420        30
46.440        30
46.460         3
46.480        37
46.500        37
46.520        47
46.540        23
46.560        13
46.580        17
46.600        27
46.620        17
46.640        13
46.660        30
46.680        13
46.700        30
46.720        13
46.740        30
46.760        17
46.780        13
46.800        30
46.820        27
46.840        20
46.860        13
46.880        13
46.900        20
46.920        10
46.940        20
46.960        27
46.980        20
47.000        20
47.020        33
47.040        27
47.060        20
47.080        20
47.100        27
47.120        50
47.140        20
47.160        27
47.180        20
47.200        17
47.220        17
47.240         3
47.260        20
47.280        30
47.300        27
47.320        17
47.340        23
47.360        27
47.380        23
47.400        23
47.420        23
47.440        27
47.460        33
47.480        47
47.500        37
47.520        40
47.540        17
47.560        23
47.580        20
47.600        17
47.620        27
47.640        23
47.660        20
47.680        23
47.700        33
47.720        10
47.740        20
47.760        13
47.780         7
47.800        23
47.820        20
47.840        30
47.860        23
47.880        17
47.900        37
47.920        13
47.940        27
47.960        30
47.980         3
48.000        10
48.020        13
48.040         7
48.060        13
48.080        23
48.100        37
48.120        20
48.140        17
48.160        17
48.180        27
48.200        20
48.220        13
48.240        23
48.260        23
48.280        23
48.300        17
48.320        27
48.340        30
48.360        13
48.380        33
48.400        20
48.420        17
48.440        33
48.460        33
48.480        40
48.500        33
48.520        40
48.540        20
48.560        17
48.580        20
48.600        20
48.620        20
48.640        13
48.660        10
48.680        23
48.700        10
48.720        10
48.740         3
48.760        17
48.780        10
48.800        13
48.820        17
48.840        17
48.860        10
48.880        13
48.900        17
48.920        30
48.940        13
48.960        27
48.980        13
49.000        20
49.020        17
49.040        23
49.060        23
49.080        17
49.100        20
49.120        17
49.140        13
49.160        30
49.180        10
49.200        17
49.220        20
49.240         3
49.260        27
49.280        20
49.300        10
49.320        13
49.340        10
49.360        10
49.380         7
49.400        27
49.420        10
49.440        23
49.460        17
49.480        20
49.500        37
49.520        30
49.540        20
49.560        37
49.580        30
49.600        10
49.620        17
49.640        17
49.660        23
49.680        17
49.700        17
49.720         0
49.740        13
49.760        27
49.780        20
49.800        20
49.820        23
49.840        40
49.860        40
49.880        13
49.900        33
49.920        13
49.940        23
49.960        27
49.980        37
50.000         7
50.020        27
50.040         7
50.060         7
50.080        40
50.100        10
50.120        17
50.140        17
50.160        13
50.180        30
50.200         7
50.220        13
50.240        13
50.260        17
50.280        13
50.300        13
50.320        27
50.340        30
50.360        37
50.380        20
50.400        10
50.420        37
50.440        20
50.460        17
50.480        13
50.500         3
50.520        10
50.540        10
50.560         3
50.580        23
50.600        17
50.620        20
50.640        10
50.660        10
50.680         7
50.700        17
50.720        17
50.740        10
50.760        20
50.780        17
50.800        13
50.820        20
50.840        13
50.860        20
50.880        23
50.900        27
50.920        20
50.940        13
50.960        17
50.980         7
51.000        20
51.020        27
51.040        13
51.060        17
51.080        17
51.100        17
51.120        27
51.140        17
51.160        13
51.180        13
51.200        27
51.220        13
51.240        27
51.260        13
51.280         7
51.300        13
51.320        17
51.340         3
51.360        13
51.380        13
51.400        13
51.420        30
51.440        37
51.460        30
51.480        33
51.500         3
51.520        17
51.540         7
51.560        17
51.580         7
51.600        30
51.620        17
51.640        10
51.660        23
51.680        13
51.700        27
51.720         3
51.740        20
51.760        17
51.780        17
51.800        10
51.820        17
51.840        13
51.860         7
51.880        20
51.900        10
51.920        13
51.940        13
51.960        13
51.980        13
52.000         0
52.020        13
52.040        17
52.060        10
52.080        10
52.100        20
52.120         7
52.140        17
52.160        23
52.180        17
52.200         7
52.220        23
52.240         0
52.260        23
52.280        27
52.300        17
52.320        10
52.340         7
52.360        10
52.380        17
52.400        13
52.420        20
52.440        23
52.460        20
52.480        17
52.500        10
52.520        20
52.540        20
52.560        13
52.580        30
52.600        30
52.620        17
52.640        23
52.660        23
52.680        20
52.700        37
52.720        27
52.740        30
52.760        13
52.780        40
52.800        20
52.820        20
52.840        13
52.860        20
52.880        13
52.900         7
52.920        13
52.940        13
52.960        10
52.980        10
53.000        20
53.020        20
53.040        10
53.060        23
53.080        13
53.100        27
53.120        17
53.140        17
53.160        13
53.180        13
53.200        17
53.220        20
53.240        20
53.260        13
53.280        20
53.300        10
53.320        23
53.340        13
53.360        20
53.380        13
53.400        17
53.420        13
53.440        13
53.460        17
53.480         7
53.500        20
53.520        17
53.540        37
53.560         7
53.580        13
53.600         7
53.620        10
53.640        20
53.660        23
53.680        13
53.700        10
53.720        23
53.740        10
53.760        10
53.780        20
53.800        10
53.820         7
53.840        13
53.860        17
53.880        20
53.900        10
53.920        13
53.940         7
53.960        10
53.980        10
54.000        20
54.020        10
54.040        13
54.060        10
54.080         7
54.100        30
54.120        17
54.140        17
54.160        17
54.180        17
54.200        23
54.220        17
54.240        10
54.260        23
54.280        27
54.300        20
54.320        17
54.340        13
54.360        10
54.380        17
54.400        30
54.420        13
54.440        17
54.460        20
54.480        23
54.500        17
54.520        13
54.540        20
54.560        27
54.580         3
54.600        17
54.620        27
54.640        10
54.660        33
54.680        17
54.700        33
54.720         7
54.740        10
54.760        13
54.780         7
54.800        20
54.820        20
54.840        10
54.860        20
54.880        13
54.900        27
54.920        23
54.940        23
54.960        20
54.980        27
55.000        13
55.020        20
55.040        23
55.060        37
55.080        17
55.100         7
55.120        17
55.140        30
55.160        20
55.180        17
55.200        23
55.220        17
55.240         3
55.260        10
55.280         7
55.300        23
55.320         7
55.340        27
55.360        10
55.380        13
55.400        17
55.420        23
55.440        13
55.460        13
55.480        17
55.500        20
55.520         7
55.540        33
55.560        13
55.580        17
55.600        13
55.620        10
55.640        30
55.660        30
55.680         7
55.700         3
55.720        20
55.740        43
55.760         7
55.780         7
55.800        30
55.820        17
55.840        20
55.860        20
55.880        23
55.900        33
55.920        13
55.940        13
55.960        27
55.980        27
56.000        10
56.020        10
56.040        27
56.060        23
56.080        17
56.100        27
56.120        10
56.140        10
56.160        13
56.180        17
56.200        40
56.220        20
56.240        17
56.260        13
56.280         7
56.300        23
56.320        23
56.340        40
56.360        23
56.380        60
56.400        40
56.420        33
56.440        40
56.460        50
56.480        20
56.500        53
56.520        43
56.540        37
56.560        90
56.580        87
56.600        57
56.620        57
56.640        67
56.660        70
56.680        43
56.700        63
56.720        60
56.740        53
56.760        83
56.780        60
56.800        47
56.820        63
56.840        33
56.860        30
56.880        27
56.900        40
56.920        37
56.940        43
56.960        37
56.980        33
57.000        10
57.020        30
57.040        33
57.060        27
57.080        13
57.100        10
57.120        27
57.140        23
57.160        30
57.180        20
57.200        40
57.220        30
57.240        27
57.260        17
57.280        23
57.300        37
57.320        20
57.340        30
57.360        37
57.380        27
57.400        20
57.420        40
57.440        27
57.460        30
57.480        43
57.500        43
57.520        30
57.540        47
57.560        67
57.580        50
57.600        27
57.620        47
57.640        67
57.660        73
57.680        20
57.700        33
57.720         3
57.740        23
57.760        13
57.780        40
57.800        10
57.820        30
57.840        33
57.860        20
57.880        13
57.900        37
57.920        17
57.940        27
57.960        10
57.980        13
58.000        10
58.020        17
58.040        20
58.060        17
58.080        10
58.100         3
58.120        10
58.140        27
58.160        10
58.180        10
58.200        10
58.220        17
58.240        17
58.260        17
58.280        10
58.300        33
58.320        27
58.340         7
58.360        10
58.380        13
58.400        10
58.420        13
58.440        13
58.460        17
58.480         7
58.500        13
58.520        27
58.540        20
58.560        27
58.580        20
58.600        23
58.620         7
58.640        13
58.660        13
58.680         3
58.700        10
58.720        10
58.740        10
58.760        17
58.780        10
58.800        10
58.820        23
58.840        23
58.860         7
58.880        10
58.900        10
58.920        23
58.940         7
58.960        20
58.980         7
59.000        13
59.020        17
59.040        10
59.060        23
59.080        23
59.100        17
59.120        17
59.140         7
59.160        17
59.180        30
59.200         0
59.220        13
59.240        10
59.260        27
59.280        13
59.300        13
59.320        13
59.340        20
59.360        17
59.380        13
59.400        20
59.420        10
59.440        30
59.460        10
59.480        20
59.500        17
59.520        20
59.540         3
59.560        17
59.580         7
59.600         0
59.620         7
59.640        20
59.660        20
59.680        20
59.700        10
59.720        17
59.740        13
59.760        30
59.780        23
59.800        17
59.820        17
59.840        13
59.860        30
59.880        20
59.900        10
59.920        27
59.940         7
59.960        13
59.980        10
60.000        13
