20.000        30
20.020        30
20.040        27
20.060        30
20.080        40
20.100        37
20.120        40
20.140        40
20.160        47
20.180        43
20.200        33
20.220        43
20.240        53
20.260        50
20.280        30
20.300        47
20.320        27
20.340        37
20.360        37
20.380        27
20.400        63
20.420        40
20.440        40
20.460        37
20.480        47
20.500        30
20.520        70
20.540        60
20.560        30
20.580        40
20.600        43
20.620        20
20.640        33
20.660        20
20.680        27
20.700        17
20.720        43
20.740        27
20.760        43
20.780        33
20.800        33
20.820        67
20.840        37
20.860        40
20.880        43
20.900        53
20.920        43
20.940        23
20.960        60
20.980        50
21.000        73
21.020        33
21.040        53
21.060        40
21.080        27
21.100        50
21.120        43
21.140        40
21.160        40
21.180        23
21.200        43
21.220        53
21.240        53
21.260        70
21.280        60
21.300        27
21.320        27
21.340        30
21.360        40
21.380        37
21.400        43
21.420        30
21.440        27
21.460        30
21.480        47
21.500        47
21.520        10
21.540        33
21.560        47
21.580        37
21.600        63
21.620        43
21.640        63
21.660        23
21.680        60
21.700        43
21.720        20
21.740        47
21.760        30
21.780        37
21.800        40
21.820        37
21.840        57
21.860        63
21.880        37
21.900        40
21.920        43
21.940        40
21.960        50
21.980        50
22.000        63
22.020        50
22.040        77
22.060        67
22.080        83
22.100        53
22.120        87
22.140        93
22.160        60
22.180        83
22.200        70
22.220        67
22.240        63
22.260        50
22.280        67
22.300        67
22.320        70
22.340        47
22.360        53
22.380        37
22.400        57
22.420        37
22.440        50
22.460        47
22.480        63
22.500        30
22.520        40
22.540        63
22.560        60
22.580        50
22.600        43
22.620        53
22.640        27
22.660        33
22.680        60
22.700        53
22.720        23
22.740        37
22.760        33
22.780        30
22.800        37
22.820        47
22.840        37
22.860        33
22.880        33
22.900        43
22.920        60
22.940        23
22.960        33
22.980        50
23.000        33
23.020        37
23.040        17
23.060        60
23.080        33
23.100        30
23.120        23
23.140        27
23.160        20
23.180        53
23.200        40
23.220        27
23.240        47
23.260        43
23.280        37
23.300        53
23.320        37
23.340        30
23.360        30
23.380        43
23.400        37
23.420        37
23.440        30
23.460        60
23.480        33
23.500        27
23.520        37
23.540        30
23.560        37
23.580        23
23.600        17
23.620        33
23.640        43
23.660        17
23.680        30
23.700        47
23.720        33
23.740        27
23.760        37
23.780        47
23.800        13
23.820        37
23.840        40
23.860        27
23.880        37
23.900        37
23.920        30
23.940        23
23.960        37
23.980        20
24.000        37
24.020        33
24.040        20
24.060        13
24.080        47
24.100        27
24.120        43
24.140        43
24.160        27
24.180        47
24.200        30
24.220        53
24.240        47
24.260        13
24.280        33
24.300        43
24.320        27
24.340        27
24.360        37
24.380        53
24.400        33
24.420        27
24.440        23
24.460        33
24.480        40
24.500        37
24.520        13
24.540        40
24.560        43
24.580        43
24.600        33
24.620        13
24.640        33
24.660        30
24.680        37
24.700        27
24.720        37
24.740        30
24.760        23
24.780        30
24.800        37
24.820        27
24.840        33
24.860        33
24.880        37
24.900        50
24.920        37
24.940        23
24.960        43
24.980        37
25.000        20
25.020        30
25.040        43
25.060        23
25.080        33
25.100        33
25.120        23
25.140        40
25.160        37
25.180        47
25.200        27
25.220        27
25.240        47
25.260        20
25.280        37
25.300        37
25.320        40
25.340        20
25.360        27
25.380        33
25.400        23
25.420        33
25.440        27
25.460        33
25.480        23
25.500        30
25.520        60
25.540        30
25.560        27
25.580        27
25.600        23
25.620        33
25.640        50
25.660        47
25.680        13
25.700        33
25.720        43
25.740        53
25.760        23
25.780        30
25.800        13
25.820        33
25.840        53
25.860        20
25.880        30
25.900        40
25.920        20
25.940        27
25.960        33
25.980        37
26.000        23
26.020        37
26.040        43
26.060        40
26.080        43
26.100        33
26.120        47
26.140        33
26.160        43
26.180        37
26.200        20
26.220        27
26.240        37
26.260        13
26.280        17
26.300        20
26.320        17
26.340        23
26.360        27
26.380        37
26.400        20
26.420        30
26.440        20
26.460        23
26.480        20
26.500        43
26.520        30
26.540        17
26.560        23
26.580        57
26.600        33
26.620        17
26.640        17
26.660        20
26.680        27
26.700        30
26.720        50
26.740        27
26.760        30
26.780        13
26.800        30
26.820        33
26.840        10
26.860        23
26.880         7
26.900        17
26.920        40
26.940        23
26.960        33
26.980        20
27.000        13
27.020        33
27.040        23
27.060        27
27.080        43
27.100        27
27.120        40
27.140        30
27.160        27
27.180        30
27.200        20
27.220        20
27.240        10
27.260        30
27.280        30
27.300        30
27.320        30
27.340        33
27.360        43
27.380        37
27.400        27
27.420        30
27.440        43
27.460        20
27.480        53
27.500        30
27.520        50
27.540        40
27.560        13
27.580        33
27.600        37
27.620        27
27.640        47
27.660        20
27.680        27
27.700        20
27.720        27
27.740        40
27.760        33
27.780        17
27.800        13
27.820        23
27.840        30
27.860        20
27.880        20
27.900        20
27.920        23
27.940        30
27.960        23
27.980        33
28.000        20
28.020        13
28.040        17
28.060        37
28.080        20
28.100        17
28.120        30
28.140        40
28.160        23
28.180        23
28.200        40
28.220        30
28.240        30
28.260        30
28.280        27
28.300        17
28.320        27
28.340        40
28.360        33
28.380        37
28.400        13
28.420        37
28.440        27
28.460        37
28.480        30
28.500        40
28.520        27
28.540        33
28.560        23
28.580        47
28.600        27
28.620        27
28.640        30
28.660        23
28.680        17
28.700        37
28.720        20
28.740        40
28.760        40
28.780        50
28.800        37
28.820        17
28.840        30
28.860        13
28.880        53
28.900        43
28.920        37
28.940        60
28.960        27
28.980        37
29.000        33
29.020        53
29.040        63
29.060        47
29.080        43
29.100        57
29.120        43
29.140        40
29.160        27
29.180        37
29.200        37
29.220        43
29.240        37
29.260        20
29.280        53
29.300        37
29.320        33
29.340        60
29.360        40
29.380        13
29.400        27
29.420        33
29.440        50
29.460        33
29.480        23
29.500        23
29.520        20
29.540        33
29.560        20
29.580        20
29.600        17
29.620        50
29.640        33
29.660        37
29.680        40
29.700        13
29.720        50
29.740        30
29.760        37
29.780        27
29.800        20
29.820        47
29.840        23
29.860        23
29.880        33
29.900        23
29.920        37
29.940        17
29.960        37
29.980        27
30.000        30
30.020        27
30.040        17
30.060        27
30.080        47
30.100        23
30.120        40
30.140        23
30.160        23
30.180        37
30.200        27
30.220        17
30.240        13
30.260        37
30.280        10
30.300        33
30.320        23
30.340        27
30.360        20
30.380        33
30.400        30
30.420        17
30.440        37
30.460        27
30.480        33
30.500        17
30.520        17
30.540        43
30.560        30
30.580        17
30.600        37
30.620        23
30.640        30
30.660        17
30.680        27
30.700        20
30.720        33
30.740        40
30.760        13
30.780        17
30.800        23
30.820        30
30.840        27
30.860        33
30.880        30
30.900        30
30.920        47
30.940        40
30.960        40
30.980        47
31.000        20
31.020        50
31.040        10
31.060        47
31.080        23
31.100        37
31.120        47
31.140        33
31.160        37
31.180        53
31.200        57
31.220        60
31.240        43
31.260        40
31.280        53
31.300        47
31.320        53
31.340        60
31.360        37
31.380        47
31.400        43
31.420        73
31.440        50
31.460        77
31.480        80
31.500        57
31.520        70
31.540        83
31.560        60
31.580        50
31.600        63
31.620        80
31.640        53
31.660        90
31.680        80
31.700        93
31.720        73
31.740        50
31.760        57
31.780        83
31.800        47
31.820        73
31.840        63
31.860        73
31.880        53
31.900        53
31.920        60
31.940        73
31.960        47
31.980        50
32.000        20
32.020        33
32.040        40
32.060        50
32.080        47
32.100        33
32.120        23
32.140        47
32.160        47
32.180        37
32.200        23
32.220        57
32.240        50
32.260        23
32.280        40
32.300        20
32.320        37
32.340        33
32.360        33
32.380        17
32.400        20
32.420        33
32.440        27
32.460        40
32.480        37
32.500        20
32.520        63
32.540        33
32.560        37
32.580        37
32.600        30
32.620        23
32.640        17
32.660        17
32.680        27
32.700        40
32.720        20
32.740        23
32.760        53
32.780        30
32.800        33
32.820        30
32.840        17
32.860        20
32.880        27
32.900        30
32.920        27
32.940        23
32.960        33
32.980        50
33.000        40
33.020        23
33.040        33
33.060        33
33.080        13
33.100        13
33.120        27
33.140        13
33.160        20
33.180        23
33.200        23
33.220        13
33.240        27
33.260        30
33.280        23
33.300        27
33.320        17
33.340        20
33.360        30
33.380        30
33.400        17
33.420        33
33.440        17
33.460        17
33.480        17
33.500        13
33.520        27
33.540        10
33.560        50
33.580        37
33.600        27
33.620        27
33.640        23
33.660        17
33.680        30
33.700        10
33.720        20
33.740        17
33.760        20
33.780        30
33.800        20
33.820        33
33.840        20
33.860        20
33.880        23
33.900        20
33.920        13
33.940        20
33.960        20
33.980        13
34.000        20
34.020        23
34.040        17
34.060        17
34.080        37
34.100        33
34.120        37
34.140        37
34.160        27
34.180        27
34.200        20
34.220        37
34.240        30
34.260        37
34.280         3
34.300        13
34.320        23
34.340        33
34.360        17
34.380        43
34.400        20
34.420        40
34.440         7
34.460        30
34.480        27
34.500        30
34.520        27
34.540        23
34.560        10
34.580        30
34.600        10
34.620        23
34.640        27
34.660        20
34.680        30
34.700        20
34.720        20
34.740        30
34.760        37
34.780        40
34.800        23
34.820        67
34.840        13
34.860        27
34.880        30
34.900        13
34.920        20
34.940        27
34.960        27
34.980        50
35.000        30
35.020         7
35.040        27
35.060        27
35.080        43
35.100       103
35.120       157
35.140       267
35.160       220
35.180       197
35.200       130
35.220       127
35.240       120
35.260        90
35.280        63
35.300        43
35.320        30
35.340        33
35.360        37
35.380        17
35.400        27
35.420        20
35.440        27
35.460        13
35.480        27
35.500        20
35.520        30
35.540        33
35.560        20
35.580        20
35.600        33
35.620        13
35.640        27
35.660        20
35.680        37
35.700        23
35.720        33
35.740        27
35.760        20
35.780        20
35.800        27
35.820        17
35.840        20
35.860        27
35.880        23
35.900        23
35.920        20
35.940        30
35.960        23
35.980        17
36.000        17
36.020        23
36.040        33
36.060        20
36.080        23
36.100        27
36.120        30
36.140        13
36.160        17
36.180        27
36.200        30
36.220        10
36.240        20
36.260        17
36.280        13
36.300        43
36.320        20
36.340        33
36.360        23
36.380        13
36.400        17
36.420        13
36.440        27
36.460        23
36.480        10
36.500        33
36.520        17
36.540        27
36.560        23
36.580        40
36.600        23
36.620        20
36.640        17
36.660        20
36.680        20
36.700        10
36.720        27
36.740        17
36.760        20
36.780        20
36.800        17
36.820        13
36.840        17
36.860        10
36.880        20
36.900        27
36.920        13
36.940        33
36.960        40
36.980        20
37.000        23
37.020        33
37.040        37
37.060        27
37.080        17
37.100        13
37.120        13
37.140        10
37.160        20
37.180        27
37.200         7
37.220        20
37.240        10
37.260        13
37.280        10
37.300        17
37.320        20
37.340        43
37.360        13
37.380        33
37.400        13
37.420        13
37.440        23
37.460        37
37.480        27
37.500        10
37.520        10
37.540        43
37.560        20
37.580        20
37.600        43
37.620        17
37.640        17
37.660        27
37.680        23
37.700        37
37.720        20
37.740        33
37.760        30
37.780        67
37.800        97
37.820       110
37.840        97
37.860       123
37.880        73
37.900        53
37.920        57
37.940        67
37.960        80
37.980        50
38.000        37
38.020        43
38.040        27
38.060        20
38.080        10
38.100        37
38.120        20
38.140        27
38.160        23
38.180        23
38.200        27
38.220        17
38.240        20
38.260        20
38.280        17
38.300         7
38.320        10
38.340        47
38.360        23
38.380        20
38.400        30
38.420         7
38.440        23
38.460        20
38.480        17
38.500        30
38.520        30
38.540        17
38.560        23
38.580        40
38.600        23
38.620        17
38.640        43
38.660        20
38.680        23
38.700        37
38.720        27
38.740        13
38.760        50
38.780        37
38.800        30
38.820        27
38.840        77
38.860        57
38.880        40
38.900        33
38.920        57
38.940        83
38.960       130
38.980        83
39.000        83
39.020        70
39.040        83
39.060       100
39.080       113
39.100       107
39.120       117
39.140       110
39.160       157
39.180       167
39.200       117
39.220       147
39.240       173
39.260       107
39.280       110
39.300       123
39.320       117
39.340        87
39.360        90
39.380        77
39.400        87
39.420        87
39.440        60
39.460        37
39.480        90
39.500        30
39.520        53
39.540        77
39.560        57
39.580        40
39.600        27
39.620        40
39.640        27
39.660        63
39.680        10
39.700        53
39.720        30
39.740        33
39.760        33
39.780        53
39.800        33
39.820        13
39.840        50
39.860        20
39.880        73
39.900        37
39.920        23
39.940        27
39.960        27
39.980        37
40.000        37
40.020        17
40.040        27
40.060        43
40.080        10
40.100        13
40.120        33
40.140        27
40.160        23
40.180        57
40.200        30
40.220        23
40.240        23
40.260        20
40.280        47
40.300        20
40.320        43
40.340        37
40.360        23
40.380        30
40.400        27
40.420        27
40.440        13
40.460        23
40.480        37
40.500        10
40.520        37
40.540        37
40.560        23
40.580        27
40.600        10
40.620        30
40.640        33
40.660        17
40.680        30
40.700        23
40.720        37
40.740         7
40.760        40
40.780        17
40.800        23
40.820        17
40.840        27
40.860        30
40.880        37
40.900        27
40.920        13
40.940        33
40.960        27
40.980        23
41.000        40
41.020        20
41.040        17
41.060        17
41.080        13
41.100        13
41.120        27
41.140        10
41.160        27
41.180        20
41.200        20
41.220        40
41.240        10
41.260        20
41.280        17
41.300        17
41.320        33
41.340        13
41.360        40
41.380        30
41.400        30
41.420        20
41.440        10
41.460        17
41.480        17
41.500        37
41.520        20
41.540        27
41.560        30
41.580        57
41.600        40
41.620        73
41.640       107
41.660        80
41.680        97
41.700       130
41.720       140
41.740       210
41.760       153
41.780       107
41.800       117
41.820       100
41.840        80
41.860       103
41.880        83
41.900        40
41.920        33
41.940        20
41.960        33
41.980        23
42.000        33
42.020        27
42.040        13
42.060        17
42.080        30
42.100        33
42.120        23
42.140        27
42.160        23
42.180        17
42.200        30
42.220        20
42.240        37
42.260        13
42.280        33
42.300        33
42.320        20
42.340        10
42.360        33
42.380        30
42.400        20
42.420        17
42.440        20
42.460        20
42.480        17
42.500         3
42.520        17
42.540        13
42.560        20
42.580         3
42.600        27
42.620        20
42.640        20
42.660        13
42.680        30
42.700        23
42.720        23
42.740        30
42.760        17
42.780        27
42.800        23
42.820        17
42.840        17
42.860        17
42.880        17
42.900        23
42.920        30
42.940        13
42.960        23
42.980        27
43.000        17
43.020        23
43.040        17
43.060        27
43.080        23
43.100        17
43.120        17
43.140        10
43.160        23
43.180        23
43.200        23
43.220        33
43.240        17
43.260        27
43.280        23
43.300        23
43.320        27
43.340        40
43.360        97
43.380       127
43.400       167
43.420       167
43.440       210
43.460       137
43.480        70
43.500        70
43.520       120
43.540        80
43.560       130
43.580        57
43.600        27
43.620        27
43.640        20
43.660        33
43.680        27
43.700         3
43.720        60
43.740        33
43.760        20
43.780        17
43.800        37
43.820        27
43.840        17
43.860        37
43.880        30
43.900        47
43.920        30
43.940        30
43.960        33
43.980        10
44.000        23
44.020        30
44.040        43
44.060        40
44.080        30
44.100        33
44.120        17
44.140        43
44.160        37
44.180        37
44.200        47
44.220        23
44.240        27
44.260        33
44.280        37
44.300        50
44.320        37
44.340        43
44.360        30
44.380        53
44.400        50
44.420        40
44.440        30
44.460        43
44.480        47
44.500        53
44.520        33
44.540        53
44.560        57
44.580        43
44.600        43
44.620        47
44.640        67
44.660        43
44.680        47
44.700        40
44.720        40
44.740        33
44.760        47
44.780        23
44.800        40
44.820        40
44.840        67
44.860        60
44.880        60
44.900        53
44.920        63
44.940        80
44.960        37
44.980        83
45.000       100
45.020        70
45.040        47
45.060        90
45.080        43
45.100        60
45.120        80
45.140        70
45.160        87
45.180        83
45.200        83
45.220       103
45.240       100
45.260        87
45.280        87
45.300        80
45.320        87
45.340        53
45.360        70
45.380        73
45.400        93
45.420        97
45.440        67
45.460        73
45.480        63
45.500       123
45.520        50
45.540        63
45.560        63
45.580        53
45.600        57
45.620        63
45.640        43
45.660        53
45.680        63
45.700        47
45.720        97
45.740        40
45.760        80
45.780        33
45.800        50
45.820        43
45.840        53
45.860        30
45.880        33
45.900        27
45.920        43
45.940        53
45.960        53
45.980        43
46.000        37
46.020        47
46.040        53
46.060        37
46.080        23
46.100        33
46.120        33
46.140        33
46.160        33
46.180        30
46.200        33
46.220        43
46.240        40
46.260        27
46.280        33
46.300        27
46.320        37
46.340        23
46.360        20
46.380        30
46.400        53
46.420        27
46.440        10
46.460        40
46.480        33
46.500        40
46.520        40
46.540        20
46.560        27
46.580        37
46.600        30
46.620        17
46.640        20
46.660        17
46.680        30
46.700        13
46.720        27
46.740        20
46.760        17
46.780        33
46.800        23
46.820        20
46.840        17
46.860        27
46.880        27
46.900        27
46.920        13
46.940        23
46.960        10
46.980        17
47.000        17
47.020        23
47.040        17
47.060        27
47.080        20
47.100        20
47.120        20
47.140        23
47.160        20
47.180        27
47.200        27
47.220        27
47.240        20
47.260        20
47.280        20
47.300         7
47.320        13
47.340        30
47.360        23
47.380        20
47.400        33
47.420        27
47.440        23
47.460        63
47.480        17
47.500        20
47.520        17
47.540        30
47.560        27
47.580        33
47.600        30
47.620        23
47.640        33
47.660        10
47.680        10
47.700        20
47.720        17
47.740        17
47.760        27
47.780        30
47.800        17
47.820        17
47.840        30
47.860        27
47.880        23
47.900        27
47.920        33
47.940         3
47.960        17
47.980        20
48.000        13
48.020         3
48.040        17
48.060        23
48.080        10
48.100        20
48.120        37
48.140        23
48.160        30
48.180        23
48.200         0
48.220        17
48.240        27
48.260        30
48.280        17
48.300        17
48.320        33
48.340        13
48.360        27
48.380        30
48.400        20
48.420        33
48.440        17
48.460        30
48.480        30
48.500        27
48.520        20
48.540        13
48.560        30
48.580        30
48.600        17
48.620        20
48.640        20
48.660        13
48.680        10
48.700        17
48.720        23
48.740        10
48.760        17
48.780        17
48.800         7
48.820        13
48.840         3
48.860        30
48.880        27
48.900        17
48.920        20
48.940         0
48.960        13
48.980        33
49.000        27
49.020         7
49.040        23
49.060        17
49.080        17
49.100        20
49.120        17
49.140        17
49.160        20
49.180        30
49.200         7
49.220         3
49.240        10
49.260         7
49.280        23
49.300        17
49.320        17
49.340        20
49.360        10
49.380        17
49.400         7
49.420         7
49.440        20
49.460        20
49.480        27
49.500        17
49.520        20
49.540        10
49.560        20
49.580        20
49.600        13
49.620        13
49.640        27
49.660        23
49.680        10
49.700        17
49.720        13
49.740         7
49.760         3
49.780        17
49.800        13
49.820         7
49.840        13
49.860        20
49.880         7
49.900        10
49.920        13
49.940        10
49.960        13
49.980        23
50.000        10
50.020        13
50.040        20
50.060         7
50.080        20
50.100        10
50.120        13
50.140        23
50.160        13
50.180        17
50.200        17
50.220        10
50.240        20
50.260        23
50.280        10
50.300        13
50.320        17
50.340        17
50.360         3
50.380        27
50.400        17
50.420        23
50.440        23
50.460        10
50.480        27
50.500        10
50.520        13
50.540        20
50.560        10
50.580        13
50.600        10
50.620        30
50.640        13
50.660        27
50.680        20
50.700        17
50.720        23
50.740        13
50.760        17
50.780        13
50.800        23
50.820        23
50.840        17
50.860        20
50.880        10
50.900        27
50.920        17
50.940        13
50.960        27
50.980        27
51.000        17
51.020        20
51.040        33
51.060        13
51.080        10
51.100        23
51.120        27
51.140        17
51.160        10
51.180        13
51.200        20
51.220         7
51.240        13
51.260        23
51.280         7
51.300        10
51.320        20
51.340        13
51.360         0
51.380        20
51.400        27
51.420        13
51.440        20
51.460        13
51.480        17
51.500        13
51.520        13
51.540        10
51.560        13
51.580        10
51.600        10
51.620        13
51.640        40
51.660        40
51.680         7
51.700        10
51.720         7
51.740        20
51.760        33
51.780        13
51.800        20
51.820        27
51.840        10
51.860        27
51.880        13
51.900        13
51.920        13
51.940        13
51.960        23
51.980        10
52.000        13
52.020        17
52.040         7
52.060        17
52.080        20
52.100        13
52.120        17
52.140        10
52.160        33
52.180         7
52.200        23
52.220        20
52.240        17
52.260        17
52.280        20
52.300        23
52.320        20
52.340        13
52.360        10
52.380        13
52.400         7
52.420        20
52.440        10
52.460        17
52.480        20
52.500        20
52.520         7
52.540        13
52.560        40
52.580        40
52.600        53
52.620        23
52.640        13
52.660        30
52.680        17
52.700        17
52.720        23
52.740        13
52.760        10
52.780        27
52.800        27
52.820         7
52.840        23
52.860         7
52.880        17
52.900         7
52.920        20
52.940        20
52.960        13
52.980        17
53.000        10
53.020        10
53.040         7
53.060        13
53.080        10
53.100         7
53.120         7
53.140         3
53.160        10
53.180        17
53.200        23
53.220        17
53.240        23
53.260        13
53.280        20
53.300        27
53.320        20
53.340         3
53.360        33
53.380         7
53.400        10
53.420        23
53.440         7
53.460        23
53.480        20
53.500        10
53.520        20
53.540        13
53.560         7
53.580         0
53.600        10
53.620        20
53.640        10
53.660         7
53.680        17
53.700         7
53.720        13
53.740        17
53.760         7
53.780        20
53.800        27
53.820        40
53.840         3
53.860        17
53.880        23
53.900        13
53.920        17
53.940        10
53.960        23
53.980        20
54.000        13
54.020        20
54.040        23
54.060         7
54.080         7
54.100         3
54.120        13
54.140        10
54.160         7
54.180        37
54.200        20
54.220        10
54.240        23
54.260        13
54.280        10
54.300        10
54.320        20
54.340         7
54.360        23
54.380        10
54.400        13
54.420        10
54.440        27
54.460         3
54.480        13
54.500        23
54.520        13
54.540        10
54.560        10
54.580        13
54.600        17
54.620        20
54.640         7
54.660         7
54.680        27
54.700         7
54.720        10
54.740         7
54.760        13
54.780        20
54.800         3
54.820        20
54.840        17
54.860        30
54.880        13
54.900        13
54.920         7
54.940        10
54.960        20
54.980         3
55.000        10
55.020        13
55.040        40
55.060        20
55.080        23
55.100        10
55.120        23
55.140        10
55.160        23
55.180         3
55.200         7
55.220        20
55.240        13
55.260         7
55.280        20
55.300        27
55.320        23
55.340         7
55.360        10
55.380        20
55.400        17
55.420        27
55.440        10
55.460        13
55.480        17
55.500        10
55.520        20
55.540        23
55.560        13
55.580        17
55.600        17
55.620        13
55.640        13
55.660        20
55.680        23
55.700        27
55.720        17
55.740        10
55.760        20
55.780        10
55.800        30
55.820        10
55.840        30
55.860        10
55.880        30
55.900        23
55.920        30
55.940        50
55.960        33
55.980        23
56.000        30
56.020        17
56.040        27
56.060        30
56.080        27
56.100        17
56.120        33
56.140        17
56.160        17
56.180        40
56.200        33
56.220        10
56.240        23
56.260        40
56.280        33
56.300        33
56.320        30
56.340        37
56.360        40
56.380        43
56.400        30
56.420        27
56.440        57
56.460        27
56.480        47
56.500        23
56.520        33
56.540        27
56.560        47
56.580        43
56.600        47
56.620        37
56.640        47
56.660        67
56.680        47
56.700        53
56.720        30
56.740        27
56.760        30
56.780        50
56.800        23
56.820        23
56.840        33
56.860        37
56.880        30
56.900        43
56.920        37
56.940        47
56.960        33
56.980        33
57.000        40
57.020        47
57.040        43
57.060        27
57.080        47
57.100        27
57.120        30
57.140        10
57.160        23
57.180        13
57.200        20
57.220        40
57.240        17
57.260         7
57.280        33
57.300        30
57.320        30
57.340        20
57.360        20
57.380        30
57.400        20
57.420        23
57.440        33
57.460        13
57.480        33
57.500        50
57.520        23
57.540        80
57.560        13
57.580        47
57.600        47
57.620        37
57.640        47
57.660        37
57.680        47
57.700        47
57.720        50
57.740        27
57.760        13
57.780        27
57.800        13
57.820        17
57.840        13
57.860        20
57.880         7
57.900        33
57.920        20
57.940        13
57.960         3
57.980        13
58.000         7
58.020        23
58.040        10
58.060        10
58.080        17
58.100         7
58.120        23
58.140         7
58.160        13
58.180        20
58.200        13
58.220        10
58.240        10
58.260        10
58.280        27
58.300        10
58.320         7
58.340        10
58.360        13
58.380        20
58.400         3
58.420        37
58.440        20
58.460        10
58.480        30
58.500        20
58.520        23
58.540        37
58.560        27
58.580        13
58.600        13
58.620        20
58.640        10
58.660        17
58.680        23
58.700        13
58.720        10
58.740        13
58.760        13
58.780        10
58.800        10
58.820        17
58.840        10
58.860        30
58.880        10
58.900        27
58.920        17
58.940        10
58.960         7
58.980        10
59.000         7
59.020        10
59.040        10
59.060        10
59.080        17
59.100        20
59.120        20
59.140         7
59.160        17
59.180        13
59.200         3
59.220        20
59.240         3
59.260         3
59.280        27
59.300        20
59.320        17
59.340         7
59.360        10
59.380        13
59.400         7
59.420        20
59.440        10
59.460        13
59.480        13
59.500        13
59.520        13
59.540        17
59.560        23
59.580        17
59.600        13
59.620        23
59.640        20
59.660         7
59.680        13
59.700        27
59.720        17
59.740         7
59.760        17
59.780         0
59.800        13
59.820        10
59.840        17
59.860        17
59.880        17
59.900        20
59.920        13
59.940         7
59.960        17
59.980        20
60.000        10
60.020        10
60.040        17
60.060        13
60.080        20
60.100        10
60.120        17
60.140        23
60.160        17
60.180         3
60.200         7
60.220        10
60.240        13
60.260        27
60.280        20
60.300         7
60.320        10
60.340        20
60.360        27
60.380        13
60.400         7
60.420        10
60.440        17
60.460        17
60.480        23
60.500        10
60.520         7
60.540        17
60.560        10
60.580         3
60.600        10
60.620        13
60.640        10
60.660        10
60.680        17
60.700        17
60.720        13
60.740         7
60.760        20
60.780        10
60.800        17
60.820        17
60.840        17
60.860        13
60.880        23
60.900         3
60.920        10
60.940         0
60.960        13
60.980        13
61.000        17
61.020        13
61.040        17
61.060        17
61.080         7
61.100        20
61.120        20
61.140        10
61.160         3
61.180        13
61.200        17
61.220        30
61.240        13
61.260        27
61.280        40
61.300        60
61.320        80
61.340       107
61.360        77
61.380       107
61.400        67
61.420        43
61.440        33
61.460        20
61.480        43
61.500        90
61.520        60
61.540        73
61.560        47
61.580        53
61.600        23
61.620        23
61.640        23
61.660        10
61.680        17
61.700        20
61.720        20
61.740        10
61.760        13
61.780        27
61.800        17
61.820        20
61.840        17
61.860        20
61.880        10
61.900         3
61.920        17
61.940         3
61.960         7
61.980        10
62.000        17
62.020        10
62.040        27
62.060        20
62.080         7
62.100        20
62.120         7
62.140        20
62.160         7
62.180        13
62.200        17
62.220        10
62.240        17
62.260        17
62.280        17
62.300        10
62.320        20
62.340        10
62.360        13
62.380         7
62.400        20
62.420         7
62.440        13
62.460        13
62.480        10
62.500        17
62.520        13
62.540        10
62.560         7
62.580        17
62.600        20
62.620        10
62.640         3
62.660        37
62.680         7
62.700        23
62.720        20
62.740        17
62.760        23
62.780         7
62.800         7
62.820        17
62.840         3
62.860         7
62.880        13
62.900        13
62.920        10
62.940         3
62.960        13
62.980        17
63.000         7
63.020        13
63.040        17
63.060        17
63.080        30
63.100        10
63.120        17
63.140        20
63.160        13
63.180        27
63.200        17
63.220        10
63.240        10
63.260        13
63.280        20
63.300        17
63.320        10
63.340        17
63.360         7
63.380         3
63.400         0
63.420        13
63.440        17
63.460        13
63.480         3
63.500        20
63.520        20
63.540         7
63.560        13
63.580        10
63.600        10
63.620        13
63.640        10
63.660        13
63.680        13
63.700        10
63.720        10
63.740         3
63.760         7
63.780        23
63.800        20
63.820         3
63.840        20
63.860         3
63.880        10
63.900         3
63.920        20
63.940         3
63.960        10
63.980         7
64.000        17
64.020        13
64.040         3
64.060        10
64.080         7
64.100         7
64.120         3
64.140        33
64.160        17
64.180        20
64.200        17
64.220        10
64.240         7
64.260        17
64.280        17
64.300         7
64.320         3
64.340        13
64.360         0
64.380        23
64.400         7
64.420        13
64.440        13
64.460        10
64.480        23
64.500         7
64.520        13
64.540        17
64.560         7
64.580        10
64.600        17
64.620         7
64.640         3
64.660        27
64.680        10
64.700        10
64.720        27
64.740        23
64.760        10
64.780        10
64.800         7
64.820        17
64.840        17
64.860         7
64.880        10
64.900        13
64.920        10
64.940         7
64.960        10
64.980        10
65.000         3
65.020         3
65.040        20
65.060         3
65.080        13
65.100        27
65.120        10
65.140        13
65.160         3
65.180        10
65.200        17
65.220        30
65.240        13
65.260         7
65.280         7
65.300        17
65.320        20
65.340         0
65.360        17
65.380        13
65.400        10
65.420        20
65.440        10
65.460        30
65.480         3
65.500        23
65.520        33
65.540        20
65.560        13
65.580        20
65.600        13
65.620        10
65.640        10
65.660        17
65.680        20
65.700        10
65.720        17
65.740        20
65.760        13
65.780        13
65.800        10
65.820        10
65.840         7
65.860         3
65.880        10
65.900        20
65.920        17
65.940        10
65.960        23
65.980        17
66.000        13
66.020        23
66.040        17
66.060        17
66.080        20
66.100        13
66.120        13
66.140         7
66.160        17
66.180        13
66.200        10
66.220        20
66.240        10
66.260        17
66.280        23
66.300        13
66.320        13
66.340        13
66.360        17
66.380        10
66.400        27
66.420        10
66.440        23
66.460        17
66.480        20
66.500         7
66.520        47
66.540        37
66.560        50
66.580        60
66.600        47
66.620        47
66.640        30
66.660        30
66.680        20
66.700        23
66.720        30
66.740        47
66.760        43
66.780        43
66.800        40
66.820        23
66.840        27
66.860        17
66.880        13
66.900        20
66.920         3
66.940        23
66.960        10
66.980         7
67.000        27
67.020         7
67.040        17
67.060        10
67.080        13
67.100        20
67.120        10
67.140        10
67.160         7
67.180        10
67.200        10
67.220        13
67.240         7
67.260         3
67.280        10
67.300        23
67.320        13
67.340        13
67.360        10
67.380         3
67.400        13
67.420        20
67.440        10
67.460        13
67.480         7
67.500         3
67.520        10
67.540        10
67.560         7
67.580        23
67.600         3
67.620        23
67.640         7
67.660        20
67.680         7
67.700         3
67.720        10
67.740        17
67.760        10
67.780        10
67.800         3
67.820         7
67.840        17
67.860        20
67.880        10
67.900        17
67.920         7
67.940        17
67.960         7
67.980         0
68.000        23
68.020        13
68.040        10
68.060        10
68.080         3
68.100        10
68.120         0
68.140        10
68.160        13
68.180        10
68.200        10
68.220        13
68.240        27
68.260        27
68.280        57
68.300        43
68.320        37
68.340        10
68.360        17
68.380        20
68.400        23
68.420        17
68.440         7
68.460        50
68.480        30
68.500        43
68.520        17
68.540        20
68.560         3
68.580        13
68.600        13
68.620         7
68.640        23
68.660        17
68.680         0
68.700        20
68.720         7
68.740         7
68.760        20
68.780        10
68.800         7
68.820         7
68.840        10
68.860        13
68.880         3
68.900        20
68.920        10
68.940        17
68.960        20
68.980         3
69.000        10
69.020        13
69.040        23
69.060        13
69.080        13
69.100        13
69.120        20
69.140         7
69.160         0
69.180         3
69.200        17
69.220        17
69.240        13
69.260        17
69.280        17
69.300        10
69.320        20
69.340         0
69.360        10
69.380         7
69.400        10
69.420        17
69.440        13
69.460         7
69.480        23
69.500         7
69.520        13
69.540        13
69.560        10
69.580         7
69.600         7
69.620        10
69.640        13
69.660         3
69.680        17
69.700        20
69.720        10
69.740        10
69.760        10
69.780        10
69.800        10
69.820         3
69.840         3
69.860        13
69.880         7
69.900         7
69.920        13
69.940        13
69.960         3
69.980        20
70.000         7
70.020        17
70.040        23
70.060         0
70.080        20
70.100         3
70.120         7
70.140        13
70.160         7
70.180         3
70.200        10
70.220        20
70.240         7
70.260        10
70.280        13
70.300        13
70.320        13
70.340        13
70.360         3
70.380        10
70.400        17
70.420        10
70.440         3
70.460        10
70.480        30
70.500        10
70.520         3
70.540        10
70.560        10
70.580         3
70.600        20
70.620        10
70.640         3
70.660        13
70.680        17
70.700        20
70.720         7
70.740         7
70.760         7
70.780        10
70.800        20
70.820        20
70.840        13
70.860        13
70.880        10
70.900        10
70.920         3
70.940         7
70.960        17
70.980        30
71.000         3
71.020        10
71.040        10
71.060        20
71.080        23
71.100         3
71.120        10
71.140         7
71.160         7
71.180        20
71.200         7
71.220        17
71.240         0
71.260        20
71.280         7
71.300        13
71.320        10
71.340         3
71.360         7
71.380         3
71.400        10
71.420        17
71.440         3
71.460        10
71.480         3
71.500        20
71.520         7
71.540         7
71.560        17
71.580        10
71.600         3
71.620         7
71.640        13
71.660        10
71.680        17
71.700        10
71.720        20
71.740        23
71.760         3
71.780        17
71.800         7
71.820        17
71.840        17
71.860         7
71.880         7
71.900         7
71.920         0
71.940        20
71.960        23
71.980         7
72.000         7
72.020         7
72.040        10
72.060        17
72.080        10
72.100        10
72.120        10
72.140         7
72.160        10
72.180         7
72.200        10
72.220         0
72.240        13
72.260        23
72.280         7
72.300         3
72.320         7
72.340         3
72.360        13
72.380         3
72.400        10
72.420         7
72.440         3
72.460        10
72.480         7
72.500         7
72.520        20
72.540        17
72.560        10
72.580         7
72.600         7
72.620        17
72.640         7
72.660         7
72.680         7
72.700         7
72.720         3
72.740         7
72.760        13
72.780         3
72.800        13
72.820        17
72.840         7
72.860        17
72.880        13
72.900         7
72.920         7
72.940         7
72.960        17
72.980        20
73.000        10
73.020        10
73.040         7
73.060        13
73.080         7
73.100         7
73.120        13
73.140        13
73.160         7
73.180         7
73.200         7
73.220        10
73.240         7
73.260         7
73.280        27
73.300        17
73.320        13
73.340         7
73.360        10
73.380         3
73.400        10
73.420        13
73.440        20
73.460         7
73.480        10
73.500        10
73.520        20
73.540        13
73.560         3
73.580        13
73.600         7
73.620         0
73.640        17
73.660        13
73.680         7
73.700         3
73.720        13
73.740        17
73.760        13
73.780        13
73.800        13
73.820        13
73.840         3
73.860        13
73.880        10
73.900         3
73.920         7
73.940        10
73.960         3
73.980         3
74.000        20
74.020         7
74.040         7
74.060         0
74.080        17
74.100         7
74.120        10
74.140        23
74.160         3
74.180         7
74.200        17
74.220        20
74.240         3
74.260        10
74.280         7
74.300        20
74.320        20
74.340        23
74.360         7
74.380         3
74.400        17
74.420        20
74.440         7
74.460        13
74.480        10
74.500        17
74.520        17
74.540        17
74.560        17
74.580        23
74.600        17
74.620        20
74.640        10
74.660         3
74.680        20
74.700         0
74.720        17
74.740         0
74.760         7
74.780        23
74.800        10
74.820        13
74.840        10
74.860        10
74.880        10
74.900        17
74.920        10
74.940         3
74.960        10
74.980        13
75.000        13
