20.000        10
20.020        10
20.040       107
20.060       123
20.080       113
20.100       120
20.120       127
20.140        83
20.160       123
20.180       110
20.200        90
20.220        73
20.240        87
20.260        83
20.280       100
20.300       103
20.320        67
20.340        80
20.360       113
20.380       167
20.400       117
20.420        90
20.440        93
20.460       110
20.480       110
20.500        90
20.520       103
20.540       123
20.560       100
20.580       107
20.600       113
20.620        97
20.640        97
20.660        80
20.680       113
20.700       117
20.720       100
20.740        73
20.760        87
20.780        97
20.800       117
20.820        87
20.840       110
20.860       137
20.880       110
20.900       107
20.920       143
20.940       120
20.960       127
20.980       103
21.000       150
21.020       127
21.040       113
21.060       103
21.080       120
21.100       147
21.120       110
21.140       110
21.160       110
21.180       127
21.200        90
21.220       113
21.240       107
21.260       150
21.280       147
21.300        87
21.320       117
21.340       130
21.360       103
21.380       123
21.400       127
21.420       120
21.440       117
21.460       117
21.480       127
21.500       117
21.520       100
21.540       143
21.560       117
21.580       127
21.600       123
21.620        83
21.640        97
21.660       110
21.680       100
21.700       117
21.720       117
21.740       123
21.760       163
21.780       150
21.800       100
21.820       137
21.840       137
21.860       127
21.880       120
21.900       127
21.920       160
21.940       170
21.960       133
21.980       163
22.000       123
22.020       137
22.040       173
22.060       147
22.080       167
22.100       123
22.120       153
22.140       143
22.160       137
22.180       153
22.200       143
22.220       160
22.240       147
22.260       147
22.280       113
22.300       120
22.320       133
22.340       137
22.360       173
22.380       163
22.400       200
22.420       140
22.440       140
22.460       140
22.480       150
22.500       143
22.520       167
22.540       130
22.560       173
22.580       160
22.600       183
22.620       183
22.640       193
22.660       190
22.680       170
22.700       153
22.720       133
22.740       170
22.760       153
22.780       173
22.800       193
22.820       160
22.840       147
22.860       220
22.880       207
22.900       173
22.920       177
22.940       163
22.960       210
22.980       240
23.000       207
23.020       230
23.040       230
23.060       250
23.080       230
23.100       267
23.120       407
23.140       626
23.160       870
23.180       993
23.200       583
23.220       320
23.240       220
23.260       267
23.280       207
23.300       213
23.320       167
23.340       237
23.360       217
23.380       187
23.400       183
23.420       227
23.440       170
23.460       167
23.480       200
23.500       230
23.520       210
23.540       157
23.560       127
23.580       160
23.600       277
23.620       193
23.640       237
23.660       147
23.680       200
23.700       193
23.720       223
23.740       157
23.760       253
23.780       207
23.800       223
23.820       210
23.840       217
23.860       190
23.880       183
23.900       240
23.920       177
23.940       143
23.960       210
23.980       163
24.000       203
24.020       220
24.040       157
24.060       163
24.080       187
24.100       200
24.120       220
24.140       220
24.160       210
24.180       193
24.200       167
24.220       267
24.240       217
24.260       250
24.280       270
24.300       250
24.320       213
24.340       253
24.360       193
24.380       193
24.400       213
24.420       240
24.440       250
24.460       227
24.480       197
24.500       207
24.520       203
24.540       180
24.560       217
24.580       197
24.600       160
24.620       220
24.640       200
24.660       193
24.680       247
24.700       283
24.720       260
24.740       227
24.760       343
24.780       310
24.800       393
24.820       510
24.840       530
24.860       506
24.880       560
24.900       483
24.920       500
24.940       450
24.960       566
24.980       530
25.000       516
25.020       520
25.040       550
25.060       453
25.080       550
25.100       503
25.120       407
25.140       510
25.160       520
25.180       456
25.200       490
25.220       516
25.240       533
25.260       563
25.280       503
25.300       586
25.320       483
25.340       573
25.360       673
25.380       623
25.400       746
25.420      1120
25.440      1639
25.460      2332
25.480      3115
25.500      4168
25.520      5335
25.540      5861
25.560      6967
25.580      7894
25.600     10013
25.620     20428
25.640     53212
25.660     84903
25.680     96741
25.700     79195
25.720     56447
25.740     53215
25.760     42553
25.780     15784
25.800      4675
25.820      2672
25.840      1863
25.860      1363
25.880      1226
25.900       976
25.920       910
25.940       680
25.960       710
25.980       676
26.000       716
26.020       613
26.040       593
26.060       553
26.080       590
26.100       543
26.120       576
26.140       486
26.160       530
26.180       496
26.200       503
26.220       533
26.240       550
26.260       436
26.280       553
26.300       570
26.320       543
26.340       463
26.360       480
26.380       430
26.400       367
26.420       456
26.440       493
26.460       407
26.480       403
26.500       463
26.520       420
26.540       407
26.560       443
26.580       383
26.600       440
26.620       407
26.640       403
26.660       377
26.680       506
26.700       373
26.720       433
26.740       397
26.760       323
26.780       400
26.800       370
26.820       426
26.840       446
26.860       443
26.880       410
26.900       380
26.920       373
26.940       383
26.960       453
26.980       373
27.000       433
27.020       333
27.040       393
27.060       473
27.080       373
27.100       407
27.120       377
27.140       420
27.160       377
27.180       373
27.200       320
27.220       390
27.240       380
27.260       420
27.280       377
27.300       373
27.320       350
27.340       357
27.360       353
27.380       353
27.400       390
27.420       343
27.440       403
27.460       347
27.480       410
27.500       353
27.520       403
27.540       330
27.560       303
27.580       377
27.600       337
27.620       337
27.640       287
27.660       353
27.680       373
27.700       393
27.720       373
27.740       323
27.760       337
27.780       393
27.800       300
27.820       413
27.840       420
27.860       377
27.880       433
27.900       367
27.920       353
27.940       327
27.960       373
27.980       323
28.000       317
28.020       377
28.040       377
28.060       337
28.080       363
28.100       343
28.120       377
28.140       290
28.160       340
28.180       307
28.200       387
28.220       353
28.240       307
28.260       390
28.280       347
28.300       400
28.320       300
28.340       310
28.360       327
28.380       323
28.400       303
28.420       367
28.440       337
28.460       310
28.480       357
28.500       353
28.520       383
28.540       310
28.560       370
28.580       323
28.600       307
28.620       290
28.640       333
28.660       373
28.680       307
28.700       327
28.720       277
28.740       330
28.760       337
28.780       350
28.800       317
28.820       323
28.840       293
28.860       340
28.880       280
28.900       360
28.920       287
28.940       300
28.960       297
28.980       310
29.000       270
29.020       313
29.040       313
29.060       283
29.080       333
29.100       317
29.120       297
29.140       380
29.160       303
29.180       320
29.200       317
29.220       353
29.240       327
29.260       360
29.280       317
29.300       337
29.320       353
29.340       307
29.360       333
29.380       303
29.400       313
29.420       380
29.440       446
29.460       367
29.480       370
29.500       400
29.520       307
29.540       330
29.560       313
29.580       280
29.600       270
29.620       293
29.640       310
29.660       270
29.680       247
29.700       300
29.720       300
29.740       280
29.760       240
29.780       317
29.800       320
29.820       307
29.840       253
29.860       293
29.880       260
29.900       260
29.920       330
29.940       357
29.960       197
29.980       373
30.000       273
30.020       250
30.040       273
30.060       340
30.080       283
30.100       230
30.120       290
30.140       287
30.160       257
30.180       260
30.200       253
30.220       310
30.240       267
30.260       287
30.280       270
30.300       237
30.320       230
30.340       283
30.360       340
30.380       283
30.400       270
30.420       283
30.440       250
30.460       247
30.480       240
30.500       270
30.520       270
30.540       283
30.560       277
30.580       297
30.600       313
30.620       183
30.640       230
30.660       230
30.680       267
30.700       227
30.720       227
30.740       280
30.760       253
30.780       327
30.800       270
30.820       267
30.840       263
30.860       240
30.880       300
30.900       257
30.920       293
30.940       267
30.960       267
30.980       290
31.000       260
31.020       280
31.040       180
31.060       270
31.080       223
31.100       260
31.120       217
31.140       237
31.160       227
31.180       210
31.200       230
31.220       243
31.240       270
31.260       250
31.280       247
31.300       273
31.320       237
31.340       217
31.360       253
31.380       297
31.400       203
31.420       277
31.440       187
31.460       213
31.480       210
31.500       240
31.520       183
31.540       187
31.560       267
31.580       303
31.600       233
31.620       247
31.640       257
31.660       247
31.680       237
31.700       240
31.720       190
31.740       280
31.760       233
31.780       293
31.800       227
31.820       290
31.840       290
31.860       217
31.880       210
31.900       197
31.920       273
31.940       237
31.960       213
31.980       230
32.000       290
32.020       217
32.040       250
32.060       220
32.080       240
32.100       263
32.120       213
32.140       257
32.160       210
32.180       183
32.200       243
32.220       207
32.240       223
32.260       267
32.280       197
32.300       193
32.320       210
32.340       207
32.360       190
32.380       200
32.400       237
32.420       230
32.440       217
32.460       193
32.480       270
32.500       220
32.520       207
32.540       243
32.560       210
32.580       187
32.600       167
32.620       207
32.640       200
32.660       207
32.680       213
32.700       183
32.720       177
32.740       173
32.760       170
32.780       167
32.800       177
32.820       227
32.840       230
32.860       197
32.880       170
32.900       233
32.920       243
32.940       227
32.960       187
32.980       180
33.000       187
33.020       180
33.040       217
33.060       157
33.080       187
33.100       223
33.120       190
33.140       150
33.160       210
33.180       220
33.200       137
33.220       163
33.240       167
33.260       190
33.280       157
33.300       170
33.320       177
33.340       193
33.360       200
33.380       197
33.400       143
33.420       180
33.440       160
33.460       180
33.480       143
33.500       183
33.520       150
33.540       140
33.560       157
33.580       143
33.600       167
33.620       197
33.640       183
33.660       143
33.680       143
33.700       180
33.720       177
33.740       160
33.760       153
33.780       127
33.800       177
33.820       130
33.840       177
33.860       143
33.880       170
33.900       173
33.920       170
33.940       147
33.960       153
33.980       153
34.000       150
34.020       140
34.040       133
34.060       143
34.080       150
34.100       160
34.120       180
34.140       180
34.160       190
34.180       147
34.200       160
34.220       163
34.240       143
34.260       150
34.280       103
34.300       140
34.320       150
34.340       143
34.360       140
34.380       153
34.400       137
34.420       153
34.440       137
34.460       137
34.480       153
34.500       180
34.520       163
34.540       173
34.560        87
34.580       143
34.600       150
34.620       163
34.640       117
34.660       147
34.680       147
34.700       150
34.720       110
34.740       130
34.760       163
34.780       160
34.800       123
34.820       117
34.840       130
34.860       147
34.880       100
34.900       147
34.920       170
34.940       167
34.960       120
34.980       133
35.000       113
35.020       120
35.040        97
35.060       160
35.080       157
35.100       117
35.120       177
35.140       110
35.160       100
35.180       160
35.200       110
35.220       120
35.240       187
35.260       113
35.280       133
35.300       143
35.320       123
35.340       130
35.360       120
35.380       147
35.400       133
35.420       137
35.440       113
35.460       103
35.480       137
35.500       110
35.520        97
35.540       160
35.560       127
35.580       130
35.600       103
35.620       127
35.640       140
35.660       130
35.680       133
35.700       113
35.720       137
35.740       123
35.760       133
35.780       110
35.800       137
35.820       147
35.840       150
35.860       127
35.880       133
35.900       130
35.920       140
35.940       130
35.960       140
35.980       120
36.000        77
36.020       110
36.040       123
36.060       137
36.080       110
36.100       103
36.120       137
36.140        93
36.160       103
36.180       107
36.200        63
36.220        90
36.240       113
36.260       130
36.280       103
36.300       107
36.320       110
36.340        93
36.360       123
36.380        73
36.400        93
36.420       110
36.440        97
36.460       120
36.480       123
36.500        93
36.520        93
36.540        90
36.560       120
36.580        93
36.600       110
36.620        87
36.640       117
36.660        97
36.680       113
36.700       117
36.720        93
36.740        87
36.760       107
36.780       103
36.800       107
36.820       123
36.840       127
36.860        77
36.880       100
36.900        97
36.920        90
36.940        80
36.960        60
36.980        97
37.000        93
37.020        83
37.040       103
37.060       103
37.080       120
37.100        67
37.120        80
37.140       103
37.160        93
37.180        83
37.200        90
37.220       107
37.240        63
37.260        87
37.280        70
37.300       103
37.320        70
37.340        97
37.360       100
37.380        97
37.400       120
37.420        50
37.440        93
37.460        87
37.480       110
37.500        90
37.520       107
37.540        83
37.560        70
37.580        70
37.600        93
37.620        83
37.640       103
37.660        63
37.680       107
37.700        93
37.720        70
37.740        87
37.760        87
37.780       107
37.800        73
37.820        63
37.840        83
37.860       107
37.880        73
37.900        80
37.920        80
37.940        97
37.960        93
37.980        77
38.000        90
38.020        90
38.040        87
38.060        90
38.080        47
38.100        70
38.120        73
38.140        83
38.160        90
38.180       123
38.200        83
38.220       117
38.240        77
38.260       103
38.280       100
38.300        87
38.320        93
38.340        57
38.360       103
38.380        70
38.400       113
38.420        80
38.440        70
38.460        80
38.480        77
38.500        87
38.520        73
38.540        83
38.560        77
38.580        70
38.600        90
38.620        80
38.640        73
38.660        87
38.680        80
38.700        90
38.720       107
38.740       113
38.760        87
38.780       100
38.800       153
38.820       150
38.840       120
38.860       113
38.880       113
38.900       143
38.920       113
38.940       120
38.960       130
38.980       127
39.000       140
39.020       103
39.040       123
39.060       143
39.080       107
39.100       123
39.120        90
39.140       137
39.160       140
39.180        97
39.200       147
39.220       150
39.240       107
39.260       137
39.280       130
39.300       103
39.320       137
39.340       123
39.360       127
39.380       117
39.400       130
39.420       100
39.440       133
39.460        93
39.480       123
39.500       123
39.520       107
39.540        77
39.560        87
39.580        77
39.600        90
39.620       100
39.640        83
39.660        90
39.680        43
39.700       107
39.720        97
39.740        63
39.760        87
39.780        80
39.800        77
39.820        67
39.840        70
39.860        70
39.880        53
39.900        67
39.920        60
39.940       110
39.960        93
39.980        70
40.000       100
40.020        63
40.040        83
40.060        53
40.080        70
40.100        70
40.120        47
40.140        67
40.160        60
40.180        53
40.200        67
40.220        40
40.240        80
40.260        70
40.280        57
40.300        43
40.320        73
40.340        70
40.360        83
40.380        47
40.400        47
40.420        67
40.440        77
40.460        47
40.480        87
40.500        60
40.520        67
40.540        73
40.560        80
40.580        57
40.600       103
40.620        83
40.640        83
40.660        57
40.680        73
40.700        47
40.720        53
40.740        73
40.760        57
40.780        80
40.800        53
40.820        40
40.840        63
40.860        80
40.880        47
40.900        53
40.920        47
40.940        27
40.960        47
40.980        93
41.000        63
41.020        70
41.040        57
41.060        67
41.080        13
41.100        33
41.120        27
41.140        47
41.160        33
41.180        63
41.200        53
41.220        57
41.240        40
41.260        60
41.280        47
41.300        37
41.320        63
41.340        37
41.360        30
41.380        47
41.400        53
41.420        73
41.440        33
41.460        50
41.480        60
41.500        50
41.520        57
41.540        37
41.560        53
41.580        60
41.600        50
41.620        40
41.640        70
41.660        80
41.680        47
41.700        50
41.720        43
41.740        60
41.760        43
41.780        50
41.800        43
41.820        53
41.840        67
41.860        50
41.880        40
41.900        37
41.920        43
41.940        50
41.960        53
41.980        40
42.000        67
42.020        60
42.040        43
42.060        67
42.080        43
42.100        33
42.120        30
42.140        37
42.160        47
42.180        33
42.200        63
42.220        20
42.240        57
42.260        47
42.280        67
42.300        63
42.320        57
42.340        60
42.360        57
42.380        30
42.400        30
42.420        67
42.440        47
42.460        30
42.480        37
42.500        70
42.520        93
42.540        57
42.560        43
42.580        40
42.600        37
42.620        40
42.640        40
42.660        40
42.680        33
42.700        50
42.720        50
42.740        70
42.760        67
42.780        43
42.800        40
42.820        40
42.840        67
42.860        33
42.880        47
42.900        57
42.920        57
42.940        43
42.960        67
42.980        57
43.000        57
43.020        53
43.040        47
43.060        43
43.080        47
43.100        40
43.120        47
43.140        47
43.160        77
43.180        47
43.200        57
43.220        50
43.240        63
43.260        77
43.280        37
43.300        67
43.320        50
43.340        63
43.360        43
43.380        53
43.400        47
43.420        27
43.440        20
43.460        57
43.480        60
43.500        53
43.520        57
43.540        50
43.560        77
43.580        63
43.600        47
43.620        60
43.640        37
43.660        40
43.680        47
43.700        63
43.720        40
43.740        67
43.760        43
43.780        60
43.800        47
43.820        50
43.840        47
43.860        30
43.880        47
43.900        20
43.920        40
43.940        30
43.960        27
43.980        47
44.000        57
44.020        53
44.040        27
44.060        57
44.080        40
44.100        53
44.120        43
44.140        40
44.160        50
44.180        37
44.200        53
44.220        77
44.240        37
44.260        63
44.280        33
44.300        70
44.320        33
44.340        47
44.360        60
44.380        53
44.400        57
44.420        40
44.440        80
44.460        53
44.480        40
44.500        47
44.520        33
44.540        73
44.560        63
44.580        50
44.600        80
44.620        43
44.640        60
44.660        73
44.680        67
44.700        33
44.720        63
44.740        73
44.760        73
44.780        63
44.800        73
44.820        60
44.840        57
44.860        83
44.880        60
44.900        57
44.920        70
44.940        83
44.960       130
44.980        57
45.000        93
45.020        57
45.040        97
45.060       113
45.080        77
45.100        87
45.120       120
45.140        87
45.160       103
45.180       103
45.200       103
45.220       150
45.240        80
45.260       110
45.280       113
45.300        93
45.320        97
45.340       110
45.360        83
45.380        87
45.400        83
45.420        87
45.440       117
45.460        80
45.480        83
45.500        97
45.520       100
45.540       110
45.560        73
45.580        83
45.600        60
45.620        80
45.640        90
45.660        83
45.680       107
45.700        70
45.720        73
45.740       103
45.760        53
45.780        87
45.800        47
45.820        37
45.840        47
45.860        40
45.880        67
45.900        50
45.920        90
45.940        70
45.960        63
45.980        53
46.000        80
46.020        83
46.040        77
46.060        53
46.080        53
46.100        50
46.120        60
46.140        33
46.160        33
46.180        50
46.200        57
46.220        53
46.240        57
46.260        43
46.280        57
46.300        67
46.320        50
46.340        40
46.360        33
46.380        57
46.400        37
46.420        50
46.440        43
46.460        53
46.480        20
46.500        60
46.520        67
46.540        63
46.560        50
46.580        53
46.600        47
46.620        47
46.640        63
46.660        63
46.680        40
46.700        53
46.720        47
46.740        60
46.760        27
46.780        70
46.800        50
46.820        63
46.840        70
46.860        57
46.880        73
46.900        47
46.920        40
46.940        83
46.960        70
46.980        97
47.000        70
47.020        43
47.040       100
47.060        53
47.080       137
47.100       117
47.120       140
47.140       190
47.160       223
47.180       307
47.200       586
47.220      1040
47.240      1183
47.260      1369
47.280      1130
47.300       786
47.320       423
47.340       270
47.360       170
47.380       143
47.400       113
47.420       113
47.440       143
47.460       103
47.480       107
47.500        97
47.520        90
47.540       117
47.560       110
47.580        77
47.600        67
47.620        77
47.640        77
47.660        60
47.680        77
47.700        30
47.720        63
47.740        70
47.760        90
47.780        77
47.800        63
47.820        47
47.840        20
47.860        37
47.880        70
47.900        53
47.920        63
47.940        63
47.960        70
47.980        73
48.000        40
48.020        50
48.040        57
48.060        30
48.080        47
48.100        60
48.120        60
48.140        50
48.160        83
48.180        27
48.200        47
48.220        43
48.240        33
48.260        40
48.280        67
48.300        60
48.320        63
48.340        53
48.360        60
48.380        80
48.400        67
48.420        60
48.440        77
48.460        50
48.480        67
48.500        60
48.520        43
48.540        40
48.560        67
48.580        80
48.600        50
48.620        63
48.640        73
48.660        40
48.680        53
48.700        60
48.720        70
48.740        30
48.760        40
48.780        33
48.800        27
48.820        43
48.840        57
48.860        23
48.880        47
48.900        47
48.920        40
48.940        77
48.960        50
48.980        43
49.000        47
49.020        53
49.040        40
49.060        47
49.080        63
49.100        47
49.120        47
49.140        47
49.160        43
49.180        53
49.200        47
49.220        40
49.240        40
49.260        50
49.280        43
49.300        63
49.320        47
49.340        63
49.360        20
49.380        30
49.400        37
49.420        43
49.440        67
49.460        37
49.480        63
49.500        57
49.520        67
49.540        53
49.560        53
49.580        40
49.600        67
49.620        27
49.640        50
49.660        37
49.680        47
49.700        40
49.720        40
49.740        53
49.760        37
49.780        33
49.800        57
49.820        43
49.840        60
49.860        60
49.880        47
49.900        47
49.920        50
49.940        40
49.960        50
49.980        40
50.000        70
50.020        37
50.040        30
50.060        40
50.080        47
50.100        47
50.120        37
50.140        43
50.160        47
50.180        37
50.200        37
50.220        63
50.240        47
50.260        27
50.280        40
50.300        30
50.320        53
50.340        37
50.360        27
50.380        50
50.400        23
50.420        23
50.440        17
50.460        90
50.480        40
50.500        67
50.520        53
50.540        33
50.560        33
50.580        40
50.600        43
50.620        53
50.640        60
50.660        60
50.680        90
50.700       150
50.720       193
50.740       203
50.760       227
50.780       320
50.800       273
50.820       303
50.840       340
50.860       367
50.880       390
50.900       357
50.920       303
50.940       353
50.960       380
50.980       357
51.000       363
51.020       327
51.040       413
51.060       420
51.080       333
51.100       387
51.120       380
51.140       350
51.160       413
51.180       357
51.200       360
51.220       367
51.240       436
51.260       413
51.280       367
51.300       450
51.320       410
51.340       410
51.360       303
51.380       373
51.400       380
51.420       327
51.440       337
51.460       370
51.480       403
51.500       317
51.520       420
51.540       403
51.560       347
51.580       417
51.600       407
51.620       333
51.640       426
51.660       403
51.680       350
51.700       400
51.720       360
51.740       400
51.760       397
51.780       357
51.800       446
51.820       433
51.840       463
51.860       373
51.880       420
51.900       463
51.920       403
51.940       423
51.960       490
51.980       456
52.000       417
52.020       500
52.040       466
52.060       483
52.080       513
52.100       523
52.120       633
52.140       553
52.160       530
52.180       556
52.200       700
52.220       683
52.240       850
52.260       830
52.280       926
52.300      1096
52.320      1143
52.340      1509
52.360      1933
52.380      2476
52.400      2852
52.420      3619
52.440      4382
52.460      5095
52.480      5851
52.500      7047
52.520      8537
52.540     10696
52.560     15654
52.580     28142
52.600     61725
52.620    114094
52.640    143143
52.660    148394
52.680    123097
52.700     72908
52.720     39984
52.740     44459
52.760     67506
52.780     83603
52.800     83517
52.820     68749
52.840     40447
52.860     16997
52.880      8647
52.900      6248
52.920      4322
52.940      3359
52.960      2429
52.980      2006
53.000      1629
53.020      1356
53.040      1243
53.060      1220
53.080       960
53.100      1026
53.120       886
53.140       760
53.160       740
53.180       713
53.200       660
53.220       730
53.240       616
53.260       610
53.280       520
53.300       540
53.320       456
53.340       550
53.360       576
53.380       493
53.400       550
53.420       417
53.440       513
53.460       456
53.480       417
53.500       410
53.520       410
53.540       436
53.560       343
53.580       373
53.600       353
53.620       476
53.640       367
53.660       403
53.680       436
53.700       397
53.720       363
53.740       353
53.760       333
53.780       327
53.800       357
53.820       380
53.840       403
53.860       317
53.880       303
53.900       357
53.920       333
53.940       370
53.960       310
53.980       277
54.000       343
54.020       340
54.040       300
54.060       323
54.080       287
54.100       253
54.120       343
54.140       367
54.160       323
54.180       253
54.200       253
54.220       233
54.240       323
54.260       277
54.280       307
54.300       260
54.320       247
54.340       293
54.360       263
54.380       220
54.400       227
54.420       257
54.440       253
54.460       320
54.480       277
54.500       233
54.520       193
54.540       240
54.560       340
54.580       277
54.600       230
54.620       260
54.640       243
54.660       253
54.680       233
54.700       277
54.720       227
54.740       223
54.760       243
54.780       237
54.800       223
54.820       233
54.840       187
54.860       200
54.880       237
54.900       213
54.920       277
54.940       253
54.960       230
54.980       247
55.000       247
55.020       303
55.040       257
55.060       213
55.080       260
55.100       250
55.120       217
55.140       260
55.160       223
55.180       230
55.200       220
55.220       243
55.240       233
55.260       210
55.280       273
55.300       230
55.320       223
55.340       203
55.360       220
55.380       170
55.400       193
55.420       187
55.440       207
55.460       223
55.480       163
55.500       187
55.520       187
55.540       203
55.560       230
55.580       180
55.600       210
55.620       183
55.640       193
55.660       227
55.680       187
55.700       190
55.720       223
55.740       170
55.760       167
55.780       163
55.800       197
55.820       243
55.840       200
55.860       237
55.880       160
55.900       237
55.920       180
55.940       203
55.960       190
55.980       197
56.000       187
56.020       190
56.040       200
56.060       170
56.080       173
56.100       220
56.120       180
56.140       227
56.160       177
56.180       210
56.200       117
56.220       220
56.240       230
56.260       180
56.280       177
56.300       167
56.320       133
56.340       203
56.360       170
56.380       177
56.400       197
56.420       167
56.440       180
56.460       177
56.480       180
56.500       237
56.520       157
56.540       167
56.560       203
56.580       160
56.600       217
56.620       167
56.640       180
56.660       150
56.680       177
56.700       193
56.720       193
56.740       167
56.760       200
56.780       140
56.800       170
56.820       160
56.840       163
56.860       130
56.880       133
56.900       157
56.920       163
56.940       147
56.960       193
56.980       173
57.000       163
57.020       170
57.040       193
57.060       150
57.080       153
57.100       140
57.120       173
57.140       153
57.160       207
57.180       170
57.200       150
57.220       167
57.240       160
57.260       190
57.280       153
57.300       150
57.320       170
57.340       183
57.360       140
57.380       183
57.400       180
57.420       190
57.440       153
57.460       187
57.480       167
57.500       207
57.520       150
57.540       127
57.560       163
57.580       173
57.600       137
57.620       153
57.640       133
57.660       147
57.680       107
57.700       163
57.720       150
57.740       130
57.760       130
57.780       113
57.800       143
57.820       123
57.840       147
57.860       127
57.880       157
57.900       147
57.920        97
57.940       170
57.960       170
57.980       123
58.000       123
58.020       143
58.040       133
58.060       147
58.080       127
58.100       143
58.120       107
58.140       140
58.160       133
58.180       173
58.200       137
58.220       143
58.240       140
58.260       120
58.280       150
58.300       127
58.320       163
58.340       127
58.360       133
58.380       137
58.400       123
58.420       117
58.440       157
58.460       147
58.480       107
58.500       137
58.520       133
58.540       140
58.560       137
58.580       137
58.600       117
58.620       167
58.640       157
58.660       123
58.680       123
58.700       153
58.720       107
58.740        93
58.760        70
58.780       127
58.800       143
58.820       103
58.840       153
58.860       110
58.880       123
58.900       137
58.920       113
58.940       147
58.960       150
58.980       137
59.000       143
59.020       117
59.040       133
59.060       163
59.080       113
59.100       147
59.120        93
59.140       127
59.160       153
59.180       103
59.200       133
59.220        87
59.240       143
59.260       133
59.280       120
59.300       123
59.320       107
59.340       117
59.360       130
59.380       103
59.400       130
59.420       157
59.440       113
59.460       113
59.480       140
59.500       127
59.520       113
59.540       140
59.560        97
59.580       117
59.600       127
59.620       120
59.640       103
59.660       127
59.680       120
59.700        93
59.720       117
59.740       120
59.760       127
59.780       150
59.800       127
59.820       140
59.840       113
59.860       110
59.880        90
59.900       133
59.920        70
59.940       110
59.960        77
59.980       130
60.000       107
