20.000         0
20.020         0
20.040         0
20.060        67
20.080        70
20.100       103
20.120        77
20.140        73
20.160        57
20.180        97
20.200        87
20.220        93
20.240        70
20.260        73
20.280        80
20.300       113
20.320       103
20.340        87
20.360        47
20.380        83
20.400        93
20.420        87
20.440        80
20.460        93
20.480        53
20.500        70
20.520       120
20.540        83
20.560        67
20.580        63
20.600        83
20.620        53
20.640       107
20.660        80
20.680        87
20.700       103
20.720        60
20.740        70
20.760        90
20.780        67
20.800        73
20.820       110
20.840        77
20.860        70
20.880        83
20.900        70
20.920        83
20.940        90
20.960        87
20.980        53
21.000        60
21.020        67
21.040        83
21.060        60
21.080        50
21.100        93
21.120        67
21.140        87
21.160        97
21.180        90
21.200        93
21.220        70
21.240       107
21.260        93
21.280        67
21.300        77
21.320        87
21.340        93
21.360        87
21.380        93
21.400        70
21.420        77
21.440        90
21.460        77
21.480        73
21.500       103
21.520        50
21.540        83
21.560        63
21.580        90
21.600        87
21.620        70
21.640        80
21.660        80
21.680        77
21.700       113
21.720        93
21.740        83
21.760        70
21.780        87
21.800        83
21.820        73
21.840        87
21.860       110
21.880        67
21.900       103
21.920        87
21.940        90
21.960        57
21.980        57
22.000        87
22.020       123
22.040        73
22.060        93
22.080        83
22.100       120
22.120       103
22.140        83
22.160        73
22.180        83
22.200        63
22.220       123
22.240       113
22.260        90
22.280        90
22.300       100
22.320       123
22.340        90
22.360       107
22.380       110
22.400       103
22.420       123
22.440       113
22.460       140
22.480       140
22.500       123
22.520       147
22.540       133
22.560        90
22.580        93
22.600        93
22.620       113
22.640       100
22.660        93
22.680       127
22.700        97
22.720       100
22.740        87
22.760        57
22.780       110
22.800       100
22.820        70
22.840        83
22.860        93
22.880        63
22.900        90
22.920        83
22.940        63
22.960        57
22.980        80
23.000        90
23.020        80
23.040       103
23.060        53
23.080        80
23.100        77
23.120        60
23.140        83
23.160        73
23.180        60
23.200        60
23.220        57
23.240        50
23.260        77
23.280        60
23.300        67
23.320        77
23.340        67
23.360        70
23.380        60
23.400       103
23.420        63
23.440        90
23.460        83
23.480        80
23.500        67
23.520        70
23.540        60
23.560        67
23.580        63
23.600        63
23.620        63
23.640        53
23.660        67
23.680        50
23.700        67
23.720        70
23.740        47
23.760        60
23.780        87
23.800        63
23.820        73
23.840        80
23.860        67
23.880        57
23.900        93
23.920        83
23.940        63
23.960        53
23.980        73
24.000        50
24.020        50
24.040       100
24.060        83
24.080        57
24.100        87
24.120        83
24.140        90
24.160        60
24.180        37
24.200        83
24.220        53
24.240        73
24.260        73
24.280        67
24.300        63
24.320        47
24.340        80
24.360        60
24.380        67
24.400        87
24.420        77
24.440        67
24.460        87
24.480        43
24.500        77
24.520        77
24.540        67
24.560        60
24.580        60
24.600        70
24.620        70
24.640        57
24.660        70
24.680        53
24.700        63
24.720        60
24.740        47
24.760        67
24.780        73
24.800        73
24.820       100
24.840        67
24.860        57
24.880        70
24.900        63
24.920        77
24.940        53
24.960        60
24.980        43
25.000        47
25.020        63
25.040        73
25.060        80
25.080        70
25.100        63
25.120        67
25.140        57
25.160        57
25.180        73
25.200        70
25.220        70
25.240        73
25.260        97
25.280        57
25.300        63
25.320        43
25.340        80
25.360        33
25.380        63
25.400        53
25.420        70
25.440        57
25.460        63
25.480        40
25.500        50
25.520        43
25.540        73
25.560        83
25.580        77
25.600        63
25.620        37
25.640        67
25.660        53
25.680        60
25.700        63
25.720        40
25.740        60
25.760        47
25.780        70
25.800        50
25.820        80
25.840        83
25.860        47
25.880        63
25.900        67
25.920        60
25.940        43
25.960        60
25.980        50
26.000        73
26.020        67
26.040        33
26.060        67
26.080        67
26.100        43
26.120        70
26.140        73
26.160        57
26.180        80
26.200        47
26.220        53
26.240        50
26.260        67
26.280        70
26.300        83
26.320        53
26.340        83
26.360        67
26.380        90
26.400        83
26.420        50
26.440        60
26.460        40
26.480        57
26.500        60
26.520        40
26.540        70
26.560        67
26.580        73
26.600        53
26.620        43
26.640        53
26.660        47
26.680        43
26.700        70
26.720        57
26.740        80
26.760        33
26.780        77
26.800        60
26.820        43
26.840        67
26.860        63
26.880        43
26.900        73
26.920        57
26.940        50
26.960        73
26.980        50
27.000        53
27.020        73
27.040        73
27.060        70
27.080        73
27.100        53
27.120        60
27.140        77
27.160        93
27.180        90
27.200        73
27.220        47
27.240        60
27.260        67
27.280        67
27.300        47
27.320        53
27.340        47
27.360        57
27.380        47
27.400        80
27.420        53
27.440        57
27.460        77
27.480        67
27.500        77
27.520        63
27.540        93
27.560        47
27.580        57
27.600        60
27.620        43
27.640        40
27.660        70
27.680        57
27.700        57
27.720        63
27.740        83
27.760        63
27.780        73
27.800        37
27.820        37
27.840        33
27.860        47
27.880        50
27.900        50
27.920        77
27.940        30
27.960        53
27.980        50
28.000        40
28.020        57
28.040        33
28.060        70
28.080        30
28.100        40
28.120        20
28.140        60
28.160        40
28.180        43
28.200        43
28.220        57
28.240        70
28.260        53
28.280        53
28.300        47
28.320        60
28.340        80
28.360        53
28.380        60
28.400        30
28.420        37
28.440        40
28.460        43
28.480        23
28.500        47
28.520        57
28.540        57
28.560        27
28.580        37
28.600        53
28.620        37
28.640        27
28.660        50
28.680        37
28.700        43
28.720        37
28.740        57
28.760        33
28.780        43
28.800        30
28.820        50
28.840        23
28.860        40
28.880        40
28.900        37
28.920        40
28.940        60
28.960        43
28.980        33
29.000        40
29.020        50
29.040        47
29.060        63
29.080        53
29.100        53
29.120        77
29.140        43
29.160        43
29.180        33
29.200        40
29.220        53
29.240        50
29.260        77
29.280        57
29.300        70
29.320        53
29.340        60
29.360        67
29.380        53
29.400        67
29.420        70
29.440        47
29.460        43
29.480        77
29.500        53
29.520        50
29.540        53
29.560        80
29.580        57
29.600        67
29.620        63
29.640        37
29.660        53
29.680        40
29.700        50
29.720        33
29.740        40
29.760        43
29.780        63
29.800        63
29.820        30
29.840        53
29.860        47
29.880        50
29.900        57
29.920        33
29.940        40
29.960        47
29.980        43
30.000        37
30.020        33
30.040        70
30.060        37
30.080        40
30.100        53
30.120        53
30.140        47
30.160        40
30.180        43
30.200        43
30.220        33
30.240        47
30.260        30
30.280        53
30.300        83
30.320        57
30.340        37
30.360        30
30.380        67
30.400        17
30.420        50
30.440        37
30.460        43
30.480        20
30.500        50
30.520         7
30.540        33
30.560        57
30.580        43
30.600        40
30.620        50
30.640        43
30.660        40
30.680        40
30.700        50
30.720        50
30.740        27
30.760        33
30.780        63
30.800        30
30.820        37
30.840        57
30.860        57
30.880        53
30.900        40
30.920        50
30.940        77
30.960        43
30.980        37
31.000        43
31.020        37
31.040        37
31.060        40
31.080        37
31.100        37
31.120        50
31.140        43
31.160        53
31.180        53
31.200        60
31.220        43
31.240        27
31.260        37
31.280        60
31.300        33
31.320        47
31.340        53
31.360        33
31.380        43
31.400        43
31.420        37
31.440        53
31.460        37
31.480        43
31.500        33
31.520        43
31.540        30
31.560        43
31.580        67
31.600        60
31.620        33
31.640        23
31.660        53
31.680        63
31.700        40
31.720        50
31.740        33
31.760        60
31.780        57
31.800        53
31.820        67
31.840        90
31.860       107
31.880        70
31.900       110
31.920        80
31.940        90
31.960        90
31.980        83
32.000       103
32.020       110
32.040       110
32.060       113
32.080       113
32.100       103
32.120        77
32.140        97
32.160        97
32.180        87
32.200        77
32.220       110
32.240        97
32.260        63
32.280        97
32.300        80
32.320       110
32.340        97
32.360        70
32.380        50
32.400        53
32.420        77
32.440        73
32.460        70
32.480        30
32.500        60
32.520        57
32.540        63
32.560        40
32.580        43
32.600        60
32.620        50
32.640        53
32.660        57
32.680        43
32.700        40
32.720        50
32.740        43
32.760        43
32.780        57
32.800        37
32.820        30
32.840        47
32.860        43
32.880        37
32.900        57
32.920        47
32.940        43
32.960        50
32.980        17
33.000        43
33.020        47
33.040        67
33.060        23
33.080        47
33.100        47
33.120        20
33.140        30
33.160        47
33.180        37
33.200        23
33.220        33
33.240        17
33.260        33
33.280        33
33.300        30
33.320        60
33.340        20
33.360        37
33.380        40
33.400        40
33.420        33
33.440        43
33.460        67
33.480        37
33.500        67
33.520        43
33.540        37
33.560        50
33.580        40
33.600        43
33.620        63
33.640        30
33.660        23
33.680        47
33.700        30
33.720        37
33.740        37
33.760        50
33.780        53
33.800        13
33.820        40
33.840        53
33.860        47
33.880        60
33.900        50
33.920        27
33.940        30
33.960        30
33.980        33
34.000        27
34.020        40
34.040        33
34.060        43
34.080        20
34.100        53
34.120        47
34.140        13
34.160        30
34.180        43
34.200        43
34.220        30
34.240        33
34.260        30
34.280        43
34.300        43
34.320        43
34.340        43
34.360        33
34.380        43
34.400        53
34.420        53
34.440        40
34.460        43
34.480        47
34.500        50
34.520        37
34.540        33
34.560        50
34.580        50
34.600        47
34.620        40
34.640        30
34.660        33
34.680        53
34.700        27
34.720        20
34.740        73
34.760        57
34.780        67
34.800        70
34.820        63
34.840        53
34.860        87
34.880        83
34.900        57
34.920        90
34.940       107
34.960        77
34.980       117
35.000       107
35.020       100
35.040       127
35.060        97
35.080        73
35.100       107
35.120       110
35.140       150
35.160        90
35.180       107
35.200        70
35.220        63
35.240        73
35.260        80
35.280       110
35.300        87
35.320        70
35.340        57
35.360        83
35.380        57
35.400        90
35.420        60
35.440        40
35.460        43
35.480        60
35.500        70
35.520        33
35.540        23
35.560        63
35.580        33
35.600        63
35.620        43
35.640        50
35.660        37
35.680        53
35.700        40
35.720        40
35.740        43
35.760        47
35.780        37
35.800        37
35.820        47
35.840        40
35.860        27
35.880        57
35.900        43
35.920        40
35.940        20
35.960        43
35.980        37
36.000        30
36.020        43
36.040        33
36.060        27
36.080        40
36.100        53
36.120        50
36.140        30
36.160        23
36.180        20
36.200        33
36.220        37
36.240        37
36.260        20
36.280        47
36.300        33
36.320        40
36.340        37
36.360        43
36.380        20
36.400        40
36.420        33
36.440        50
36.460        37
36.480        47
36.500        47
36.520        43
36.540        40
36.560        17
36.580        33
36.600        57
36.620        60
36.640        27
36.660        30
36.680        47
36.700        20
36.720        33
36.740        33
36.760        47
36.780        57
36.800        43
36.820        33
36.840        47
36.860        37
36.880        50
36.900        40
36.920        47
36.940        43
36.960        27
36.980        33
37.000        37
37.020        27
37.040        47
37.060        47
37.080        40
37.100        30
37.120        37
37.140        37
37.160        43
37.180        47
37.200        53
37.220        20
37.240        47
37.260        43
37.280        20
37.300        30
37.320        30
37.340        23
37.360        17
37.380        47
37.400        43
37.420        23
37.440        33
37.460        27
37.480        50
37.500        33
37.520        50
37.540        20
37.560        33
37.580        13
37.600        33
37.620        43
37.640        47
37.660        13
37.680        27
37.700        20
37.720        47
37.740        40
37.760        40
37.780        40
37.800        23
37.820        23
37.840        20
37.860        37
37.880        53
37.900        43
37.920        43
37.940        27
37.960        53
37.980        33
38.000        30
38.020        33
38.040        23
38.060        50
38.080        33
38.100        20
38.120        43
38.140        37
38.160        33
38.180        47
38.200        30
38.220        40
38.240        20
38.260         0
38.280        37
38.300        47
38.320        23
38.340        57
38.360        53
38.380        30
38.400        30
38.420        27
38.440        47
38.460        40
38.480        27
38.500        17
38.520        70
38.540        27
38.560        37
38.580        27
38.600        30
38.620        57
38.640        37
38.660        27
38.680        33
38.700        33
38.720        37
38.740        17
38.760        40
38.780        50
38.800        33
38.820        17
38.840        10
38.860        50
38.880        33
38.900        40
38.920        33
38.940        40
38.960        27
38.980        40
39.000        23
39.020        47
39.040        40
39.060        30
39.080        37
39.100        53
39.120        37
39.140        60
39.160        37
39.180        43
39.200        43
39.220        83
39.240        57
39.260        50
39.280        37
39.300        30
39.320        57
39.340        50
39.360        60
39.380        33
39.400        40
39.420        53
39.440        40
39.460        43
39.480        80
39.500        20
39.520        57
39.540        60
39.560        50
39.580        63
39.600        60
39.620        60
39.640        43
39.660        57
39.680        67
39.700        43
39.720        83
39.740        80
39.760        53
39.780        60
39.800        43
39.820        30
39.840        67
39.860        33
39.880        17
39.900        60
39.920        53
39.940        43
39.960        33
39.980        30
40.000        33
40.020        47
40.040        30
40.060        23
40.080        40
40.100        30
40.120        40
40.140        37
40.160        37
40.180        40
40.200        40
40.220        47
40.240        30
40.260         7
40.280        30
40.300        40
40.320        37
40.340        27
40.360        37
40.380        37
40.400        20
40.420        37
40.440        23
40.460        33
40.480        27
40.500        23
40.520        33
40.540        20
40.560        37
40.580        20
40.600        27
40.620        33
40.640        23
40.660        40
40.680        27
40.700        27
40.720        27
40.740        30
40.760        33
40.780        33
40.800        13
40.820        40
40.840        27
40.860        23
40.880        43
40.900        30
40.920        23
40.940        57
40.960        23
40.980        27
41.000        23
41.020        10
41.040        30
41.060        40
41.080        23
41.100        23
41.120        30
41.140        27
41.160        43
41.180        33
41.200        37
41.220        27
41.240        17
41.260        43
41.280        43
41.300        27
41.320        10
41.340        40
41.360        47
41.380        43
41.400        30
41.420        23
41.440        43
41.460        27
41.480        27
41.500        27
41.520        33
41.540        33
41.560        17
41.580        47
41.600        37
41.620        30
41.640        23
41.660        30
41.680        23
41.700        40
41.720        27
41.740        23
41.760        37
41.780        37
41.800        33
41.820        43
41.840        40
41.860        43
41.880        23
41.900        33
41.920        27
41.940        27
41.960        30
41.980        30
42.000        40
42.020        23
42.040        37
42.060        37
42.080        17
42.100        17
42.120        33
42.140        20
42.160        40
42.180        33
42.200        27
42.220        33
42.240        27
42.260        47
42.280        37
42.300        37
42.320        20
42.340        43
42.360        23
42.380        30
42.400        53
42.420        33
42.440        33
42.460        63
42.480        17
42.500        23
42.520        20
42.540        37
42.560        30
42.580        50
42.600        37
42.620        33
42.640        17
42.660        60
42.680        27
42.700        20
42.720        53
42.740        57
42.760        40
42.780        27
42.800        27
42.820        27
42.840        13
42.860        43
42.880        43
42.900        40
42.920        27
42.940        17
42.960        53
42.980        27
43.000        30
43.020        33
43.040        63
43.060        43
43.080        37
43.100        10
43.120        17
43.140        43
43.160        33
43.180        30
43.200        37
43.220        47
43.240        33
43.260        27
43.280        13
43.300        33
43.320        20
43.340        23
43.360        37
43.380        23
43.400        23
43.420        43
43.440        30
43.460        27
43.480        50
43.500        27
43.520        43
43.540        40
43.560        27
43.580        23
43.600        23
43.620        27
43.640        13
43.660        23
43.680        30
43.700        47
43.720        33
43.740        40
43.760        43
43.780        23
43.800        33
43.820        47
43.840        37
43.860        30
43.880        43
43.900        50
43.920        23
43.940        10
43.960        47
43.980        40
44.000        23
44.020        67
44.040        23
44.060        37
44.080        37
44.100        30
44.120        43
44.140        33
44.160        37
44.180        23
44.200        30
44.220        20
44.240        30
44.260        17
44.280        63
44.300        27
44.320        33
44.340        20
44.360        23
44.380        13
44.400        43
44.420        37
44.440        50
44.460        27
44.480        20
44.500        17
44.520        53
44.540        30
44.560        33
44.580        20
44.600        20
44.620        17
44.640        27
44.660        50
44.680        53
44.700        30
44.720        33
44.740        47
44.760        40
44.780        43
44.800        30
44.820        43
44.840        40
44.860        30
44.880        53
44.900        23
44.920        43
44.940        33
44.960        27
44.980        43
45.000        47
45.020        53
45.040        37
45.060        37
45.080        40
45.100        40
45.120        57
45.140        50
45.160        23
45.180        43
45.200        57
45.220        40
45.240        50
45.260        30
45.280        43
45.300        47
45.320        57
45.340        33
45.360        73
45.380        67
45.400        63
45.420        57
45.440        70
45.460        83
45.480        97
45.500        97
45.520        90
45.540        87
45.560        90
45.580        90
45.600        90
45.620       110
45.640       127
45.660       100
45.680       100
45.700       137
45.720       157
45.740       143
45.760       173
45.780       160
45.800       163
45.820       190
45.840       193
45.860       167
45.880       147
45.900       163
45.920       173
45.940       213
45.960       230
45.980       143
46.000       177
46.020       153
46.040       187
46.060       197
46.080       180
46.100       237
46.120       133
46.140       177
46.160       143
46.180       170
46.200       163
46.220       167
46.240       167
46.260       167
46.280       117
46.300       150
46.320       127
46.340        87
46.360        97
46.380       130
46.400       103
46.420       120
46.440       120
46.460       127
46.480        93
46.500        93
46.520        73
46.540        90
46.560        73
46.580       117
46.600       100
46.620        70
46.640        67
46.660        70
46.680        57
46.700        57
46.720        70
46.740        63
46.760        60
46.780        67
46.800        70
46.820        63
46.840        53
46.860        50
46.880        47
46.900        40
46.920        47
46.940        40
46.960        67
46.980        50
47.000        33
47.020        50
47.040        60
47.060        50
47.080        47
47.100        17
47.120        27
47.140        43
47.160        37
47.180        37
47.200        43
47.220        37
47.240        47
47.260        23
47.280        23
47.300        33
47.320        33
47.340        40
47.360        30
47.380        43
47.400        17
47.420        63
47.440        27
47.460        47
47.480        30
47.500        53
47.520        47
47.540        60
47.560        20
47.580        37
47.600        20
47.620        40
47.640        27
47.660        33
47.680        10
47.700        20
47.720        43
47.740        63
47.760        20
47.780        30
47.800        30
47.820        17
47.840        37
47.860        50
47.880        10
47.900        43
47.920        27
47.940        20
47.960        30
47.980        30
48.000        17
48.020        47
48.040        43
48.060        30
48.080        37
48.100        33
48.120        60
48.140        27
48.160        40
48.180        10
48.200        23
48.220        30
48.240        33
48.260        43
48.280        27
48.300        33
48.320        43
48.340        37
48.360        27
48.380        17
48.400        17
48.420        17
48.440        37
48.460        23
48.480        33
48.500        40
48.520        40
48.540        30
48.560        27
48.580        43
48.600        37
48.620        30
48.640        17
48.660        27
48.680        40
48.700        27
48.720        43
48.740        17
48.760        20
48.780        37
48.800        30
48.820        20
48.840        50
48.860        17
48.880        23
48.900        23
48.920        40
48.940        27
48.960        23
48.980        23
49.000        43
49.020        33
49.040        23
49.060        33
49.080        13
49.100        23
49.120        50
49.140        27
49.160        20
49.180        43
49.200        13
49.220        47
49.240        47
49.260        33
49.280        17
49.300        40
49.320        23
49.340        43
49.360        27
49.380        43
49.400        33
49.420        23
49.440        23
49.460        33
49.480        30
49.500        17
49.520        20
49.540        23
49.560        23
49.580        27
49.600        17
49.620        47
49.640        33
49.660        40
49.680        13
49.700        33
49.720        20
49.740        33
49.760        23
49.780        43
49.800        53
49.820        17
49.840        43
49.860        27
49.880        17
49.900        40
49.920        37
49.940        37
49.960        37
49.980        27
50.000        37
50.020        37
50.040        20
50.060        47
50.080        37
50.100        20
50.120        30
50.140        30
50.160        30
50.180        17
50.200        43
50.220        20
50.240        17
50.260        30
50.280        33
50.300        57
50.320        33
50.340        33
50.360        23
50.380        33
50.400        47
50.420        20
50.440        43
50.460        30
50.480        20
50.500        40
50.520        27
50.540        47
50.560        30
50.580        37
50.600        30
50.620        30
50.640        23
50.660        30
50.680        23
50.700        20
50.720        23
50.740        20
50.760        20
50.780        47
50.800        23
50.820        20
50.840        67
50.860        27
50.880        13
50.900        40
50.920        40
50.940        53
50.960        63
50.980        30
51.000        17
51.020        27
51.040        23
51.060        40
51.080        50
51.100        43
51.120        23
51.140        30
51.160        20
51.180        27
51.200        30
51.220        20
51.240        23
51.260        27
51.280        17
51.300        37
51.320        20
51.340        27
51.360        17
51.380        23
51.400        27
51.420        37
51.440        20
51.460        27
51.480        43
51.500        33
51.520        30
51.540        37
51.560        13
51.580        37
51.600        13
51.620        30
51.640        23
51.660        17
51.680        27
51.700        23
51.720        30
51.740        23
51.760        37
51.780        17
51.800        27
51.820        23
51.840        13
51.860        30
51.880        33
51.900        23
51.920        23
51.940        27
51.960        40
51.980        17
52.000        27
52.020        37
52.040        20
52.060        23
52.080        13
52.100        20
52.120        30
52.140        20
52.160        20
52.180        23
52.200        27
52.220        30
52.240        27
52.260        27
52.280        27
52.300        23
52.320        37
52.340        30
52.360        10
52.380        20
52.400        37
52.420        33
52.440        37
52.460        37
52.480        43
52.500        17
52.520        23
52.540        27
52.560        23
52.580        20
52.600        13
52.620        37
52.640        23
52.660        30
52.680        17
52.700        37
52.720        20
52.740        27
52.760        23
52.780        37
52.800        37
52.820        17
52.840        33
52.860        13
52.880        40
52.900        23
52.920        43
52.940        20
52.960        30
52.980        27
53.000        33
53.020        27
53.040        23
53.060        30
53.080        27
53.100        20
53.120        20
53.140        33
53.160        33
53.180        27
53.200        20
53.220        33
53.240        57
53.260        23
53.280        17
53.300        13
53.320        30
53.340        20
53.360        33
53.380        40
53.400        47
53.420        17
53.440        40
53.460        33
53.480        17
53.500        13
53.520        53
53.540        33
53.560        20
53.580        43
53.600        37
53.620        57
53.640        27
53.660        33
53.680        17
53.700        27
53.720        40
53.740        43
53.760        27
53.780        23
53.800        50
53.820        33
53.840        23
53.860        50
53.880        37
53.900        20
53.920        50
53.940        43
53.960        23
53.980        27
54.000        40
54.020        13
54.040        23
54.060        40
54.080        43
54.100        37
54.120        33
54.140        43
54.160        20
54.180        23
54.200        37
54.220        23
54.240        40
54.260        17
54.280        27
54.300        20
54.320        10
54.340        40
54.360         7
54.380        17
54.400        33
54.420        37
54.440        23
54.460        17
54.480        43
54.500        43
54.520        20
54.540        30
54.560        13
54.580        30
54.600        30
54.620        33
54.640        50
54.660        27
54.680        17
54.700        27
54.720        30
54.740        27
54.760        33
54.780        23
54.800        37
54.820        17
54.840        30
54.860        17
54.880        33
54.900        37
54.920        27
54.940        37
54.960        33
54.980        37
55.000        13
55.020        20
55.040        10
55.060        23
55.080        27
55.100        23
55.120        27
55.140        20
55.160        40
55.180        30
55.200        37
55.220        27
55.240        23
55.260        33
55.280        23
55.300        17
55.320        30
55.340        37
55.360        27
55.380        27
55.400        13
55.420        23
55.440        40
55.460        23
55.480        23
55.500        13
55.520        23
55.540        30
55.560        37
55.580        33
55.600        43
55.620        33
55.640        17
55.660        17
55.680        20
55.700        10
55.720        13
55.740        20
55.760        20
55.780        33
55.800        20
55.820        20
55.840        23
55.860        33
55.880        13
55.900        37
55.920        30
55.940        17
55.960        47
55.980        20
56.000        50
56.020        30
56.040        23
56.060        33
56.080        30
56.100        17
56.120        23
56.140        17
56.160        23
56.180        40
56.200        30
56.220        43
56.240        20
56.260        27
56.280        30
56.300        27
56.320        27
56.340        20
56.360        30
56.380        33
56.400        37
56.420        20
56.440        30
56.460        27
56.480        20
56.500        27
56.520        53
56.540        30
56.560        17
56.580        17
56.600        27
56.620        33
56.640        60
56.660        33
56.680        17
56.700        17
56.720        23
56.740        33
56.760        23
56.780        30
56.800        50
56.820        40
56.840        30
56.860        40
56.880        23
56.900        33
56.920        20
56.940        40
56.960        53
56.980        27
57.000        37
57.020        17
57.040        23
57.060        40
57.080        27
57.100        30
57.120        40
57.140        17
57.160        23
57.180        20
57.200        37
57.220        17
57.240        33
57.260        33
57.280        40
57.300        63
57.320        37
57.340        40
57.360        47
57.380        50
57.400        20
57.420        23
57.440        27
57.460        23
57.480        33
57.500        43
57.520        20
57.540        27
57.560        37
57.580        50
57.600        23
57.620        20
57.640        30
57.660        30
57.680        43
57.700        33
57.720        40
57.740        30
57.760        33
57.780        40
57.800        40
57.820        47
57.840        20
57.860        17
57.880        27
57.900        20
57.920        17
57.940        13
57.960        40
57.980        33
58.000        17
58.020        33
58.040        43
58.060        17
58.080        27
58.100        33
58.120        20
58.140        23
58.160        33
58.180        47
58.200        23
58.220        33
58.240        30
58.260        27
58.280        27
58.300        40
58.320        17
58.340        40
58.360        30
58.380        20
58.400        27
58.420        40
58.440        33
58.460        17
58.480        17
58.500        27
58.520        23
58.540        20
58.560        27
58.580        13
58.600        13
58.620        20
58.640        40
58.660        23
58.680        33
58.700        27
58.720        37
58.740        37
58.760        37
58.780        20
58.800        27
58.820        33
58.840        20
58.860        27
58.880        23
58.900        27
58.920        20
58.940        30
58.960        30
58.980        30
59.000        23
59.020        47
59.040        17
59.060        23
59.080        23
59.100        13
59.120        30
59.140        23
59.160        43
59.180        20
59.200        23
59.220        27
59.240        27
59.260        17
59.280        23
59.300        20
59.320        27
59.340        27
59.360        17
59.380        17
59.400        40
59.420        20
59.440        23
59.460        17
59.480        23
59.500        47
59.520        27
59.540        37
59.560        27
59.580         7
59.600        10
59.620        27
59.640        23
59.660        17
59.680        27
59.700        23
59.720        20
59.740        30
59.760        23
59.780        57
59.800        27
59.820        33
59.840        23
59.860        17
59.880        37
59.900        13
59.920        27
59.940        30
59.960        20
59.980        30
60.000        37
