20.000        30
20.020        30
20.040        47
20.060        30
20.080        30
20.100        57
20.120        53
20.140        37
20.160        47
20.180        43
20.200        40
20.220        47
20.240        37
20.260        20
20.280        50
20.300        60
20.320        57
20.340        30
20.360        47
20.380        47
20.400        13
20.420        50
20.440        57
20.460        50
20.480        40
20.500        57
20.520        63
20.540        73
20.560        40
20.580        53
20.600        50
20.620        67
20.640        33
20.660        33
20.680        70
20.700        53
20.720        23
20.740        33
20.760        50
20.780        47
20.800        30
20.820        40
20.840        40
20.860        43
20.880        67
20.900        47
20.920        60
20.940        43
20.960        27
20.980        40
21.000        57
21.020        47
21.040        17
21.060        53
21.080        40
21.100        47
21.120        33
21.140        23
21.160        43
21.180        70
21.200        33
21.220        40
21.240        43
21.260        33
21.280        33
21.300        33
21.320        60
21.340        57
21.360        33
21.380        60
21.400        40
21.420        50
21.440        43
21.460        43
21.480        57
21.500        40
21.520        57
21.540        50
21.560        33
21.580        43
21.600        40
21.620        37
21.640        30
21.660        43
21.680        43
21.700        37
21.720        53
21.740        53
21.760        57
21.780        50
21.800        80
21.820        90
21.840        63
21.860        63
21.880        73
21.900        87
21.920        83
21.940        97
21.960        70
21.980        47
22.000        53
22.020        43
22.040        47
22.060        57
22.080       100
22.100        77
22.120        93
22.140        90
22.160        53
22.180        43
22.200        40
22.220        33
22.240        63
22.260        57
22.280        57
22.300        37
22.320        37
22.340        47
22.360        33
22.380        60
22.400        50
22.420        37
22.440        57
22.460        53
22.480        37
22.500        37
22.520        33
22.540        70
22.560        37
22.580        53
22.600        60
22.620        43
22.640        40
22.660        47
22.680        50
22.700        40
22.720        30
22.740        67
22.760        50
22.780        53
22.800        43
22.820        63
22.840        27
22.860        23
22.880        33
22.900        50
22.920        43
22.940        53
22.960        57
22.980        60
23.000        33
23.020        37
23.040        30
23.060        53
23.080        33
23.100        60
23.120        53
23.140        40
23.160        33
23.180        30
23.200        40
23.220        33
23.240        23
23.260        30
23.280        60
23.300        40
23.320        30
23.340        40
23.360        57
23.380        37
23.400        37
23.420        33
23.440        37
23.460        53
23.480        30
23.500        47
23.520        30
23.540        53
23.560        43
23.580        23
23.600        37
23.620        43
23.640        47
23.660        30
23.680        57
23.700        23
23.720        27
23.740        33
23.760        27
23.780        33
23.800        27
23.820        27
23.840        50
23.860        47
23.880        40
23.900        30
23.920        57
23.940        50
23.960        17
23.980        27
24.000        23
24.020        27
24.040        27
24.060        33
24.080        40
24.100        37
24.120        57
24.140        33
24.160        37
24.180        50
24.200        57
24.220        43
24.240        33
24.260        30
24.280        47
24.300        43
24.320        23
24.340        23
24.360        43
24.380        27
24.400        30
24.420        47
24.440        17
24.460        23
24.480        67
24.500        37
24.520        40
24.540        53
24.560        57
24.580        40
24.600        17
24.620        43
24.640        50
24.660        53
24.680        30
24.700        30
24.720        40
24.740        30
24.760        27
24.780        30
24.800        57
24.820        37
24.840        43
24.860        70
24.880        30
24.900        37
24.920        37
24.940        40
24.960        43
24.980        50
25.000        30
25.020        53
25.040        30
25.060        30
25.080        27
25.100        30
25.120        27
25.140        33
25.160        20
25.180        33
25.200        43
25.220        40
25.240        40
25.260        37
25.280        47
25.300        43
25.320        47
25.340        47
25.360        27
25.380        40
25.400        23
25.420        33
25.440        33
25.460        30
25.480        40
25.500        37
25.520        27
25.540        37
25.560        33
25.580        27
25.600        27
25.620        20
25.640        20
25.660        43
25.680        23
25.700        47
25.720        50
25.740        20
25.760        37
25.780        40
25.800        43
25.820        37
25.840        27
25.860        30
25.880        33
25.900        73
25.920        57
25.940        47
25.960        47
25.980        20
26.000        37
26.020        37
26.040        27
26.060        33
26.080        30
26.100        33
26.120        17
26.140        40
26.160        20
26.180        47
26.200        30
26.220        27
26.240        47
26.260        40
26.280        37
26.300        53
26.320        30
26.340        57
26.360        47
26.380        20
26.400        13
26.420        40
26.440        57
26.460        50
26.480        57
26.500        53
26.520        40
26.540        33
26.560        50
26.580        27
26.600        20
26.620        50
26.640        33
26.660        37
26.680        33
26.700        40
26.720        53
26.740        30
26.760        43
26.780        37
26.800        53
26.820        23
26.840        20
26.860        43
26.880        60
26.900        53
26.920        23
26.940        33
26.960        33
26.980        50
27.000        57
27.020        57
27.040        33
27.060        40
27.080        33
27.100        73
27.120        30
27.140        27
27.160        47
27.180        30
27.200        33
27.220        57
27.240        50
27.260        37
27.280        40
27.300        43
27.320        50
27.340        37
27.360        60
27.380        30
27.400        30
27.420        20
27.440        40
27.460        33
27.480        40
27.500        37
27.520        33
27.540        33
27.560        27
27.580        37
27.600        30
27.620        37
27.640        33
27.660        33
27.680        33
27.700        50
27.720        53
27.740        40
27.760        63
27.780        17
27.800        53
27.820        50
27.840        37
27.860        60
27.880        50
27.900        40
27.920        47
27.940        37
27.960        80
27.980        43
28.000        30
28.020        43
28.040        70
28.060        67
28.080        60
28.100        33
28.120        47
28.140        60
28.160        53
28.180        60
28.200        57
28.220        80
28.240        47
28.260        67
28.280        40
28.300        60
28.320        37
28.340        77
28.360        43
28.380        57
28.400        47
28.420        90
28.440        73
28.460        47
28.480        70
28.500        53
28.520        50
28.540        57
28.560        53
28.580        53
28.600        43
28.620        33
28.640        47
28.660        50
28.680        50
28.700        63
28.720        47
28.740        63
28.760        77
28.780        43
28.800        83
28.820        60
28.840        60
28.860        70
28.880        47
28.900        63
28.920        70
28.940        40
28.960        60
28.980        83
29.000        77
29.020        57
29.040        70
29.060        90
29.080        70
29.100        83
29.120        73
29.140        83
29.160        73
29.180        77
29.200        83
29.220        37
29.240        90
29.260        73
29.280        70
29.300        80
29.320        87
29.340        60
29.360        73
29.380        70
29.400        67
29.420        87
29.440        87
29.460        77
29.480        37
29.500        57
29.520        90
29.540        47
29.560        53
29.580        67
29.600        83
29.620        67
29.640        63
29.660        77
29.680        57
29.700        87
29.720        70
29.740        93
29.760        83
29.780        63
29.800        67
29.820        50
29.840        93
29.860        77
29.880        63
29.900        90
29.920        73
29.940        80
29.960        83
29.980        63
30.000        57
30.020       123
30.040       130
30.060        97
30.080        80
30.100       100
30.120        83
30.140        70
30.160        63
30.180        67
30.200        47
30.220        73
30.240        67
30.260        73
30.280        90
30.300        70
30.320        90
30.340        60
30.360       107
30.380        73
30.400       117
30.420        73
30.440        93
30.460        67
30.480        77
30.500        73
30.520        93
30.540        87
30.560        80
30.580        97
30.600        87
30.620        97
30.640        87
30.660        77
30.680        77
30.700        77
30.720        77
30.740        83
30.760        53
30.780        87
30.800        67
30.820        87
30.840        67
30.860        90
30.880        77
30.900        90
30.920        67
30.940        63
30.960        97
30.980        83
31.000        87
31.020       100
31.040        97
31.060        97
31.080        70
31.100       103
31.120        67
31.140        77
31.160        87
31.180       117
31.200        93
31.220        67
31.240       120
31.260        77
31.280       143
31.300       110
31.320       130
31.340       123
31.360        77
31.380       113
31.400       163
31.420       113
31.440       123
31.460       137
31.480       137
31.500        97
31.520       143
31.540       127
31.560       130
31.580       157
31.600       130
31.620       170
31.640       143
31.660       103
31.680       143
31.700       177
31.720       107
31.740       110
31.760       147
31.780       107
31.800       117
31.820       147
31.840       120
31.860       147
31.880       160
31.900       110
31.920        90
31.940       107
31.960       107
31.980        93
32.000       107
32.020        67
32.040        87
32.060        73
32.080        90
32.100       100
32.120        60
32.140        87
32.160        73
32.180       113
32.200        87
32.220        83
32.240        67
32.260        70
32.280        90
32.300        53
32.320        77
32.340        80
32.360        57
32.380        50
32.400        73
32.420        70
32.440        97
32.460        80
32.480        97
32.500        87
32.520        97
32.540        73
32.560        73
32.580       113
32.600        53
32.620        73
32.640        93
32.660        63
32.680        67
32.700        90
32.720        93
32.740        67
32.760        63
32.780        57
32.800        73
32.820        80
32.840        93
32.860        67
32.880        73
32.900        90
32.920        87
32.940        97
32.960       113
32.980        70
33.000       100
33.020       173
33.040       183
33.060       173
33.080       223
33.100       217
33.120       300
33.140       300
33.160       177
33.180       110
33.200        80
33.220        63
33.240        73
33.260        63
33.280        80
33.300        73
33.320        73
33.340        70
33.360        73
33.380        63
33.400        53
33.420        63
33.440        60
33.460        77
33.480        80
33.500        57
33.520        67
33.540        63
33.560        57
33.580        93
33.600        87
33.620        53
33.640        80
33.660        60
33.680        93
33.700        60
33.720        60
33.740        60
33.760        70
33.780        87
33.800        67
33.820        53
33.840        70
33.860        67
33.880        53
33.900        70
33.920        67
33.940        67
33.960        87
33.980        53
34.000        77
34.020        63
34.040        83
34.060        57
34.080        67
34.100        70
34.120        83
34.140        63
34.160        97
34.180        73
34.200        83
34.220        60
34.240        83
34.260       100
34.280        80
34.300        80
34.320        63
34.340        90
34.360        47
34.380        47
34.400        47
34.420        77
34.440       110
34.460        60
34.480        37
34.500        70
34.520        97
34.540        73
34.560        73
34.580        60
34.600        93
34.620        77
34.640        77
34.660        47
34.680        87
34.700       107
34.720        83
34.740        93
34.760        63
34.780        60
34.800        60
34.820        63
34.840        53
34.860       100
34.880        77
34.900        90
34.920        73
34.940        87
34.960        80
34.980        97
35.000        80
35.020        53
35.040        83
35.060        63
35.080        67
35.100        67
35.120        60
35.140        77
35.160        60
35.180        70
35.200        83
35.220        80
35.240        57
35.260        57
35.280        63
35.300        70
35.320        87
35.340       113
35.360        90
35.380        77
35.400        57
35.420        73
35.440        67
35.460        97
35.480        43
35.500        60
35.520        53
35.540        67
35.560        53
35.580        47
35.600        43
35.620        73
35.640        63
35.660        57
35.680        87
35.700        77
35.720        90
35.740        83
35.760        80
35.780        67
35.800        60
35.820        87
35.840        67
35.860        87
35.880        90
35.900        57
35.920        77
35.940        77
35.960        60
35.980        83
36.000        60
36.020        73
36.040        70
36.060       107
36.080        77
36.100       107
36.120        83
36.140        70
36.160        67
36.180        67
36.200        77
36.220        57
36.240        57
36.260        77
36.280        60
36.300        77
36.320        90
36.340        80
36.360        53
36.380        80
36.400        80
36.420        47
36.440        83
36.460        77
36.480        73
36.500        83
36.520        87
36.540        73
36.560        80
36.580        90
36.600        80
36.620        73
36.640        53
36.660        60
36.680        97
36.700        73
36.720        73
36.740        80
36.760        83
36.780        67
36.800        70
36.820        63
36.840        83
36.860        80
36.880        80
36.900        83
36.920        90
36.940        43
36.960        83
36.980        80
37.000        57
37.020        60
37.040        73
37.060        50
37.080        67
37.100        83
37.120        70
37.140        53
37.160        90
37.180        50
37.200        87
37.220        60
37.240        73
37.260        73
37.280        70
37.300       120
37.320        50
37.340        70
37.360        90
37.380        90
37.400        73
37.420        93
37.440        90
37.460        80
37.480        77
37.500        80
37.520        73
37.540        77
37.560        73
37.580       117
37.600        87
37.620        73
37.640        80
37.660        77
37.680        60
37.700        77
37.720       113
37.740        53
37.760        60
37.780        70
37.800        77
37.820        70
37.840        77
37.860        70
37.880        90
37.900        87
37.920        83
37.940        93
37.960        70
37.980        73
38.000       133
38.020        57
38.040        90
38.060        77
38.080        73
38.100        63
38.120        90
38.140        37
38.160        57
38.180        47
38.200        73
38.220        53
38.240        80
38.260        70
38.280        57
38.300        53
38.320        73
38.340        77
38.360        53
38.380        57
38.400        60
38.420       100
38.440        57
38.460        60
38.480        80
38.500        77
38.520        97
38.540        93
38.560        57
38.580        73
38.600        67
38.620        70
38.640        73
38.660        83
38.680        87
38.700        87
38.720        67
38.740       103
38.760        50
38.780        97
38.800        73
38.820        80
38.840        57
38.860        77
38.880        50
38.900        87
38.920        97
38.940        83
38.960        83
38.980        83
39.000        83
39.020        77
39.040        73
39.060        87
39.080        60
39.100        97
39.120        90
39.140       103
39.160        97
39.180        90
39.200        93
39.220       103
39.240       107
39.260        93
39.280        97
39.300        60
39.320        73
39.340        63
39.360        93
39.380        50
39.400        87
39.420        90
39.440        70
39.460       103
39.480        43
39.500       113
39.520       107
39.540        57
39.560        60
39.580        63
39.600        80
39.620       100
39.640        80
39.660        60
39.680        80
39.700        77
39.720        40
39.740        60
39.760        97
39.780        50
39.800        63
39.820        80
39.840        77
39.860        73
39.880        57
39.900        67
39.920       100
39.940        80
39.960        60
39.980        67
40.000        70
40.020        73
40.040        60
40.060        83
40.080        60
40.100        50
40.120        73
40.140        80
40.160        43
40.180        60
40.200        73
40.220        73
40.240        67
40.260        80
40.280        97
40.300        50
40.320        77
40.340        73
40.360        90
40.380        77
40.400        53
40.420        53
40.440        87
40.460        57
40.480        80
40.500        97
40.520        60
40.540        47
40.560        87
40.580        83
40.600        70
40.620        57
40.640        70
40.660        47
40.680        63
40.700        83
40.720        57
40.740        77
40.760        47
40.780        47
40.800        40
40.820        60
40.840        40
40.860        47
40.880        80
40.900        80
40.920        47
40.940        60
40.960        70
40.980        90
41.000        67
41.020        57
41.040        57
41.060        67
41.080        37
41.100       117
41.120        77
41.140        70
41.160        53
41.180        63
41.200        73
41.220        77
41.240        83
41.260        77
41.280        47
41.300        63
41.320        63
41.340        63
41.360        47
41.380        77
41.400        93
41.420        50
41.440        47
41.460        70
41.480        57
41.500        57
41.520        33
41.540        47
41.560        77
41.580        57
41.600        40
41.620        57
41.640        47
41.660        47
41.680        63
41.700        53
41.720        80
41.740        57
41.760        67
41.780        83
41.800        43
41.820        60
41.840        33
41.860        47
41.880        67
41.900        53
41.920        83
41.940        60
41.960        77
41.980        57
42.000        47
42.020        73
42.040        70
42.060        60
42.080        53
42.100        60
42.120        57
42.140        60
42.160        77
42.180        70
42.200        47
42.220        53
42.240        63
42.260        43
42.280        60
42.300        40
42.320        67
42.340        77
42.360        47
42.380        70
42.400        43
42.420        57
42.440        57
42.460        60
42.480        63
42.500        77
42.520        70
42.540        80
42.560        83
42.580        73
42.600        77
42.620        60
42.640        50
42.660        63
42.680        67
42.700        37
42.720        43
42.740        70
42.760        50
42.780        50
42.800        80
42.820        63
42.840        57
42.860        73
42.880        67
42.900        57
42.920        60
42.940        40
42.960        43
42.980        53
43.000        40
43.020        63
43.040        37
43.060        50
43.080        50
43.100        47
43.120        70
43.140        73
43.160        50
43.180        47
43.200        73
43.220        50
43.240       107
43.260        63
43.280        57
43.300        63
43.320        63
43.340        50
43.360        70
43.380        63
43.400        57
43.420        47
43.440        50
43.460        73
43.480        57
43.500        87
43.520        67
43.540        67
43.560        37
43.580        50
43.600        70
43.620        57
43.640        50
43.660        57
43.680        87
43.700        57
43.720        87
43.740        43
43.760        67
43.780        90
43.800        57
43.820        93
43.840        67
43.860        60
43.880        47
43.900        53
43.920        73
43.940        57
43.960        50
43.980        43
44.000        63
44.020        53
44.040        70
44.060        47
44.080        77
44.100        43
44.120        73
44.140        67
44.160        63
44.180        57
44.200        63
44.220        83
44.240        40
44.260        83
44.280        93
44.300        80
44.320        77
44.340        63
44.360        47
44.380        77
44.400       103
44.420        83
44.440        90
44.460       113
44.480        93
44.500        83
44.520       123
44.540       103
44.560        83
44.580        87
44.600       117
44.620       113
44.640       110
44.660        93
44.680       130
44.700       120
44.720       107
44.740       140
44.760       107
44.780       120
44.800        83
44.820       153
44.840       137
44.860       100
44.880       153
44.900        90
44.920       123
44.940       130
44.960       140
44.980       113
45.000       120
45.020       100
45.040       130
45.060        93
45.080       113
45.100       103
45.120        93
45.140       113
45.160        93
45.180        90
45.200       107
45.220       110
45.240       130
45.260       110
45.280       130
45.300        97
45.320        83
45.340       107
45.360        80
45.380       117
45.400        97
45.420        67
45.440        93
45.460        73
45.480        60
45.500        83
45.520        90
45.540       100
45.560        73
45.580        77
45.600        50
45.620        67
45.640        80
45.660        63
45.680        83
45.700        70
45.720        83
45.740        80
45.760        83
45.780        53
45.800        77
45.820        70
45.840        67
45.860        63
45.880        53
45.900        90
45.920        57
45.940        80
45.960        37
45.980        77
46.000        90
46.020        73
46.040        50
46.060        80
46.080        30
46.100        57
46.120        43
46.140        43
46.160        53
46.180        53
46.200        73
46.220        93
46.240        47
46.260        60
46.280        47
46.300        63
46.320        63
46.340        60
46.360        83
46.380        87
46.400        40
46.420        43
46.440        33
46.460        37
46.480        37
46.500        53
46.520        73
46.540        57
46.560        50
46.580        27
46.600        43
46.620        63
46.640        47
46.660        37
46.680        73
46.700        37
46.720        33
46.740        47
46.760        60
46.780        37
46.800        33
46.820        50
46.840        33
46.860        33
46.880        40
46.900        47
46.920        27
46.940        43
46.960        30
46.980        33
47.000        43
47.020        30
47.040        43
47.060        37
47.080        53
47.100        57
47.120        60
47.140        60
47.160        13
47.180        40
47.200        50
47.220        40
47.240        47
47.260        37
47.280        47
47.300        60
47.320        40
47.340        53
47.360        50
47.380        43
47.400        40
47.420        47
47.440        23
47.460        27
47.480        37
47.500        43
47.520        53
47.540        37
47.560        43
47.580        43
47.600        27
47.620        30
47.640        53
47.660        37
47.680        53
47.700        40
47.720        60
47.740        50
47.760        37
47.780        37
47.800        23
47.820        43
47.840        37
47.860        23
47.880        43
47.900        40
47.920        47
47.940        43
47.960        30
47.980        47
48.000        40
48.020        40
48.040        27
48.060        20
48.080        30
48.100        47
48.120        47
48.140        53
48.160        33
48.180        40
48.200        37
48.220        40
48.240        23
48.260        43
48.280        43
48.300        23
48.320        50
48.340        30
48.360        40
48.380        30
48.400        40
48.420        20
48.440        47
48.460        27
48.480        53
48.500        37
48.520        27
48.540        10
48.560        40
48.580        17
48.600        20
48.620        27
48.640        17
48.660        17
48.680        17
48.700        30
48.720        27
48.740        47
48.760        50
48.780        40
48.800        40
48.820        23
48.840        40
48.860        30
48.880        33
48.900        47
48.920        23
48.940        17
48.960        23
48.980        50
49.000        43
49.020        20
49.040        23
49.060        37
49.080        37
49.100        20
49.120        33
49.140        30
49.160        43
49.180        13
49.200        20
49.220        20
49.240        33
49.260        40
49.280        40
49.300        30
49.320        53
49.340        20
49.360        40
49.380        37
49.400        37
49.420        33
49.440        13
49.460        33
49.480        27
49.500        27
49.520        20
49.540        27
49.560        23
49.580        50
49.600        37
49.620        27
49.640        27
49.660        23
49.680        53
49.700        33
49.720        33
49.740        47
49.760        23
49.780        23
49.800        27
49.820        43
49.840        37
49.860        23
49.880        37
49.900        37
49.920        13
49.940        20
49.960        27
49.980        37
50.000        23
50.020        30
50.040        20
50.060        23
50.080        40
50.100        30
50.120        20
50.140        37
50.160        33
50.180        50
50.200        17
50.220        30
50.240        13
50.260        33
50.280        27
50.300        43
50.320         7
50.340        27
50.360        27
50.380        23
50.400        30
50.420        33
50.440        27
50.460        27
50.480        17
50.500        23
50.520        27
50.540        20
50.560        17
50.580        27
50.600        27
50.620        33
50.640        30
50.660        17
50.680        27
50.700        27
50.720        40
50.740        27
50.760        30
50.780        23
50.800         3
50.820        20
50.840        27
50.860        27
50.880        40
50.900        37
50.920        27
50.940        23
50.960        30
50.980        17
51.000        17
51.020        23
51.040        10
51.060        17
51.080        30
51.100        17
51.120        13
51.140        33
51.160        33
51.180        27
51.200        17
51.220        13
51.240        10
51.260        37
51.280        33
51.300        23
51.320        30
51.340        23
51.360        13
51.380        33
51.400        17
51.420        17
51.440        17
51.460        30
51.480        23
51.500        23
51.520        27
51.540        30
51.560        27
51.580        10
51.600        27
51.620        17
51.640        43
51.660         3
51.680        23
51.700        23
51.720        20
51.740        20
51.760        23
51.780        17
51.800        23
51.820        17
51.840        27
51.860        53
51.880        20
51.900        20
51.920        23
51.940        20
51.960        23
51.980        20
52.000         3
52.020        17
52.040        20
52.060        10
52.080        30
52.100        10
52.120        23
52.140        17
52.160        20
52.180        27
52.200        23
52.220        20
52.240        37
52.260        27
52.280        27
52.300        17
52.320        37
52.340        10
52.360        23
52.380        17
52.400        20
52.420        23
52.440        23
52.460        27
52.480        20
52.500        30
52.520        20
52.540        23
52.560        13
52.580        27
52.600        10
52.620        30
52.640         7
52.660        23
52.680        13
52.700        20
52.720        17
52.740        17
52.760        27
52.780        37
52.800        17
52.820        17
52.840        37
52.860        17
52.880        20
52.900        27
52.920        20
52.940        30
52.960        17
52.980        43
53.000        27
53.020        23
53.040        23
53.060        20
53.080        20
53.100        23
53.120        23
53.140        27
53.160        27
53.180        20
53.200        23
53.220        20
53.240        27
53.260        33
53.280        20
53.300        23
53.320        13
53.340        37
53.360        17
53.380        17
53.400        17
53.420        33
53.440        23
53.460        40
53.480         7
53.500         7
53.520        37
53.540         7
53.560        17
53.580        30
53.600         7
53.620        30
53.640        17
53.660        13
53.680        37
53.700        20
53.720        17
53.740        13
53.760        13
53.780         7
53.800        13
53.820        27
53.840        40
53.860        20
53.880        27
53.900        33
53.920        13
53.940        20
53.960        17
53.980        13
54.000        23
54.020        17
54.040         7
54.060        10
54.080        23
54.100        30
54.120        17
54.140        20
54.160        23
54.180        27
54.200        17
54.220         7
54.240        13
54.260        17
54.280        33
54.300        27
54.320        30
54.340        10
54.360        13
54.380        27
54.400        37
54.420        20
54.440        13
54.460        13
54.480        17
54.500        20
54.520        17
54.540        27
54.560        40
54.580        17
54.600        23
54.620        20
54.640        17
54.660        13
54.680        13
54.700        17
54.720        13
54.740        13
54.760        10
54.780        23
54.800        17
54.820        17
54.840        10
54.860        30
54.880        30
54.900        27
54.920        17
54.940        17
54.960        33
54.980        20
55.000        20
55.020        23
55.040        30
55.060        10
55.080         3
55.100        23
55.120        23
55.140        10
55.160        30
55.180        27
55.200        23
55.220        17
55.240        13
55.260        23
55.280        13
55.300         7
55.320        20
55.340        17
55.360        20
55.380        20
55.400        20
55.420        20
55.440        27
55.460        20
55.480        17
55.500        30
55.520        17
55.540        30
55.560        23
55.580        10
55.600        20
55.620        13
55.640        17
55.660        17
55.680         3
55.700        13
55.720        27
55.740        17
55.760        10
55.780        17
55.800        27
55.820        20
55.840        23
55.860        17
55.880        40
55.900        17
55.920        20
55.940        30
55.960        27
55.980        23
56.000        20
56.020         7
56.040        20
56.060        33
56.080        40
56.100        27
56.120        27
56.140        43
56.160        30
56.180        30
56.200        17
56.220        17
56.240        27
56.260        17
56.280        23
56.300        17
56.320        23
56.340        17
56.360        23
56.380        40
56.400        13
56.420        23
56.440        40
56.460        30
56.480        30
56.500        40
56.520        33
56.540        20
56.560        10
56.580        27
56.600        33
56.620        17
56.640         7
56.660        37
56.680        20
56.700        27
56.720        17
56.740        37
56.760        20
56.780        13
56.800        43
56.820        17
56.840        13
56.860        13
56.880        20
56.900        13
56.920        47
56.940        13
56.960        33
56.980        37
57.000        33
57.020        17
57.040        20
57.060        13
57.080        13
57.100        17
57.120        37
57.140        20
57.160        23
57.180        30
57.200        10
57.220        20
57.240        33
57.260        20
57.280         7
57.300        13
57.320        20
57.340        13
57.360        13
57.380        27
57.400        20
57.420        23
57.440        17
57.460        30
57.480        13
57.500        20
57.520        10
57.540        23
57.560        27
57.580        17
57.600        30
57.620        23
57.640        17
57.660         7
57.680        20
57.700        17
57.720        33
57.740        20
57.760        17
57.780        20
57.800        17
57.820        17
57.840        20
57.860        43
57.880        30
57.900        20
57.920        27
57.940        23
57.960        17
57.980        13
58.000        27
58.020        40
58.040         7
58.060         7
58.080        27
58.100         7
58.120        20
58.140        17
58.160        17
58.180        20
58.200        13
58.220        13
58.240        10
58.260        17
58.280        23
58.300        20
58.320        20
58.340        10
58.360        17
58.380        20
58.400        20
58.420        10
58.440        33
58.460        10
58.480        13
58.500        23
58.520        10
58.540        13
58.560        20
58.580        20
58.600        20
58.620         3
58.640        13
58.660        13
58.680        30
58.700         7
58.720        13
58.740        13
58.760        17
58.780        10
58.800        27
58.820        17
58.840        17
58.860        13
58.880        13
58.900        23
58.920        13
58.940        17
58.960        17
58.980        13
59.000        20
59.020        17
59.040        17
59.060        10
59.080         3
59.100        23
59.120        20
59.140        23
59.160        20
59.180        23
59.200        17
59.220        20
59.240        20
59.260        10
59.280        13
59.300        13
59.320        17
59.340         7
59.360        17
59.380        20
59.400        20
59.420         7
59.440        27
59.460        23
59.480        20
59.500        13
59.520        17
59.540        13
59.560        30
59.580        13
59.600         7
59.620         7
59.640        13
59.660        30
59.680         7
59.700        33
59.720        23
59.740        17
59.760        20
59.780        23
59.800        10
59.820        13
59.840        30
59.860        17
59.880        17
59.900        13
59.920        20
59.940        20
59.960        10
59.980        10
60.000        30
