20.000         0
20.020         0
20.040         0
20.060        47
20.080        53
20.100        87
20.120        63
20.140        70
20.160        83
20.180        57
20.200        50
20.220        50
20.240        53
20.260        63
20.280        60
20.300        73
20.320        37
20.340        87
20.360        77
20.380        83
20.400        87
20.420        57
20.440        60
20.460        63
20.480        63
20.500        53
20.520        60
20.540        43
20.560        57
20.580        77
20.600        57
20.620        63
20.640        60
20.660        60
20.680        93
20.700        47
20.720        70
20.740        63
20.760        53
20.780        70
20.800        70
20.820        73
20.840        73
20.860        60
20.880        73
20.900        80
20.920        77
20.940        70
20.960        70
20.980        67
21.000        57
21.020        80
21.040        60
21.060        50
21.080        63
21.100        60
21.120        53
21.140        70
21.160        43
21.180        77
21.200        80
21.220        77
21.240        40
21.260        70
21.280        77
21.300        73
21.320        60
21.340        93
21.360        60
21.380        80
21.400        70
21.420        60
21.440        50
21.460        77
21.480        60
21.500        90
21.520        87
21.540        60
21.560        70
21.580        40
21.600        63
21.620        80
21.640        80
21.660        50
21.680        77
21.700        87
21.720        50
21.740        80
21.760        97
21.780       110
21.800        73
21.820       117
21.840       100
21.860       110
21.880       117
21.900        83
21.920        87
21.940       127
21.960       127
21.980       110
22.000       160
22.020       127
22.040       150
22.060       140
22.080       153
22.100       153
22.120       187
22.140       183
22.160       183
22.180       180
22.200       140
22.220       150
22.240       187
22.260       137
22.280       167
22.300       113
22.320        97
22.340       100
22.360       113
22.380       113
22.400       120
22.420        70
22.440       150
22.460        93
22.480        90
22.500        80
22.520       100
22.540       103
22.560       113
22.580        93
22.600        90
22.620        87
22.640        63
22.660        83
22.680        83
22.700       120
22.720       127
22.740        87
22.760       103
22.780       110
22.800        80
22.820       130
22.840        80
22.860       113
22.880        83
22.900       150
22.920        97
22.940       127
22.960       110
22.980       137
23.000       143
23.020       120
23.040       153
23.060       173
23.080       327
23.100       593
23.120       720
23.140       680
23.160       530
23.180       270
23.200       153
23.220       190
23.240       110
23.260       130
23.280       130
23.300        97
23.320       127
23.340       147
23.360       113
23.380       117
23.400       123
23.420       120
23.440       107
23.460        83
23.480       127
23.500        87
23.520        93
23.540       150
23.560       103
23.580       100
23.600       107
23.620        93
23.640       100
23.660        90
23.680       113
23.700       103
23.720       140
23.740       100
23.760        83
23.780       107
23.800       100
23.820        90
23.840       133
23.860        93
23.880        90
23.900        77
23.920        80
23.940       100
23.960       130
23.980       107
24.000       100
24.020        87
24.040        97
24.060       120
24.080        83
24.100       137
24.120       110
24.140        97
24.160       117
24.180        80
24.200       107
24.220       117
24.240       113
24.260       113
24.280        90
24.300       100
24.320        83
24.340        83
24.360       117
24.380        80
24.400        73
24.420        87
24.440       107
24.460       103
24.480       110
24.500        80
24.520        93
24.540        80
24.560        97
24.580        90
24.600        93
24.620       110
24.640        70
24.660       133
24.680       147
24.700       153
24.720       133
24.740       263
24.760       290
24.780       323
24.800       337
24.820       337
24.840       353
24.860       327
24.880       320
24.900       390
24.920       340
24.940       297
24.960       407
24.980       320
25.000       387
25.020       330
25.040       373
25.060       313
25.080       360
25.100       417
25.120       347
25.140       347
25.160       360
25.180       407
25.200       363
25.220       440
25.240       387
25.260       330
25.280       407
25.300       430
25.320       460
25.340       630
25.360       856
25.380      1133
25.400      1559
25.420      2073
25.440      2729
25.460      3172
25.480      3755
25.500      4631
25.520      4911
25.540      5588
25.560      7307
25.580     24270
25.600     59896
25.620     78015
25.640     81361
25.660     75440
25.680     53165
25.700     43959
25.720     34999
25.740     14867
25.760      4155
25.780      2246
25.800      1573
25.820      1100
25.840       883
25.860       813
25.880       690
25.900       560
25.920       460
25.940       583
25.960       480
25.980       516
26.000       620
26.020       486
26.040       433
26.060       476
26.080       407
26.100       403
26.120       363
26.140       330
26.160       377
26.180       353
26.200       300
26.220       327
26.240       323
26.260       370
26.280       287
26.300       317
26.320       317
26.340       250
26.360       327
26.380       283
26.400       287
26.420       297
26.440       293
26.460       280
26.480       340
26.500       287
26.520       303
26.540       223
26.560       267
26.580       293
26.600       253
26.620       213
26.640       283
26.660       237
26.680       280
26.700       280
26.720       250
26.740       337
26.760       227
26.780       213
26.800       223
26.820       217
26.840       223
26.860       237
26.880       250
26.900       247
26.920       217
26.940       260
26.960       243
26.980       220
27.000       247
27.020       270
27.040       247
27.060       230
27.080       197
27.100       260
27.120       277
27.140       240
27.160       210
27.180       220
27.200       233
27.220       213
27.240       243
27.260       200
27.280       213
27.300       233
27.320       200
27.340       187
27.360       247
27.380       233
27.400       257
27.420       203
27.440       247
27.460       233
27.480       190
27.500       230
27.520       247
27.540       207
27.560       217
27.580       233
27.600       237
27.620       233
27.640       150
27.660       213
27.680       190
27.700       197
27.720       213
27.740       210
27.760       200
27.780       183
27.800       217
27.820       233
27.840       197
27.860       220
27.880       207
27.900       200
27.920       213
27.940       203
27.960       187
27.980       187
28.000       120
28.020       163
28.040       197
28.060       133
28.080       203
28.100       190
28.120       180
28.140       220
28.160       207
28.180       210
28.200       183
28.220       197
28.240       257
28.260       213
28.280       177
28.300       147
28.320       170
28.340       223
28.360       187
28.380       203
28.400       207
28.420       213
28.440       207
28.460       157
28.480       200
28.500       230
28.520       147
28.540       197
28.560       197
28.580       140
28.600       180
28.620       170
28.640       180
28.660       173
28.680       167
28.700       190
28.720       183
28.740       203
28.760       187
28.780       170
28.800       160
28.820       157
28.840       183
28.860       163
28.880       183
28.900       207
28.920       210
28.940       210
28.960       157
28.980       123
29.000       197
29.020       187
29.040       173
29.060       177
29.080       220
29.100       157
29.120       163
29.140       140
29.160       127
29.180       190
29.200       183
29.220       150
29.240       130
29.260       157
29.280       130
29.300       167
29.320       120
29.340       187
29.360       153
29.380       223
29.400       213
29.420       140
29.440       160
29.460       130
29.480       150
29.500       173
29.520       173
29.540       190
29.560       190
29.580       177
29.600       177
29.620       140
29.640       147
29.660       183
29.680       157
29.700       130
29.720       163
29.740       170
29.760       153
29.780       160
29.800       143
29.820       147
29.840       133
29.860       170
29.880       197
29.900       187
29.920       140
29.940       157
29.960       167
29.980       117
30.000       167
30.020       160
30.040       190
30.060       133
30.080       150
30.100       137
30.120       160
30.140       157
30.160       160
30.180       100
30.200       140
30.220       163
30.240       137
30.260       143
30.280       140
30.300       157
30.320       153
30.340       103
30.360       153
30.380        97
30.400       157
30.420       127
30.440       117
30.460       147
30.480       187
30.500       107
30.520       150
30.540       133
30.560       147
30.580       157
30.600       177
30.620       137
30.640       160
30.660       170
30.680       133
30.700       123
30.720       147
30.740       167
30.760       130
30.780       183
30.800       130
30.820       157
30.840       140
30.860       147
30.880       173
30.900       167
30.920       160
30.940       147
30.960       147
30.980       143
31.000       183
31.020       123
31.040       170
31.060       150
31.080       160
31.100       173
31.120       167
31.140       163
31.160       147
31.180       220
31.200       150
31.220       177
31.240       213
31.260       223
31.280       257
31.300       190
31.320       273
31.340       283
31.360       267
31.380       340
31.400       337
31.420       310
31.440       367
31.460       343
31.480       440
31.500       463
31.520       430
31.540       400
31.560       500
31.580       460
31.600       483
31.620       417
31.640       423
31.660       307
31.680       400
31.700       333
31.720       307
31.740       287
31.760       297
31.780       280
31.800       203
31.820       227
31.840       217
31.860       200
31.880       190
31.900       230
31.920       270
31.940       173
31.960       137
31.980       213
32.000       173
32.020       187
32.040       120
32.060       150
32.080       130
32.100       170
32.120       157
32.140       197
32.160       127
32.180       143
32.200       177
32.220       147
32.240       127
32.260       147
32.280       127
32.300       123
32.320       137
32.340       150
32.360       117
32.380       113
32.400       107
32.420       133
32.440       113
32.460       127
32.480       103
32.500        93
32.520       117
32.540       123
32.560       130
32.580        97
32.600       110
32.620       103
32.640       157
32.660        77
32.680       100
32.700       130
32.720       137
32.740       103
32.760       123
32.780       133
32.800        80
32.820       110
32.840        77
32.860        90
32.880        93
32.900        77
32.920       103
32.940        83
32.960       123
32.980       110
33.000       120
33.020       117
33.040       113
33.060       107
33.080       127
33.100        93
33.120        73
33.140        83
33.160       100
33.180        97
33.200        73
33.220        93
33.240        93
33.260        73
33.280       107
33.300        80
33.320        57
33.340        70
33.360       110
33.380        77
33.400        93
33.420        90
33.440        83
33.460       113
33.480        70
33.500        90
33.520       113
33.540       103
33.560        60
33.580        83
33.600        80
33.620        90
33.640        80
33.660       107
33.680        73
33.700       107
33.720        83
33.740        83
33.760        63
33.780        80
33.800        77
33.820        93
33.840        67
33.860        57
33.880        83
33.900        77
33.920        90
33.940        87
33.960       100
33.980        47
34.000        73
34.020        73
34.040        87
34.060        90
34.080        67
34.100        97
34.120        77
34.140        87
34.160        53
34.180        63
34.200        77
34.220        77
34.240        83
34.260        60
34.280        73
34.300        63
34.320        87
34.340       107
34.360        97
34.380        67
34.400       117
34.420        80
34.440        70
34.460        80
34.480        77
34.500       127
34.520        73
34.540        80
34.560        90
34.580        90
34.600       103
34.620        60
34.640        63
34.660        87
34.680        93
34.700        77
34.720        83
34.740        60
34.760        57
34.780        60
34.800        80
34.820        67
34.840        70
34.860        70
34.880        57
34.900        87
34.920        57
34.940        67
34.960        93
34.980        97
35.000        83
35.020        70
35.040        67
35.060        97
35.080        70
35.100        63
35.120        97
35.140        73
35.160        73
35.180        80
35.200        80
35.220        67
35.240        83
35.260        57
35.280        87
35.300        50
35.320        63
35.340        53
35.360        73
35.380        63
35.400        63
35.420       103
35.440        90
35.460        67
35.480        67
35.500        87
35.520        47
35.540        53
35.560        80
35.580        87
35.600        77
35.620        70
35.640        50
35.660        40
35.680        73
35.700        53
35.720        73
35.740        87
35.760        57
35.780        67
35.800        60
35.820        60
35.840        53
35.860        60
35.880        53
35.900        83
35.920        70
35.940        77
35.960        63
35.980        50
36.000        77
36.020        73
36.040        50
36.060        77
36.080        50
36.100        67
36.120        33
36.140        50
36.160        67
36.180        53
36.200        73
36.220        70
36.240        43
36.260        87
36.280        60
36.300        73
36.320        40
36.340        37
36.360        63
36.380        73
36.400        90
36.420        60
36.440        70
36.460        40
36.480        37
36.500        63
36.520        90
36.540        77
36.560        67
36.580        47
36.600        57
36.620        47
36.640        73
36.660        60
36.680        50
36.700        40
36.720        67
36.740        47
36.760        37
36.780        97
36.800        50
36.820        63
36.840        70
36.860        60
36.880        50
36.900        57
36.920        80
36.940        80
36.960        63
36.980        47
37.000        53
37.020        57
37.040        50
37.060        63
37.080        50
37.100        53
37.120        80
37.140        50
37.160        53
37.180        60
37.200        37
37.220        37
37.240        67
37.260        53
37.280        43
37.300        43
37.320        67
37.340        47
37.360        47
37.380        67
37.400        57
37.420        63
37.440        47
37.460        73
37.480        60
37.500        53
37.520        37
37.540        40
37.560        60
37.580        47
37.600        67
37.620        40
37.640        63
37.660        70
37.680        47
37.700        80
37.720        47
37.740        53
37.760        70
37.780        43
37.800        60
37.820        53
37.840        63
37.860        70
37.880        30
37.900        40
37.920        37
37.940        73
37.960        37
37.980        47
38.000        80
38.020        43
38.040        47
38.060        90
38.080        47
38.100        40
38.120        50
38.140        57
38.160        40
38.180        50
38.200        37
38.220        57
38.240        57
38.260        53
38.280        27
38.300        50
38.320        47
38.340        67
38.360        40
38.380        50
38.400        50
38.420        47
38.440        40
38.460        27
38.480        47
38.500        50
38.520        40
38.540        40
38.560        53
38.580        53
38.600        43
38.620        63
38.640        33
38.660        37
38.680        53
38.700        70
38.720        30
38.740        80
38.760        63
38.780        53
38.800        77
38.820        90
38.840        80
38.860        67
38.880        90
38.900       100
38.920        80
38.940       123
38.960       140
38.980       150
39.000       130
39.020       243
39.040       183
39.060       277
39.080       317
39.100       297
39.120       250
39.140       320
39.160       223
39.180       233
39.200       227
39.220       210
39.240       170
39.260        80
39.280       107
39.300       143
39.320       133
39.340        87
39.360        80
39.380        53
39.400        77
39.420        70
39.440        67
39.460        70
39.480        80
39.500        83
39.520        47
39.540        73
39.560        50
39.580        47
39.600        40
39.620        80
39.640        50
39.660        60
39.680        73
39.700        50
39.720        77
39.740        80
39.760        33
39.780        63
39.800        17
39.820        40
39.840        43
39.860        60
39.880        50
39.900        63
39.920        63
39.940        37
39.960        27
39.980        43
40.000        37
40.020        57
40.040        27
40.060        57
40.080        33
40.100        47
40.120        63
40.140        60
40.160        30
40.180        53
40.200        50
40.220        43
40.240        67
40.260        40
40.280        47
40.300        50
40.320        70
40.340        40
40.360        70
40.380        40
40.400        60
40.420        27
40.440        37
40.460        43
40.480        53
40.500        40
40.520        43
40.540        33
40.560        67
40.580        33
40.600        47
40.620        30
40.640        27
40.660        37
40.680        40
40.700        40
40.720        37
40.740        60
40.760        40
40.780        20
40.800        33
40.820        43
40.840        47
40.860        23
40.880        37
40.900        53
40.920        23
40.940        60
40.960        60
40.980        50
41.000        30
41.020        43
41.040        37
41.060        37
41.080        37
41.100        33
41.120        23
41.140        33
41.160        30
41.180        53
41.200        40
41.220        57
41.240        50
41.260        53
41.280        33
41.300        47
41.320        37
41.340        40
41.360        30
41.380        37
41.400        37
41.420        50
41.440        13
41.460        53
41.480        43
41.500        23
41.520        33
41.540        40
41.560        40
41.580        50
41.600        20
41.620        27
41.640        43
41.660        40
41.680        43
41.700        53
41.720        40
41.740        17
41.760        53
41.780        67
41.800        30
41.820        43
41.840        30
41.860        70
41.880        20
41.900        50
41.920        27
41.940        40
41.960        23
41.980        33
42.000        33
42.020        23
42.040        50
42.060        47
42.080        27
42.100        30
42.120        50
42.140        27
42.160        27
42.180        30
42.200        30
42.220        37
42.240        37
42.260        17
42.280        30
42.300        23
42.320        40
42.340        37
42.360        40
42.380        30
42.400        43
42.420        23
42.440        20
42.460        23
42.480        40
42.500        23
42.520        20
42.540        23
42.560        27
42.580        20
42.600        23
42.620        30
42.640        43
42.660        40
42.680        23
42.700        17
42.720        30
42.740        27
42.760        13
42.780        27
42.800        33
42.820        43
42.840        30
42.860        23
42.880        27
42.900        27
42.920        53
42.940        23
42.960        30
42.980        40
43.000        20
43.020        23
43.040        20
43.060        43
43.080        33
43.100        40
43.120        43
43.140        50
43.160        20
43.180        37
43.200        33
43.220        37
43.240        43
43.260        37
43.280        27
43.300        37
43.320        47
43.340        53
43.360        23
43.380        33
43.400        53
43.420        40
43.440        27
43.460        20
43.480        43
43.500        43
43.520        37
43.540        43
43.560        27
43.580        23
43.600        37
43.620        33
43.640        23
43.660        33
43.680        23
43.700        30
43.720        43
43.740        37
43.760        37
43.780        37
43.800        57
43.820        47
43.840        27
43.860        50
43.880        50
43.900        50
43.920        47
43.940        40
43.960        43
43.980        57
44.000        57
44.020        60
44.040        47
44.060        33
44.080        57
44.100        63
44.120        37
44.140        30
44.160        30
44.180        37
44.200        30
44.220        50
44.240        33
44.260        37
44.280        30
44.300        40
44.320        77
44.340        27
44.360        50
44.380        37
44.400        43
44.420        43
44.440        47
44.460        40
44.480        43
44.500        30
44.520        47
44.540        27
44.560        67
44.580        83
44.600        57
44.620        70
44.640        43
44.660        40
44.680        57
44.700        83
44.720        70
44.740        53
44.760        60
44.780        73
44.800        83
44.820        37
44.840        87
44.860        47
44.880        93
44.900        77
44.920        77
44.940        73
44.960        80
44.980       117
45.000        87
45.020        97
45.040        93
45.060       150
45.080        67
45.100       123
45.120       140
45.140       123
45.160        93
45.180       113
45.200       133
45.220       177
45.240       170
45.260       163
45.280       153
45.300       147
45.320       147
45.340       180
45.360       167
45.380       123
45.400       157
45.420        97
45.440       180
45.460       103
45.480       137
45.500       117
45.520        87
45.540       103
45.560        97
45.580        70
45.600        93
45.620        60
45.640        77
45.660        80
45.680        70
45.700        80
45.720        63
45.740        50
45.760        77
45.780        63
45.800        50
45.820        73
45.840        33
45.860        57
45.880        73
45.900        80
45.920        43
45.940        40
45.960        27
45.980        53
46.000        53
46.020        47
46.040        47
46.060        70
46.080        40
46.100        47
46.120        37
46.140        40
46.160        47
46.180        57
46.200        43
46.220        67
46.240        30
46.260        63
46.280        57
46.300        57
46.320        37
46.340        70
46.360        50
46.380        37
46.400        27
46.420        37
46.440        50
46.460        53
46.480        43
46.500        53
46.520        53
46.540        40
46.560        57
46.580        23
46.600        20
46.620        33
46.640        37
46.660        50
46.680        23
46.700        57
46.720        43
46.740        33
46.760        77
46.780        63
46.800        47
46.820        40
46.840        53
46.860        53
46.880        40
46.900        47
46.920        50
46.940        37
46.960        53
46.980        90
47.000        77
47.020        80
47.040        67
47.060        70
47.080        70
47.100        67
47.120        73
47.140       127
47.160       173
47.180       340
47.200       540
47.220       736
47.240       760
47.260       646
47.280       373
47.300       180
47.320       123
47.340        80
47.360        70
47.380        47
47.400        63
47.420        40
47.440        67
47.460        37
47.480        40
47.500        43
47.520        47
47.540        50
47.560        30
47.580        30
47.600        50
47.620        50
47.640        47
47.660        30
47.680        37
47.700        90
47.720        50
47.740        37
47.760        53
47.780        43
47.800        50
47.820        47
47.840        23
47.860        57
47.880        33
47.900        37
47.920        40
47.940        50
47.960        27
47.980        43
48.000        33
48.020        23
48.040        27
48.060        50
48.080        27
48.100        30
48.120        37
48.140        33
48.160        20
48.180        20
48.200        17
48.220        40
48.240        40
48.260        20
48.280        13
48.300        23
48.320        13
48.340        57
48.360        37
48.380        20
48.400        27
48.420        37
48.440        20
48.460        30
48.480        50
48.500        20
48.520        33
48.540        27
48.560        30
48.580        27
48.600        33
48.620        30
48.640        60
48.660        43
48.680        23
48.700        40
48.720        50
48.740        37
48.760        33
48.780        47
48.800        33
48.820        33
48.840        33
48.860        23
48.880        37
48.900        47
48.920        33
48.940        13
48.960        53
48.980        33
49.000        30
49.020        43
49.040        53
49.060        30
49.080        30
49.100        10
49.120        27
49.140        20
49.160        40
49.180        37
49.200        40
49.220        30
49.240        33
49.260        23
49.280        40
49.300        40
49.320        27
49.340        40
49.360        17
49.380        20
49.400        30
49.420        27
49.440        37
49.460        27
49.480        27
49.500        30
49.520        43
49.540        20
49.560        23
49.580        30
49.600        33
49.620        17
49.640        13
49.660        23
49.680        23
49.700        33
49.720        10
49.740        17
49.760        30
49.780        23
49.800        30
49.820        27
49.840        43
49.860        40
49.880        23
49.900        23
49.920        40
49.940        27
49.960        47
49.980        23
50.000        20
50.020        43
50.040        37
50.060        27
50.080        33
50.100        17
50.120        47
50.140        23
50.160        27
50.180        27
50.200        23
50.220        30
50.240        10
50.260        17
50.280        23
50.300        33
50.320        50
50.340        27
50.360        47
50.380        33
50.400        33
50.420        33
50.440        47
50.460        27
50.480        23
50.500        33
50.520        37
50.540        43
50.560        27
50.580        47
50.600        63
50.620        50
50.640        53
50.660        73
50.680        70
50.700       130
50.720       113
50.740       160
50.760       207
50.780       183
50.800       227
50.820       217
50.840       197
50.860       173
50.880       183
50.900       290
50.920       237
50.940       223
50.960       223
50.980       203
51.000       193
51.020       200
51.040       203
51.060       263
51.080       200
51.100       233
51.120       193
51.140       207
51.160       207
51.180       273
51.200       173
51.220       227
51.240       263
51.260       190
51.280       197
51.300       227
51.320       190
51.340       210
51.360       173
51.380       190
51.400       167
51.420       200
51.440       213
51.460       187
51.480       283
51.500       213
51.520       197
51.540       193
51.560       263
51.580       173
51.600       237
51.620       220
51.640       230
51.660       220
51.680       233
51.700       237
51.720       200
51.740       240
51.760       220
51.780       213
51.800       263
51.820       237
51.840       263
51.860       287
51.880       270
51.900       243
51.920       260
51.940       293
51.960       280
51.980       257
52.000       270
52.020       270
52.040       257
52.060       307
52.080       313
52.100       343
52.120       383
52.140       397
52.160       387
52.180       423
52.200       436
52.220       543
52.240       463
52.260       563
52.280       583
52.300       796
52.320      1026
52.340      1469
52.360      2006
52.380      2609
52.400      3199
52.420      3632
52.440      4005
52.460      4398
52.480      5098
52.500      5821
52.520      6547
52.540      9063
52.560     15840
52.580     41657
52.600     80135
52.620    100473
52.640     99907
52.660     72021
52.680     33547
52.700     18593
52.720     25590
52.740     43236
52.760     54985
52.780     53129
52.800     38448
52.820     16970
52.840      7227
52.860      3812
52.880      2616
52.900      1813
52.920      1519
52.940      1213
52.960      1140
52.980       943
53.000       786
53.020       793
53.040       693
53.060       606
53.080       553
53.100       436
53.120       500
53.140       496
53.160       493
53.180       387
53.200       347
53.220       330
53.240       393
53.260       347
53.280       327
53.300       310
53.320       383
53.340       337
53.360       323
53.380       257
53.400       297
53.420       240
53.440       313
53.460       237
53.480       267
53.500       220
53.520       310
53.540       257
53.560       330
53.580       223
53.600       243
53.620       240
53.640       297
53.660       220
53.680       227
53.700       200
53.720       193
53.740       210
53.760       240
53.780       223
53.800       167
53.820       200
53.840       237
53.860       190
53.880       240
53.900       187
53.920       203
53.940       240
53.960       240
53.980       227
54.000       217
54.020       140
54.040       200
54.060       173
54.080       193
54.100       157
54.120       190
54.140       183
54.160       163
54.180       157
54.200       130
54.220       150
54.240       173
54.260       167
54.280       147
54.300       190
54.320       157
54.340       190
54.360       150
54.380       143
54.400       180
54.420       140
54.440       160
54.460       120
54.480       127
54.500       163
54.520       177
54.540       107
54.560       163
54.580       173
54.600       173
54.620       183
54.640       170
54.660       183
54.680       140
54.700       143
54.720       170
54.740       180
54.760       173
54.780       153
54.800       177
54.820       147
54.840       153
54.860       163
54.880       133
54.900       157
54.920       180
54.940       140
54.960       103
54.980       147
55.000       160
55.020       157
55.040       140
55.060       123
55.080       120
55.100       140
55.120       127
55.140       150
55.160       167
55.180       180
55.200       220
55.220       103
55.240       133
55.260       120
55.280       110
55.300       137
55.320       127
55.340       143
55.360       147
55.380       117
55.400       193
55.420       117
55.440       167
55.460       157
55.480       147
55.500       133
55.520       117
55.540       157
55.560       150
55.580       143
55.600       113
55.620       107
55.640       113
55.660       107
55.680       110
55.700        97
55.720       143
55.740       133
55.760       117
55.780       110
55.800       100
55.820        97
55.840       123
55.860       137
55.880       130
55.900       163
55.920       157
55.940       123
55.960        93
55.980       137
56.000       123
56.020       103
56.040       133
56.060       160
56.080       133
56.100       153
56.120       123
56.140       103
56.160       137
56.180        97
56.200       127
56.220       160
56.240       107
56.260       157
56.280       177
56.300       147
56.320       200
56.340       150
56.360       207
56.380       150
56.400       193
56.420       153
56.440       160
56.460       127
56.480       107
56.500       157
56.520       143
56.540       127
56.560       177
56.580       150
56.600       160
56.620       123
56.640       130
56.660       133
56.680       123
56.700       113
56.720       167
56.740       117
56.760       100
56.780       143
56.800       133
56.820       117
56.840       130
56.860        83
56.880        90
56.900       110
56.920       117
56.940       107
56.960       123
56.980       103
57.000       113
57.020       117
57.040       140
57.060        90
57.080        93
57.100       103
57.120       123
57.140       120
57.160       127
57.180       113
57.200       107
57.220        97
57.240       150
57.260       117
57.280        87
57.300        77
57.320       130
57.340       107
57.360        80
57.380        70
57.400       110
57.420        80
57.440        97
57.460       120
57.480       120
57.500       103
57.520        77
57.540        67
57.560        97
57.580        93
57.600        97
57.620        97
57.640        90
57.660        87
57.680        80
57.700        67
57.720       103
57.740        97
57.760       100
57.780       117
57.800       100
57.820        80
57.840        73
57.860        90
57.880        80
57.900        73
57.920       110
57.940       120
57.960        93
57.980        73
58.000        87
58.020        90
58.040       107
58.060        90
58.080       123
58.100        93
58.120        90
58.140        87
58.160        67
58.180        87
58.200        77
58.220        97
58.240        93
58.260       117
58.280        90
58.300        73
58.320        70
58.340        87
58.360        57
58.380        90
58.400        60
58.420       103
58.440        50
58.460        73
58.480        93
58.500        83
58.520        67
58.540        97
58.560        63
58.580        57
58.600       120
58.620        83
58.640       107
58.660       107
58.680        93
58.700        73
58.720        93
58.740        63
58.760       110
58.780        97
58.800       140
58.820        80
58.840        90
58.860        93
58.880        90
58.900        83
58.920        90
58.940        77
58.960       110
58.980        87
59.000        87
59.020        83
59.040        80
59.060        83
59.080        80
59.100        67
59.120       113
59.140       107
59.160        73
59.180       100
59.200        83
59.220        53
59.240        60
59.260        53
59.280        87
59.300        60
59.320        93
59.340        70
59.360       100
59.380        77
59.400        93
59.420        73
59.440        80
59.460        70
59.480       107
59.500        80
59.520        67
59.540       107
59.560       100
59.580        70
59.600        77
59.620        77
59.640        83
59.660        80
59.680        60
59.700        67
59.720       107
59.740        63
59.760        47
59.780       117
59.800        83
59.820        73
59.840        83
59.860        67
59.880        90
59.900        77
59.920        87
59.940       103
59.960        83
59.980        70
60.000       107
