20.000        67
20.020        47
20.040        50
20.060        43
20.080        53
20.100        50
20.120        30
20.140        50
20.160        30
20.180        30
20.200        50
20.220        50
20.240        63
20.260        53
20.280        53
20.300        43
20.320        50
20.340        33
20.360        33
20.380        33
20.400        47
20.420        53
20.440        43
20.460        33
20.480        33
20.500        43
20.520        47
20.540        37
20.560        63
20.580        47
20.600        70
20.620        60
20.640        53
20.660        47
20.680        70
20.700        57
20.720        47
20.740        50
20.760        37
20.780        37
20.800        80
20.820        63
20.840        53
20.860        63
20.880        70
20.900        40
20.920        80
20.940        53
20.960        73
20.980        47
21.000        67
21.020        73
21.040        73
21.060        63
21.080        63
21.100        53
21.120        70
21.140        73
21.160        90
21.180        73
21.200        87
21.220        73
21.240        73
21.260       107
21.280        67
21.300        93
21.320        80
21.340        73
21.360        83
21.380        80
21.400        67
21.420        70
21.440        87
21.460        53
21.480        97
21.500        83
21.520        67
21.540        87
21.560       117
21.580       110
21.600       103
21.620        80
21.640        83
21.660       103
21.680        87
21.700        67
21.720       150
21.740        90
21.760       127
21.780       123
21.800       100
21.820       153
21.840        97
21.860       110
21.880       113
21.900       117
21.920        70
21.940       143
21.960       143
21.980       137
22.000       103
22.020       113
22.040       203
22.060       140
22.080       153
22.100       197
22.120       173
22.140       153
22.160       160
22.180       147
22.200       153
22.220       130
22.240       153
22.260       173
22.280       163
22.300       140
22.320       123
22.340       170
22.360       147
22.380       137
22.400       133
22.420       137
22.440       110
22.460       153
22.480       167
22.500       133
22.520       153
22.540       117
22.560       117
22.580       123
22.600       160
22.620       143
22.640       127
22.660       147
22.680       127
22.700       150
22.720       147
22.740       113
22.760       127
22.780       120
22.800       147
22.820       153
22.840       170
22.860       150
22.880       150
22.900       187
22.920       150
22.940       157
22.960       167
22.980       173
23.000       153
23.020       187
23.040       277
23.060       543
23.080       920
23.100       936
23.120       650
23.140       393
23.160       257
23.180       200
23.200       183
23.220       183
23.240       197
23.260       133
23.280       180
23.300       167
23.320       187
23.340       137
23.360       163
23.380       183
23.400       187
23.420       163
23.440       140
23.460       197
23.480       173
23.500       167
23.520       170
23.540       160
23.560       150
23.580       153
23.600       157
23.620       220
23.640       167
23.660       197
23.680       130
23.700       140
23.720        93
23.740       143
23.760       147
23.780       183
23.800       153
23.820       190
23.840       160
23.860       180
23.880       183
23.900       193
23.920       160
23.940       173
23.960       150
23.980       183
24.000       163
24.020       133
24.040       160
24.060       160
24.080       173
24.100       160
24.120       160
24.140       163
24.160       190
24.180       123
24.200       183
24.220       127
24.240       183
24.260       127
24.280       140
24.300       163
24.320       157
24.340       173
24.360       150
24.380       150
24.400       180
24.420       180
24.440       213
24.460       147
24.480       193
24.500       173
24.520       160
24.540       153
24.560       113
24.580       170
24.600       180
24.620       123
24.640       190
24.660       147
24.680       207
24.700       237
24.720       300
24.740       393
24.760       380
24.780       400
24.800       400
24.820       426
24.840       456
24.860       450
24.880       383
24.900       373
24.920       470
24.940       370
24.960       453
24.980       426
25.000       453
25.020       426
25.040       407
25.060       436
25.080       417
25.100       400
25.120       360
25.140       476
25.160       483
25.180       513
25.200       480
25.220       470
25.240       550
25.260       496
25.280       513
25.300       543
25.320       546
25.340       673
25.360       623
25.380       676
25.400       736
25.420       913
25.440      1329
25.460      1926
25.480      2772
25.500      3788
25.520      5275
25.540     11515
25.560     43829
25.580     79098
25.600     89574
25.620     90884
25.640     70862
25.660     54072
25.680     48587
25.700     30041
25.720     11152
25.740      6134
25.760      4625
25.780      3672
25.800      2676
25.820      1886
25.840      1269
25.860       906
25.880       703
25.900       573
25.920       633
25.940       596
25.960       523
25.980       483
26.000       480
26.020       483
26.040       387
26.060       397
26.080       466
26.100       370
26.120       533
26.140       370
26.160       370
26.180       367
26.200       403
26.220       373
26.240       377
26.260       310
26.280       323
26.300       297
26.320       350
26.340       297
26.360       290
26.380       307
26.400       327
26.420       313
26.440       290
26.460       267
26.480       387
26.500       293
26.520       307
26.540       330
26.560       267
26.580       343
26.600       270
26.620       280
26.640       300
26.660       293
26.680       327
26.700       260
26.720       270
26.740       283
26.760       267
26.780       270
26.800       310
26.820       297
26.840       260
26.860       283
26.880       233
26.900       293
26.920       237
26.940       260
26.960       287
26.980       223
27.000       233
27.020       227
27.040       253
27.060       217
27.080       267
27.100       253
27.120       237
27.140       223
27.160       253
27.180       227
27.200       223
27.220       257
27.240       260
27.260       240
27.280       193
27.300       223
27.320       197
27.340       250
27.360       237
27.380       237
27.400       213
27.420       237
27.440       187
27.460       183
27.480       163
27.500       227
27.520       220
27.540       180
27.560       233
27.580       227
27.600       227
27.620       160
27.640       247
27.660       217
27.680       227
27.700       220
27.720       213
27.740       223
27.760       217
27.780       230
27.800       223
27.820       220
27.840       223
27.860       180
27.880       213
27.900       233
27.920       200
27.940       237
27.960       217
27.980       193
28.000       177
28.020       230
28.040       223
28.060       210
28.080       230
28.100       230
28.120       260
28.140       167
28.160       183
28.180       220
28.200       203
28.220       183
28.240       183
28.260       183
28.280       230
28.300       220
28.320       217
28.340       193
28.360       170
28.380       190
28.400       203
28.420       180
28.440       163
28.460       190
28.480       213
28.500       223
28.520       167
28.540       193
28.560       213
28.580       213
28.600       173
28.620       170
28.640       127
28.660       170
28.680       157
28.700       200
28.720       193
28.740       107
28.760       197
28.780       187
28.800       190
28.820       167
28.840       177
28.860       187
28.880       150
28.900       163
28.920       190
28.940       200
28.960       170
28.980       170
29.000       173
29.020       187
29.040       193
29.060       193
29.080       217
29.100       163
29.120       143
29.140       157
29.160       223
29.180       150
29.200       197
29.220       200
29.240       173
29.260       160
29.280       153
29.300       193
29.320       180
29.340       137
29.360       180
29.380       153
29.400       157
29.420       157
29.440       137
29.460       130
29.480       137
29.500       190
29.520       133
29.540       160
29.560       157
29.580       177
29.600       183
29.620       203
29.640       157
29.660       170
29.680       170
29.700       143
29.720       140
29.740       180
29.760       130
29.780       153
29.800       173
29.820       140
29.840       103
29.860       137
29.880       203
29.900       140
29.920       120
29.940       163
29.960       133
29.980       153
30.000       133
30.020       170
30.040       130
30.060       127
30.080       157
30.100       183
30.120       157
30.140       150
30.160       170
30.180       173
30.200       150
30.220       143
30.240       147
30.260       117
30.280       140
30.300       173
30.320       127
30.340       143
30.360       147
30.380       147
30.400       140
30.420       123
30.440       137
30.460       130
30.480       153
30.500       113
30.520       153
30.540       140
30.560       143
30.580       137
30.600       133
30.620       137
30.640       120
30.660       150
30.680       117
30.700       140
30.720       120
30.740       150
30.760       183
30.780       100
30.800       127
30.820       170
30.840        97
30.860       123
30.880       150
30.900       107
30.920       117
30.940       157
30.960       113
30.980       107
31.000       153
31.020        73
31.040       127
31.060       127
31.080       137
31.100       117
31.120       130
31.140       157
31.160       173
31.180       117
31.200       137
31.220       117
31.240       113
31.260       127
31.280       100
31.300       110
31.320       150
31.340       170
31.360       127
31.380       127
31.400       197
31.420       157
31.440       183
31.460       140
31.480       160
31.500       137
31.520       160
31.540       213
31.560       150
31.580       190
31.600       180
31.620       173
31.640       143
31.660       197
31.680       210
31.700       207
31.720       193
31.740       173
31.760       180
31.780       197
31.800       127
31.820       140
31.840       130
31.860       187
31.880       167
31.900       157
31.920       153
31.940       147
31.960        93
31.980       120
32.000       120
32.020       133
32.040       107
32.060       133
32.080       137
32.100       133
32.120       137
32.140       103
32.160       120
32.180       107
32.200       113
32.220       117
32.240       117
32.260       100
32.280       110
32.300       110
32.320       103
32.340       103
32.360       103
32.380       110
32.400       103
32.420       110
32.440       113
32.460       110
32.480       133
32.500       103
32.520        80
32.540        93
32.560       103
32.580        90
32.600        67
32.620       107
32.640        83
32.660       110
32.680        90
32.700        97
32.720        47
32.740        77
32.760       100
32.780        87
32.800       117
32.820        80
32.840        63
32.860        87
32.880        93
32.900       107
32.920        67
32.940        57
32.960        87
32.980        80
33.000        97
33.020       100
33.040        70
33.060       127
33.080        73
33.100        70
33.120        87
33.140        93
33.160       113
33.180        83
33.200        90
33.220        77
33.240        90
33.260       103
33.280        70
33.300        70
33.320        73
33.340       113
33.360        53
33.380       100
33.400        93
33.420        67
33.440        97
33.460        83
33.480        63
33.500        83
33.520        73
33.540        67
33.560        93
33.580        60
33.600        50
33.620        90
33.640        83
33.660        77
33.680        53
33.700        43
33.720        77
33.740        73
33.760        83
33.780        70
33.800        87
33.820        77
33.840        83
33.860        70
33.880        70
33.900        93
33.920        60
33.940        53
33.960        67
33.980       120
34.000        67
34.020        87
34.040        97
34.060        77
34.080        60
34.100        87
34.120        57
34.140        63
34.160        67
34.180        60
34.200        67
34.220        47
34.240        77
34.260        83
34.280        93
34.300        93
34.320        93
34.340        77
34.360        60
34.380        63
34.400        73
34.420        63
34.440        70
34.460        47
34.480        83
34.500        83
34.520        70
34.540        40
34.560        37
34.580        67
34.600        63
34.620        60
34.640        53
34.660        63
34.680        77
34.700        60
34.720        67
34.740        50
34.760        83
34.780        83
34.800       123
34.820        67
34.840        53
34.860        50
34.880        70
34.900        73
34.920        63
34.940        57
34.960        60
34.980        70
35.000        90
35.020        47
35.040        33
35.060        63
35.080        70
35.100        83
35.120        53
35.140        87
35.160        77
35.180        60
35.200        80
35.220        53
35.240        57
35.260        70
35.280        83
35.300        70
35.320        43
35.340        60
35.360        50
35.380        63
35.400        50
35.420        70
35.440        47
35.460        70
35.480        57
35.500        50
35.520        70
35.540        57
35.560        73
35.580        43
35.600        83
35.620        73
35.640        83
35.660        37
35.680        57
35.700        53
35.720        50
35.740        57
35.760        50
35.780        43
35.800        27
35.820        70
35.840        80
35.860        53
35.880        50
35.900        70
35.920        83
35.940        50
35.960        37
35.980        30
36.000        70
36.020        43
36.040        53
36.060        70
36.080        53
36.100        73
36.120        70
36.140        57
36.160        40
36.180        57
36.200        50
36.220        70
36.240        57
36.260        60
36.280        43
36.300        63
36.320        37
36.340        40
36.360        90
36.380        43
36.400        50
36.420        47
36.440        53
36.460        77
36.480        53
36.500        80
36.520        70
36.540        70
36.560        47
36.580        63
36.600        50
36.620        30
36.640        40
36.660        60
36.680        50
36.700        63
36.720        57
36.740        67
36.760        40
36.780        67
36.800        33
36.820        57
36.840        63
36.860        53
36.880        53
36.900        57
36.920        50
36.940        50
36.960        63
36.980        37
37.000        47
37.020        70
37.040        50
37.060        40
37.080        53
37.100        73
37.120        47
37.140        63
37.160        97
37.180        60
37.200        63
37.220        43
37.240        60
37.260        70
37.280        57
37.300        73
37.320        60
37.340        50
37.360        50
37.380        40
37.400        30
37.420        60
37.440        30
37.460        47
37.480        40
37.500        43
37.520        47
37.540        33
37.560        63
37.580        43
37.600        20
37.620        43
37.640        53
37.660        60
37.680        53
37.700        27
37.720        53
37.740        30
37.760        47
37.780        37
37.800        40
37.820        37
37.840        23
37.860        50
37.880        63
37.900        20
37.920        47
37.940        53
37.960        50
37.980        37
38.000        40
38.020        53
38.040        50
38.060        63
38.080        33
38.100        47
38.120        40
38.140        40
38.160        33
38.180        60
38.200        53
38.220        53
38.240        80
38.260        40
38.280        63
38.300        77
38.320        37
38.340        37
38.360        60
38.380        37
38.400        40
38.420        53
38.440        43
38.460        23
38.480        37
38.500        20
38.520        50
38.540        37
38.560        70
38.580        77
38.600        53
38.620        30
38.640        40
38.660        63
38.680        57
38.700        50
38.720        53
38.740        47
38.760        40
38.780        63
38.800        53
38.820        77
38.840        73
38.860        40
38.880        73
38.900        47
38.920        47
38.940       103
38.960        67
38.980       123
39.000        87
39.020        53
39.040       117
39.060       127
39.080       147
39.100        97
39.120       123
39.140       107
39.160       160
39.180       183
39.200       203
39.220       137
39.240       187
39.260       180
39.280       140
39.300       150
39.320       130
39.340        93
39.360       120
39.380       103
39.400        87
39.420       100
39.440        80
39.460        90
39.480        70
39.500        53
39.520        50
39.540        50
39.560        50
39.580        57
39.600        50
39.620        47
39.640        63
39.660        30
39.680        47
39.700        53
39.720        37
39.740        30
39.760        37
39.780        33
39.800        33
39.820        77
39.840        43
39.860        53
39.880        63
39.900        50
39.920        33
39.940        27
39.960        37
39.980        33
40.000        40
40.020        67
40.040        47
40.060        53
40.080        33
40.100        33
40.120        40
40.140        40
40.160        47
40.180        40
40.200        23
40.220        57
40.240        43
40.260        63
40.280        47
40.300        47
40.320        43
40.340        37
40.360        43
40.380        43
40.400        33
40.420        30
40.440        37
40.460        30
40.480        57
40.500        40
40.520        50
40.540        40
40.560        53
40.580        30
40.600        40
40.620        43
40.640        43
40.660        27
40.680        37
40.700        47
40.720        47
40.740        30
40.760        30
40.780        43
40.800        33
40.820        30
40.840        50
40.860        33
40.880        27
40.900        23
40.920        43
40.940        50
40.960        27
40.980        40
41.000        33
41.020        30
41.040        47
41.060        47
41.080        33
41.100        30
41.120        50
41.140        27
41.160        37
41.180        40
41.200        40
41.220        40
41.240        40
41.260        23
41.280        33
41.300        27
41.320        30
41.340        23
41.360        33
41.380        27
41.400        27
41.420        57
41.440        20
41.460        20
41.480        27
41.500        27
41.520        37
41.540        40
41.560        30
41.580        30
41.600        43
41.620        40
41.640        53
41.660        40
41.680        23
41.700        47
41.720        37
41.740        30
41.760        27
41.780        23
41.800        37
41.820        27
41.840        27
41.860        50
41.880        43
41.900        30
41.920        27
41.940        27
41.960        43
41.980        37
42.000        30
42.020        37
42.040        17
42.060        20
42.080        60
42.100        33
42.120        40
42.140        13
42.160        47
42.180        37
42.200        53
42.220        27
42.240        43
42.260        20
42.280        23
42.300        30
42.320        40
42.340        30
42.360        27
42.380        20
42.400        40
42.420        43
42.440        27
42.460        23
42.480        47
42.500        27
42.520        30
42.540        33
42.560        30
42.580        30
42.600        40
42.620        13
42.640        30
42.660        47
42.680        27
42.700        57
42.720        27
42.740        57
42.760        20
42.780        53
42.800        50
42.820        20
42.840        23
42.860        20
42.880        37
42.900        30
42.920        47
42.940        30
42.960        37
42.980        27
43.000        30
43.020        10
43.040        57
43.060        23
43.080        27
43.100        30
43.120        20
43.140        30
43.160        27
43.180        43
43.200        47
43.220        27
43.240        23
43.260        30
43.280        20
43.300        23
43.320        17
43.340        33
43.360        37
43.380        43
43.400        33
43.420        47
43.440        37
43.460        50
43.480        47
43.500        33
43.520        30
43.540        27
43.560        23
43.580        40
43.600        30
43.620        30
43.640        37
43.660        57
43.680        40
43.700        37
43.720        30
43.740        20
43.760        57
43.780        43
43.800        33
43.820        40
43.840        20
43.860        33
43.880        60
43.900        60
43.920        53
43.940        63
43.960        37
43.980        47
44.000        60
44.020        43
44.040        50
44.060        33
44.080        43
44.100        47
44.120        30
44.140        60
44.160        37
44.180        37
44.200        47
44.220        60
44.240        73
44.260        77
44.280        33
44.300        50
44.320        43
44.340        40
44.360        47
44.380        53
44.400        53
44.420        67
44.440        53
44.460        80
44.480        77
44.500        70
44.520        63
44.540        80
44.560        70
44.580        63
44.600        63
44.620        70
44.640        70
44.660       113
44.680        77
44.700       103
44.720        93
44.740        73
44.760        77
44.780        83
44.800       120
44.820       113
44.840        97
44.860       113
44.880       130
44.900       110
44.920       160
44.940       133
44.960       137
44.980       133
45.000       157
45.020       137
45.040       180
45.060       177
45.080       143
45.100       147
45.120       137
45.140       203
45.160       153
45.180       170
45.200       197
45.220       207
45.240       170
45.260       207
45.280       210
45.300       230
45.320       250
45.340       243
45.360       207
45.380       143
45.400       197
45.420       157
45.440       207
45.460       147
45.480       150
45.500       150
45.520       127
45.540       123
45.560       167
45.580       153
45.600       120
45.620       107
45.640       133
45.660       133
45.680       173
45.700       130
45.720       117
45.740       143
45.760       153
45.780       103
45.800       100
45.820        70
45.840        63
45.860       113
45.880        97
45.900        97
45.920        87
45.940        93
45.960       100
45.980        80
46.000        97
46.020        53
46.040        93
46.060        77
46.080        53
46.100        77
46.120        90
46.140        70
46.160        50
46.180        60
46.200        43
46.220        53
46.240        53
46.260        83
46.280        47
46.300        53
46.320        33
46.340        47
46.360        57
46.380        43
46.400        33
46.420        60
46.440        40
46.460        40
46.480        50
46.500        57
46.520        53
46.540        23
46.560        50
46.580        50
46.600        57
46.620        40
46.640        70
46.660        37
46.680        50
46.700        43
46.720        77
46.740        37
46.760        60
46.780        73
46.800        53
46.820        77
46.840        80
46.860        70
46.880        50
46.900        67
46.920        60
46.940        50
46.960        43
46.980        27
47.000        53
47.020        63
47.040        57
47.060        73
47.080        97
47.100       103
47.120       163
47.140       230
47.160       470
47.180       753
47.200       910
47.220       646
47.240       393
47.260       270
47.280       163
47.300       110
47.320        83
47.340        83
47.360        67
47.380        83
47.400        93
47.420        43
47.440        53
47.460        73
47.480        50
47.500        33
47.520        33
47.540        67
47.560        93
47.580        43
47.600        60
47.620        50
47.640        30
47.660        47
47.680        33
47.700        30
47.720        40
47.740        47
47.760        17
47.780        33
47.800        53
47.820        17
47.840        10
47.860        27
47.880        33
47.900        37
47.920        27
47.940        23
47.960        37
47.980        47
48.000        60
48.020        50
48.040        23
48.060        37
48.080        43
48.100        77
48.120        33
48.140        47
48.160        27
48.180        27
48.200        33
48.220        23
48.240        43
48.260        40
48.280        47
48.300        23
48.320        20
48.340        33
48.360        47
48.380        23
48.400        33
48.420        27
48.440        33
48.460        30
48.480        47
48.500        27
48.520        27
48.540        37
48.560        30
48.580        30
48.600        33
48.620        27
48.640        37
48.660        23
48.680        33
48.700        37
48.720        20
48.740        23
48.760        37
48.780        20
48.800        37
48.820        23
48.840        30
48.860        33
48.880        33
48.900        27
48.920        17
48.940        20
48.960        30
48.980         7
49.000        30
49.020        50
49.040        37
49.060        30
49.080        40
49.100        33
49.120        47
49.140        30
49.160        43
49.180        47
49.200        17
49.220        53
49.240        23
49.260        40
49.280        20
49.300        23
49.320        57
49.340        17
49.360        20
49.380        40
49.400        20
49.420        20
49.440        43
49.460        50
49.480        37
49.500        33
49.520        30
49.540        63
49.560        33
49.580        27
49.600        27
49.620        27
49.640        23
49.660        27
49.680        30
49.700        37
49.720        27
49.740        23
49.760        20
49.780        40
49.800        27
49.820        47
49.840        40
49.860        33
49.880        30
49.900        43
49.920        57
49.940        37
49.960        23
49.980        33
50.000        37
50.020        30
50.040        30
50.060        40
50.080        40
50.100        20
50.120        47
50.140        37
50.160        20
50.180        20
50.200        27
50.220        20
50.240        20
50.260        33
50.280        30
50.300        33
50.320        17
50.340        30
50.360        20
50.380        20
50.400        30
50.420        33
50.440        37
50.460        37
50.480        30
50.500        20
50.520        33
50.540        43
50.560        33
50.580        47
50.600        53
50.620        63
50.640        50
50.660       110
50.680       133
50.700       177
50.720       213
50.740       167
50.760       180
50.780       240
50.800       160
50.820       220
50.840       203
50.860       200
50.880       250
50.900       213
50.920       200
50.940       200
50.960       190
50.980       160
51.000       203
51.020       197
51.040       187
51.060       203
51.080       200
51.100       160
51.120       190
51.140       193
51.160       223
51.180       210
51.200       230
51.220       217
51.240       187
51.260       223
51.280       197
51.300       210
51.320       253
51.340       203
51.360       177
51.380       210
51.400       210
51.420       233
51.440       230
51.460       200
51.480       240
51.500       213
51.520       217
51.540       200
51.560       223
51.580       223
51.600       213
51.620       230
51.640       170
51.660       190
51.680       250
51.700       243
51.720       197
51.740       200
51.760       190
51.780       240
51.800       280
51.820       217
51.840       233
51.860       273
51.880       233
51.900       247
51.920       250
51.940       303
51.960       327
51.980       303
52.000       283
52.020       300
52.040       337
52.060       340
52.080       277
52.100       380
52.120       377
52.140       363
52.160       403
52.180       456
52.200       423
52.220       513
52.240       580
52.260       630
52.280       790
52.300      1033
52.320      1273
52.340      1526
52.360      1776
52.380      1659
52.400      1676
52.420      1876
52.440      2142
52.460      2896
52.480      4222
52.500      6664
52.520     12785
52.540     33400
52.560     72171
52.580     96448
52.600     99660
52.620     75353
52.640     36552
52.660     19592
52.680     25297
52.700     42830
52.720     55391
52.740     55135
52.760     40617
52.780     19266
52.800      8600
52.820      5188
52.840      4168
52.860      3432
52.880      2632
52.900      1923
52.920      1323
52.940      1206
52.960       906
52.980       886
53.000       703
53.020       666
53.040       616
53.060       536
53.080       526
53.100       480
53.120       426
53.140       423
53.160       363
53.180       377
53.200       357
53.220       363
53.240       330
53.260       360
53.280       373
53.300       310
53.320       277
53.340       300
53.360       300
53.380       257
53.400       297
53.420       253
53.440       340
53.460       297
53.480       313
53.500       233
53.520       243
53.540       263
53.560       207
53.580       250
53.600       250
53.620       217
53.640       197
53.660       210
53.680       217
53.700       217
53.720       277
53.740       213
53.760       237
53.780       160
53.800       190
53.820       183
53.840       177
53.860       177
53.880       177
53.900       160
53.920       177
53.940       180
53.960       227
53.980       163
54.000       160
54.020       230
54.040       170
54.060       190
54.080       157
54.100       153
54.120       173
54.140       163
54.160       143
54.180       183
54.200       210
54.220       147
54.240       183
54.260       163
54.280       163
54.300       147
54.320       157
54.340       143
54.360       157
54.380       210
54.400       127
54.420       150
54.440       127
54.460       130
54.480       120
54.500       137
54.520       187
54.540       167
54.560       140
54.580       193
54.600       167
54.620       137
54.640       163
54.660       170
54.680       137
54.700       100
54.720       127
54.740       147
54.760       133
54.780       173
54.800       120
54.820       130
54.840       133
54.860       127
54.880       137
54.900       107
54.920       133
54.940       143
54.960       140
54.980       113
55.000       163
55.020       110
55.040       137
55.060       153
55.080       113
55.100        80
55.120       140
55.140       127
55.160       127
55.180       113
55.200       107
55.220       130
55.240       110
55.260       150
55.280       120
55.300       127
55.320       163
55.340       127
55.360       133
55.380       157
55.400       140
55.420       133
55.440       143
55.460        97
55.480       140
55.500       133
55.520       100
55.540       143
55.560       117
55.580       103
55.600       137
55.620       120
55.640       130
55.660        93
55.680       143
55.700       107
55.720       127
55.740       190
55.760       160
55.780       117
55.800       123
55.820       107
55.840       130
55.860        97
55.880       110
55.900        97
55.920        87
55.940       173
55.960       123
55.980       113
56.000        90
56.020       153
56.040       127
56.060       110
56.080       147
56.100       133
56.120       113
56.140       143
56.160       163
56.180        67
56.200       120
56.220       123
56.240       113
56.260       147
56.280        83
56.300       147
56.320       123
56.340       107
56.360       100
56.380       117
56.400       140
56.420       127
56.440       140
56.460       153
56.480       113
56.500       140
56.520       127
56.540        97
56.560       107
56.580       143
56.600       120
56.620       140
56.640       157
56.660       140
56.680       127
56.700       133
56.720       107
56.740       127
56.760       123
56.780       100
56.800       107
56.820       127
56.840       113
56.860       147
56.880       107
56.900       100
56.920       107
56.940        87
56.960       110
56.980       120
57.000       137
57.020       110
57.040        87
57.060       107
57.080        87
57.100       107
57.120       130
57.140       120
57.160       110
57.180        97
57.200        97
57.220       123
57.240        97
57.260        93
57.280       130
57.300       123
57.320       113
57.340        90
57.360       113
57.380        80
57.400        87
57.420       127
57.440        77
57.460       110
57.480       110
57.500        83
57.520        47
57.540        80
57.560        77
57.580        93
57.600        83
57.620       130
57.640       143
57.660       120
57.680       123
57.700        63
57.720       107
57.740        70
57.760       117
57.780        67
57.800        87
57.820       107
57.840        53
57.860        83
57.880        63
57.900        97
57.920       103
57.940        80
57.960        70
57.980       113
58.000        90
58.020       100
58.040        93
58.060        90
58.080       100
58.100        83
58.120        57
58.140        87
58.160       117
58.180       110
58.200        70
58.220       117
58.240        73
58.260       103
58.280        93
58.300        77
58.320        97
58.340        87
58.360        87
58.380        70
58.400        90
58.420        60
58.440        57
58.460        83
58.480       103
58.500        73
58.520        97
58.540        97
58.560       100
58.580        73
58.600        80
58.620        57
58.640        57
58.660        93
58.680        77
58.700        40
58.720        80
58.740        67
58.760        83
58.780        83
58.800        67
58.820        87
58.840        67
58.860        50
58.880        70
58.900        97
58.920       107
58.940        77
58.960        90
58.980        67
59.000        80
59.020        97
59.040       110
59.060        63
59.080       107
59.100       103
59.120        73
59.140        77
59.160        80
59.180        97
59.200        67
59.220        60
59.240        47
59.260       107
59.280        70
59.300        80
59.320        80
59.340        93
59.360        97
59.380        73
59.400        97
59.420        93
59.440        67
59.460       113
59.480        57
59.500        87
59.520        97
59.540        80
59.560        53
59.580        70
59.600        80
59.620        83
59.640        60
59.660        63
59.680        60
59.700        87
59.720        60
59.740        60
59.760        70
59.780        77
59.800        47
59.820        63
59.840        77
59.860        87
59.880        63
59.900        67
59.920        83
59.940        73
59.960       100
59.980        43
60.000        43
