20.000        10
20.020        10
20.040        67
20.060        83
20.080        50
20.100        83
20.120        73
20.140        70
20.160        70
20.180        93
20.200        87
20.220        67
20.240        83
20.260        50
20.280        47
20.300        60
20.320        57
20.340        83
20.360        53
20.380        80
20.400        60
20.420        57
20.440        93
20.460        77
20.480        87
20.500        47
20.520        73
20.540        47
20.560        57
20.580        87
20.600        60
20.620        70
20.640        63
20.660        77
20.680        67
20.700        60
20.720        60
20.740        50
20.760        53
20.780        83
20.800        83
20.820       100
20.840        70
20.860        47
20.880        37
20.900        57
20.920        70
20.940        60
20.960        80
20.980        97
21.000        57
21.020        67
21.040        63
21.060        83
21.080        70
21.100        63
21.120        80
21.140        47
21.160        93
21.180        60
21.200        90
21.220        60
21.240        70
21.260        50
21.280        57
21.300        63
21.320        67
21.340        73
21.360        50
21.380        47
21.400        40
21.420        57
21.440        80
21.460        63
21.480        57
21.500        53
21.520       103
21.540        60
21.560        60
21.580        50
21.600        53
21.620        67
21.640       110
21.660        67
21.680        47
21.700        57
21.720        90
21.740        77
21.760       100
21.780        67
21.800        60
21.820        47
21.840        93
21.860        90
21.880        70
21.900        77
21.920       103
21.940        77
21.960        73
21.980        80
22.000        97
22.020       103
22.040       113
22.060        93
22.080        83
22.100       117
22.120       130
22.140       130
22.160       103
22.180       120
22.200       127
22.220        60
22.240       157
22.260       127
22.280       100
22.300       103
22.320       147
22.340       137
22.360       113
22.380       127
22.400       180
22.420       120
22.440       133
22.460       107
22.480        83
22.500       143
22.520        83
22.540        97
22.560        80
22.580        83
22.600       130
22.620        83
22.640        73
22.660        87
22.680        97
22.700       113
22.720       110
22.740        83
22.760        83
22.780        57
22.800        60
22.820       117
22.840        90
22.860       100
22.880        73
22.900       107
22.920        83
22.940       113
22.960       137
22.980       123
23.000       103
23.020       127
23.040       133
23.060       127
23.080       113
23.100       130
23.120       173
23.140       403
23.160       696
23.180       873
23.200       843
23.220       586
23.240       273
23.260       157
23.280       160
23.300       140
23.320       117
23.340       147
23.360       123
23.380       100
23.400       127
23.420       113
23.440        83
23.460       107
23.480       117
23.500        90
23.520       107
23.540        90
23.560       100
23.580        93
23.600       107
23.620        93
23.640       107
23.660       100
23.680        90
23.700        90
23.720       117
23.740        80
23.760        90
23.780        87
23.800        80
23.820       113
23.840        77
23.860       110
23.880       113
23.900       107
23.920       130
23.940        93
23.960       123
23.980        80
24.000        80
24.020       137
24.040        77
24.060        83
24.080        73
24.100        83
24.120       120
24.140        90
24.160       123
24.180       103
24.200        93
24.220       117
24.240        87
24.260       123
24.280       107
24.300        97
24.320        87
24.340       120
24.360        67
24.380        83
24.400       130
24.420       133
24.440        80
24.460        70
24.480        93
24.500       113
24.520        87
24.540        80
24.560       113
24.580        60
24.600        80
24.620        93
24.640       117
24.660        93
24.680       103
24.700        97
24.720        93
24.740       130
24.760       140
24.780       173
24.800       290
24.820       280
24.840       407
24.860       367
24.880       347
24.900       473
24.920       433
24.940       393
24.960       473
24.980       476
25.000       460
25.020       480
25.040       423
25.060       480
25.080       460
25.100       516
25.120       460
25.140       400
25.160       417
25.180       463
25.200       403
25.220       443
25.240       473
25.260       397
25.280       430
25.300       496
25.320       496
25.340       496
25.360       490
25.380       510
25.400       570
25.420       593
25.440       660
25.460       773
25.480      1020
25.500      1536
25.520      2416
25.540      3459
25.560      4731
25.580      5628
25.600      6361
25.620      8580
25.640     23387
25.660     66174
25.680     95099
25.700    102146
25.720     96478
25.740     72038
25.760     58377
25.780     50237
25.800     27366
25.820     10343
25.840      6471
25.860      5028
25.880      3632
25.900      2876
25.920      2009
25.940      1433
25.960       910
25.980       673
26.000       666
26.020       576
26.040       596
26.060       583
26.080       543
26.100       573
26.120       506
26.140       533
26.160       463
26.180       466
26.200       476
26.220       460
26.240       446
26.260       423
26.280       417
26.300       436
26.320       390
26.340       360
26.360       340
26.380       370
26.400       380
26.420       300
26.440       383
26.460       370
26.480       343
26.500       333
26.520       243
26.540       343
26.560       237
26.580       323
26.600       350
26.620       270
26.640       323
26.660       290
26.680       350
26.700       323
26.720       317
26.740       327
26.760       303
26.780       293
26.800       340
26.820       303
26.840       300
26.860       277
26.880       313
26.900       230
26.920       317
26.940       407
26.960       253
26.980       220
27.000       233
27.020       250
27.040       213
27.060       257
27.080       273
27.100       343
27.120       267
27.140       247
27.160       233
27.180       320
27.200       290
27.220       300
27.240       313
27.260       257
27.280       223
27.300       243
27.320       320
27.340       277
27.360       243
27.380       283
27.400       230
27.420       280
27.440       227
27.460       257
27.480       290
27.500       247
27.520       300
27.540       247
27.560       210
27.580       263
27.600       220
27.620       240
27.640       220
27.660       213
27.680       243
27.700       243
27.720       207
27.740       243
27.760       267
27.780       267
27.800       297
27.820       190
27.840       283
27.860       253
27.880       227
27.900       230
27.920       223
27.940       233
27.960       243
27.980       233
28.000       207
28.020       213
28.040       223
28.060       247
28.080       187
28.100       207
28.120       260
28.140       193
28.160       210
28.180       207
28.200       213
28.220       243
28.240       197
28.260       190
28.280       237
28.300       213
28.320       220
28.340       210
28.360       167
28.380       203
28.400       183
28.420       233
28.440       223
28.460       153
28.480       200
28.500       153
28.520       200
28.540       273
28.560       250
28.580       193
28.600       153
28.620       203
28.640       173
28.660       213
28.680       183
28.700       187
28.720       177
28.740       177
28.760       217
28.780       257
28.800       160
28.820       190
28.840       247
28.860       207
28.880       200
28.900       190
28.920       177
28.940       210
28.960       180
28.980       210
29.000       210
29.020       190
29.040       173
29.060       207
29.080       240
29.100       233
29.120       197
29.140       170
29.160       127
29.180       190
29.200       207
29.220       207
29.240       203
29.260       190
29.280       183
29.300       203
29.320       127
29.340       170
29.360       193
29.380       227
29.400       207
29.420       233
29.440       180
29.460       230
29.480       173
29.500       213
29.520       167
29.540       213
29.560       173
29.580       163
29.600       123
29.620       170
29.640       163
29.660       177
29.680       153
29.700       183
29.720       187
29.740       180
29.760       167
29.780       143
29.800       183
29.820       183
29.840       183
29.860       187
29.880       173
29.900       197
29.920       177
29.940       153
29.960       167
29.980       157
30.000       193
30.020       153
30.040       217
30.060       153
30.080       133
30.100       177
30.120       177
30.140       210
30.160       180
30.180       173
30.200       173
30.220       160
30.240       157
30.260       187
30.280       150
30.300       170
30.320       157
30.340       167
30.360       160
30.380       157
30.400       130
30.420       180
30.440       153
30.460       173
30.480       177
30.500       167
30.520       147
30.540       187
30.560       127
30.580       167
30.600       130
30.620       143
30.640       153
30.660       153
30.680       157
30.700       140
30.720       140
30.740       190
30.760       177
30.780       113
30.800       143
30.820       120
30.840       140
30.860       170
30.880       157
30.900       140
30.920       133
30.940       137
30.960       140
30.980       190
31.000       133
31.020       157
31.040       160
31.060       120
31.080       130
31.100       157
31.120       107
31.140       120
31.160       143
31.180       157
31.200       143
31.220       143
31.240       140
31.260       130
31.280       137
31.300       117
31.320       123
31.340       117
31.360       190
31.380       137
31.400       157
31.420       160
31.440       153
31.460       167
31.480       127
31.500       140
31.520       147
31.540       180
31.560       143
31.580       177
31.600       207
31.620       187
31.640       177
31.660       183
31.680       187
31.700       207
31.720       197
31.740       170
31.760       227
31.780       187
31.800       150
31.820       183
31.840       163
31.860       183
31.880       153
31.900       213
31.920       170
31.940       173
31.960       110
31.980       170
32.000       187
32.020       170
32.040       130
32.060       140
32.080       163
32.100       143
32.120       133
32.140       140
32.160       140
32.180       177
32.200       133
32.220       120
32.240       113
32.260       107
32.280       190
32.300       127
32.320        97
32.340       123
32.360       113
32.380       133
32.400       160
32.420       113
32.440       143
32.460       137
32.480       123
32.500       120
32.520       130
32.540       120
32.560       137
32.580        97
32.600        87
32.620        93
32.640       100
32.660       100
32.680       117
32.700       110
32.720        90
32.740       147
32.760        60
32.780       110
32.800       110
32.820       107
32.840        70
32.860        67
32.880       117
32.900        87
32.920       110
32.940       107
32.960       100
32.980       103
33.000       110
33.020       113
33.040       113
33.060       107
33.080        83
33.100       103
33.120       103
33.140        70
33.160       110
33.180       113
33.200        93
33.220       103
33.240        73
33.260        90
33.280        97
33.300       107
33.320       120
33.340       103
33.360        90
33.380        90
33.400        87
33.420        77
33.440        87
33.460        87
33.480       100
33.500        90
33.520       107
33.540        60
33.560        90
33.580       100
33.600        77
33.620        73
33.640        77
33.660        87
33.680        87
33.700        73
33.720        80
33.740       100
33.760        90
33.780        63
33.800        60
33.820       110
33.840        67
33.860        73
33.880        80
33.900       143
33.920        90
33.940        70
33.960        50
33.980        50
34.000        80
34.020        93
34.040        60
34.060        80
34.080        97
34.100        90
34.120        63
34.140        93
34.160        97
34.180        73
34.200        87
34.220        60
34.240        87
34.260        90
34.280        47
34.300        83
34.320        90
34.340       100
34.360        47
34.380        73
34.400        80
34.420        67
34.440        60
34.460        73
34.480        77
34.500       100
34.520        67
34.540       120
34.560        70
34.580        97
34.600        63
34.620       110
34.640        63
34.660        47
34.680        73
34.700        87
34.720       103
34.740        57
34.760        53
34.780        60
34.800        67
34.820        60
34.840        80
34.860        53
34.880        97
34.900        83
34.920        83
34.940       120
34.960        70
34.980        77
35.000        40
35.020        60
35.040        77
35.060        57
35.080        87
35.100        53
35.120        67
35.140        97
35.160        67
35.180        80
35.200        67
35.220        33
35.240        83
35.260        87
35.280        57
35.300        63
35.320        77
35.340        53
35.360        73
35.380        70
35.400        67
35.420        50
35.440        83
35.460        73
35.480        63
35.500        50
35.520        50
35.540        73
35.560        70
35.580        77
35.600        70
35.620        57
35.640        80
35.660        73
35.680        50
35.700        40
35.720        77
35.740        63
35.760        63
35.780        53
35.800        73
35.820        67
35.840        53
35.860        67
35.880        73
35.900        93
35.920        57
35.940        87
35.960        73
35.980        70
36.000        37
36.020        53
36.040        53
36.060        57
36.080        60
36.100        50
36.120        60
36.140        70
36.160        57
36.180        53
36.200       130
36.220        60
36.240        33
36.260        37
36.280        30
36.300        53
36.320        57
36.340        60
36.360        33
36.380        67
36.400        60
36.420        57
36.440        60
36.460        43
36.480        43
36.500        50
36.520        30
36.540        40
36.560        60
36.580        47
36.600        67
36.620        60
36.640        60
36.660        43
36.680        53
36.700        33
36.720        50
36.740        53
36.760        47
36.780        37
36.800        47
36.820        60
36.840        43
36.860        60
36.880        53
36.900        70
36.920        37
36.940        60
36.960        43
36.980        57
37.000        50
37.020        33
37.040        60
37.060        67
37.080        63
37.100        60
37.120        57
37.140        63
37.160        60
37.180        40
37.200        37
37.220        57
37.240        63
37.260        63
37.280        63
37.300        43
37.320        47
37.340        47
37.360        40
37.380        47
37.400        77
37.420        60
37.440        47
37.460        43
37.480        47
37.500        50
37.520        60
37.540        60
37.560        67
37.580        57
37.600        50
37.620        43
37.640        73
37.660        47
37.680        53
37.700        43
37.720        20
37.740        63
37.760        50
37.780        53
37.800        43
37.820        60
37.840        37
37.860        60
37.880        43
37.900        67
37.920        53
37.940        60
37.960        40
37.980        33
38.000        37
38.020        63
38.040        60
38.060        40
38.080        57
38.100        63
38.120        53
38.140        27
38.160        50
38.180        37
38.200        37
38.220        37
38.240        27
38.260        20
38.280        50
38.300        43
38.320        70
38.340        50
38.360        23
38.380        33
38.400        43
38.420        40
38.440        47
38.460        57
38.480        50
38.500        47
38.520        47
38.540        60
38.560        50
38.580        70
38.600        30
38.620        37
38.640        57
38.660        63
38.680        57
38.700        47
38.720        40
38.740        47
38.760        37
38.780        37
38.800        63
38.820        37
38.840        60
38.860        60
38.880        53
38.900        63
38.920        70
38.940        73
38.960        47
38.980        70
39.000        50
39.020        43
39.040        73
39.060        90
39.080        80
39.100        73
39.120       100
39.140        97
39.160       140
39.180       150
39.200       120
39.220       107
39.240       137
39.260       140
39.280       130
39.300       163
39.320       150
39.340       150
39.360       153
39.380       130
39.400       113
39.420        97
39.440       137
39.460       113
39.480        77
39.500        93
39.520        73
39.540        87
39.560        40
39.580        67
39.600        63
39.620        80
39.640        73
39.660        67
39.680        47
39.700        30
39.720        67
39.740        53
39.760        73
39.780        37
39.800        40
39.820        63
39.840        23
39.860        63
39.880        70
39.900        63
39.920        40
39.940        33
39.960        23
39.980        63
40.000        40
40.020        27
40.040        37
40.060        57
40.080        33
40.100        37
40.120        43
40.140        60
40.160        23
40.180        47
40.200        37
40.220        63
40.240        37
40.260        30
40.280        30
40.300        67
40.320        53
40.340        40
40.360        40
40.380        40
40.400        50
40.420        37
40.440        23
40.460        37
40.480        23
40.500        40
40.520        47
40.540        30
40.560        40
40.580        33
40.600        27
40.620        23
40.640        37
40.660        30
40.680        27
40.700        33
40.720        53
40.740        50
40.760        43
40.780        50
40.800        63
40.820        37
40.840        53
40.860        37
40.880        53
40.900        37
40.920        30
40.940        50
40.960        33
40.980        50
41.000        27
41.020        43
41.040        30
41.060        47
41.080        27
41.100        37
41.120        33
41.140        30
41.160        53
41.180        30
41.200        50
41.220        50
41.240        30
41.260        53
41.280        37
41.300        33
41.320        40
41.340        43
41.360        30
41.380        17
41.400        37
41.420        43
41.440        27
41.460        50
41.480        43
41.500        20
41.520        47
41.540        33
41.560        43
41.580        33
41.600        30
41.620        40
41.640        20
41.660        47
41.680        17
41.700        37
41.720        33
41.740        37
41.760        33
41.780        43
41.800        33
41.820        33
41.840        30
41.860        47
41.880        17
41.900        27
41.920        40
41.940        27
41.960        37
41.980        20
42.000        27
42.020        43
42.040        33
42.060        40
42.080        37
42.100        53
42.120        30
42.140        23
42.160        23
42.180        43
42.200        20
42.220        37
42.240        27
42.260        20
42.280        30
42.300        13
42.320        33
42.340        37
42.360        37
42.380        33
42.400        33
42.420        27
42.440        33
42.460        37
42.480        37
42.500        30
42.520        33
42.540        20
42.560        60
42.580        37
42.600        33
42.620        27
42.640        30
42.660        27
42.680        33
42.700        60
42.720        20
42.740        37
42.760        23
42.780        20
42.800        40
42.820        27
42.840        50
42.860        27
42.880        37
42.900        37
42.920        20
42.940        27
42.960        30
42.980        30
43.000        27
43.020        47
43.040        20
43.060        37
43.080        23
43.100        47
43.120        20
43.140        37
43.160        63
43.180        27
43.200        20
43.220        47
43.240        27
43.260        23
43.280        47
43.300        23
43.320        30
43.340        47
43.360        17
43.380        37
43.400        37
43.420        43
43.440         3
43.460        37
43.480        37
43.500        40
43.520        40
43.540        37
43.560        20
43.580        47
43.600        40
43.620        43
43.640        20
43.660        43
43.680        23
43.700        20
43.720        50
43.740        27
43.760        57
43.780        47
43.800        47
43.820        40
43.840        13
43.860        10
43.880        33
43.900        20
43.920        53
43.940        37
43.960        27
43.980        23
44.000        40
44.020        33
44.040        47
44.060        43
44.080        33
44.100        47
44.120        63
44.140        53
44.160        37
44.180        57
44.200        43
44.220        37
44.240        43
44.260        23
44.280        23
44.300        43
44.320        50
44.340        57
44.360        53
44.380        60
44.400        63
44.420        97
44.440        57
44.460        90
44.480        67
44.500        60
44.520        30
44.540        60
44.560        57
44.580        47
44.600        43
44.620        43
44.640        73
44.660        43
44.680        93
44.700        73
44.720        67
44.740        97
44.760        87
44.780        80
44.800        80
44.820        87
44.840       100
44.860       110
44.880        93
44.900       113
44.920       103
44.940        93
44.960       100
44.980       160
45.000       143
45.020       127
45.040       110
45.060       110
45.080       123
45.100       117
45.120       137
45.140       123
45.160       170
45.180       137
45.200       170
45.220       170
45.240       187
45.260       157
45.280       157
45.300       187
45.320       203
45.340       160
45.360       173
45.380       200
45.400       190
45.420       183
45.440       227
45.460       190
45.480       170
45.500       160
45.520       203
45.540       183
45.560       177
45.580       130
45.600       150
45.620       167
45.640       177
45.660       163
45.680       133
45.700       137
45.720       120
45.740       110
45.760       137
45.780       133
45.800       113
45.820       103
45.840       113
45.860       120
45.880       133
45.900        90
45.920        87
45.940        90
45.960        83
45.980       110
46.000        67
46.020        73
46.040        70
46.060        60
46.080        93
46.100        73
46.120        67
46.140        83
46.160        67
46.180       107
46.200        60
46.220        70
46.240        53
46.260        53
46.280        80
46.300        43
46.320        60
46.340        50
46.360        60
46.380        60
46.400        23
46.420        47
46.440        33
46.460        57
46.480        53
46.500        63
46.520        30
46.540        53
46.560        43
46.580        57
46.600        67
46.620        50
46.640        60
46.660        50
46.680        53
46.700        33
46.720        53
46.740        77
46.760        27
46.780        47
46.800        37
46.820        50
46.840        40
46.860        60
46.880        77
46.900        67
46.920        80
46.940        47
46.960        60
46.980        53
47.000        57
47.020        67
47.040        80
47.060        50
47.080        63
47.100        50
47.120        67
47.140        60
47.160        77
47.180        73
47.200       103
47.220       147
47.240       173
47.260       423
47.280       710
47.300       700
47.320       763
47.340       553
47.360       320
47.380       193
47.400       120
47.420       110
47.440       100
47.460        77
47.480        63
47.500        80
47.520        77
47.540        73
47.560        67
47.580        50
47.600        80
47.620        87
47.640        57
47.660        43
47.680        67
47.700        30
47.720        70
47.740        37
47.760        43
47.780        50
47.800        30
47.820        50
47.840        60
47.860        33
47.880        30
47.900        43
47.920        23
47.940        30
47.960        40
47.980        40
48.000        37
48.020        40
48.040        47
48.060        30
48.080        47
48.100        47
48.120        37
48.140        13
48.160        20
48.180        30
48.200        33
48.220        27
48.240        33
48.260        33
48.280        37
48.300        33
48.320        37
48.340        63
48.360        20
48.380        30
48.400        27
48.420        57
48.440        47
48.460        53
48.480        30
48.500        43
48.520        13
48.540        30
48.560        33
48.580        57
48.600        27
48.620        57
48.640        20
48.660        27
48.680        40
48.700        30
48.720        53
48.740        40
48.760        37
48.780        43
48.800        50
48.820        43
48.840        20
48.860        37
48.880        30
48.900        33
48.920        43
48.940        30
48.960        30
48.980        20
49.000        20
49.020        33
49.040        23
49.060        23
49.080        20
49.100        30
49.120        23
49.140        27
49.160        30
49.180        27
49.200        30
49.220        43
49.240        43
49.260        27
49.280        20
49.300        37
49.320        17
49.340        23
49.360        37
49.380        33
49.400        17
49.420        27
49.440        17
49.460        43
49.480        53
49.500        30
49.520        37
49.540        30
49.560        43
49.580        27
49.600        30
49.620        27
49.640        27
49.660        30
49.680        37
49.700        23
49.720        23
49.740        27
49.760        40
49.780        23
49.800        27
49.820        30
49.840        53
49.860        33
49.880        37
49.900        27
49.920        30
49.940        27
49.960        30
49.980        20
50.000        30
50.020        33
50.040        27
50.060        27
50.080        30
50.100        33
50.120        23
50.140        47
50.160        10
50.180        33
50.200        17
50.220        30
50.240        23
50.260        53
50.280        33
50.300        33
50.320        23
50.340        53
50.360        37
50.380        47
50.400        20
50.420        17
50.440        17
50.460        23
50.480        30
50.500        20
50.520        30
50.540        40
50.560        30
50.580        30
50.600        43
50.620        23
50.640        30
50.660        63
50.680        43
50.700        53
50.720        73
50.740        93
50.760        77
50.780       120
50.800       183
50.820       180
50.840       203
50.860       213
50.880       207
50.900       233
50.920       237
50.940       290
50.960       203
50.980       170
51.000       190
51.020       220
51.040       217
51.060       280
51.080       270
51.100       257
51.120       223
51.140       220
51.160       160
51.180       257
51.200       203
51.220       213
51.240       237
51.260       213
51.280       207
51.300       207
51.320       237
51.340       223
51.360       190
51.380       263
51.400       213
51.420       263
51.440       190
51.460       200
51.480       243
51.500       163
51.520       197
51.540       273
51.560       267
51.580       173
51.600       223
51.620       197
51.640       253
51.660       320
51.680       223
51.700       247
51.720       220
51.740       210
51.760       247
51.780       250
51.800       200
51.820       327
51.840       237
51.860       317
51.880       227
51.900       227
51.920       290
51.940       280
51.960       320
51.980       277
52.000       263
52.020       310
52.040       323
52.060       317
52.080       383
52.100       250
52.120       290
52.140       350
52.160       317
52.180       420
52.200       410
52.220       463
52.240       390
52.260       420
52.280       453
52.300       516
52.320       596
52.340       496
52.360       630
52.380       886
52.400      1033
52.420      1266
52.440      1636
52.460      1926
52.480      1966
52.500      2659
52.520      3529
52.540      4435
52.560      5251
52.580      6248
52.600      7650
52.620     10692
52.640     21555
52.660     54338
52.680     91237
52.700    105448
52.720     97241
52.740     60366
52.760     27849
52.780     21828
52.800     35106
52.820     52479
52.840     59133
52.860     52879
52.880     32787
52.900     13891
52.920      6777
52.940      4911
52.960      4022
52.980      3699
53.000      2662
53.020      2016
53.040      1413
53.060      1036
53.080       916
53.100       790
53.120       783
53.140       676
53.160       596
53.180       506
53.200       543
53.220       473
53.240       520
53.260       453
53.280       397
53.300       407
53.320       433
53.340       347
53.360       363
53.380       377
53.400       303
53.420       350
53.440       323
53.460       343
53.480       333
53.500       313
53.520       287
53.540       367
53.560       290
53.580       253
53.600       267
53.620       300
53.640       280
53.660       247
53.680       260
53.700       257
53.720       260
53.740       197
53.760       290
53.780       220
53.800       243
53.820       260
53.840       243
53.860       210
53.880       257
53.900       217
53.920       253
53.940       230
53.960       190
53.980       243
54.000       180
54.020       200
54.040       203
54.060       180
54.080       233
54.100       167
54.120       223
54.140       193
54.160       197
54.180       203
54.200       243
54.220       147
54.240       187
54.260       147
54.280       167
54.300       147
54.320       203
54.340       193
54.360       200
54.380       143
54.400       150
54.420       143
54.440       177
54.460       157
54.480       240
54.500       130
54.520       143
54.540       167
54.560       137
54.580       157
54.600       117
54.620       173
54.640       150
54.660       120
54.680       130
54.700       157
54.720       150
54.740       190
54.760       137
54.780       170
54.800       180
54.820       143
54.840       183
54.860       170
54.880       180
54.900       153
54.920       137
54.940       150
54.960       117
54.980       117
55.000       143
55.020       150
55.040       173
55.060       180
55.080       127
55.100       163
55.120       153
55.140       163
55.160       137
55.180       113
55.200       190
55.220       137
55.240       130
55.260       190
55.280       120
55.300       140
55.320       143
55.340       193
55.360       107
55.380       147
55.400       147
55.420       143
55.440       157
55.460       133
55.480       120
55.500       133
55.520       177
55.540       127
55.560       157
55.580       140
55.600       140
55.620       147
55.640       117
55.660       100
55.680       113
55.700       153
55.720       127
55.740        87
55.760       137
55.780       127
55.800       120
55.820       123
55.840       133
55.860       110
55.880       140
55.900       133
55.920       130
55.940       177
55.960       100
55.980       190
56.000        87
56.020       100
56.040       123
56.060       120
56.080       110
56.100       103
56.120       133
56.140       117
56.160       133
56.180        97
56.200       147
56.220       133
56.240       160
56.260       107
56.280       117
56.300       143
56.320       157
56.340       177
56.360       117
56.380       160
56.400       137
56.420       167
56.440       147
56.460       127
56.480       117
56.500       147
56.520       130
56.540        93
56.560       197
56.580       180
56.600       157
56.620       147
56.640       137
56.660       150
56.680       127
56.700        93
56.720       167
56.740       140
56.760       170
56.780       117
56.800       187
56.820       133
56.840       190
56.860       120
56.880       143
56.900       127
56.920       150
56.940        80
56.960       110
56.980       117
57.000       100
57.020       133
57.040       163
57.060       137
57.080       127
57.100       140
57.120       130
57.140       157
57.160       160
57.180       127
57.200       107
57.220       117
57.240       107
57.260        97
57.280        90
57.300       137
57.320       100
57.340       103
57.360       117
57.380       123
57.400       103
57.420       103
57.440       103
57.460        90
57.480        77
57.500       133
57.520       123
57.540       100
57.560       107
57.580       123
57.600        90
57.620        50
57.640        97
57.660       107
57.680        97
57.700       103
57.720        67
57.740        97
57.760       103
57.780        87
57.800        70
57.820        90
57.840        93
57.860       103
57.880        87
57.900       120
57.920        93
57.940       103
57.960       103
57.980       113
58.000       120
58.020        97
58.040        63
58.060        83
58.080       127
58.100       107
58.120        93
58.140        97
58.160       110
58.180       147
58.200       110
58.220        90
58.240       103
58.260        87
58.280        67
58.300        73
58.320        90
58.340        83
58.360        83
58.380       103
58.400       123
58.420       107
58.440        80
58.460        90
58.480        83
58.500        90
58.520        77
58.540        80
58.560        87
58.580       110
58.600        70
58.620        90
58.640        93
58.660       110
58.680        80
58.700        80
58.720       107
58.740        93
58.760        77
58.780        93
58.800        83
58.820        90
58.840        67
58.860        63
58.880        83
58.900        80
58.920        87
58.940       130
58.960        97
58.980        80
59.000        70
59.020       110
59.040        87
59.060        83
59.080        60
59.100        93
59.120       107
59.140        53
59.160        57
59.180        80
59.200        83
59.220        73
59.240        73
59.260        60
59.280        83
59.300        87
59.320        57
59.340        63
59.360        53
59.380        93
59.400        43
59.420        80
59.440       100
59.460        60
59.480       107
59.500        83
59.520        80
59.540        73
59.560        70
59.580        80
59.600       100
59.620        73
59.640        67
59.660        67
59.680        90
59.700        50
59.720        90
59.740        53
59.760        93
59.780        63
59.800        50
59.820        83
59.840        70
59.860        90
59.880        90
59.900        60
59.920        70
59.940        60
59.960        70
59.980        60
60.000        97
