20.000        30
20.020        50
20.040        33
20.060        50
20.080        27
20.100        33
20.120        47
20.140        40
20.160        33
20.180        47
20.200        47
20.220        30
20.240        37
20.260        43
20.280        50
20.300        50
20.320        23
20.340        40
20.360        23
20.380        30
20.400        47
20.420        27
20.440        53
20.460        57
20.480        43
20.500        43
20.520        53
20.540        37
20.560        47
20.580        47
20.600        57
20.620        40
20.640        40
20.660        60
20.680        53
20.700        33
20.720        37
20.740        17
20.760        57
20.780        50
20.800        33
20.820        50
20.840        37
20.860        43
20.880        27
20.900        30
20.920        27
20.940        37
20.960        33
20.980        33
21.000        40
21.020        43
21.040        50
21.060        53
21.080        33
21.100        37
21.120        47
21.140        27
21.160        30
21.180        63
21.200        43
21.220        47
21.240        37
21.260        30
21.280        30
21.300        53
21.320        37
21.340        37
21.360        50
21.380        20
21.400        77
21.420        27
21.440        27
21.460        30
21.480        23
21.500        43
21.520        47
21.540        40
21.560        17
21.580        47
21.600        50
21.620        37
21.640        40
21.660        47
21.680        47
21.700        20
21.720        53
21.740        40
21.760        47
21.780        43
21.800        27
21.820        43
21.840        43
21.860        53
21.880        40
21.900        37
21.920        33
21.940        20
21.960        27
21.980        27
22.000        20
22.020        40
22.040        27
22.060        40
22.080        40
22.100        53
22.120        57
22.140        23
22.160        60
22.180        70
22.200        83
22.220        53
22.240        60
22.260        87
22.280        67
22.300        83
22.320        90
22.340        73
22.360        87
22.380        63
22.400        77
22.420        90
22.440        67
22.460        40
22.480        37
22.500        47
22.520        37
22.540        27
22.560        33
22.580        27
22.600        50
22.620        43
22.640        37
22.660        33
22.680        33
22.700        40
22.720        30
22.740        43
22.760        47
22.780        33
22.800        40
22.820        33
22.840        47
22.860        37
22.880        40
22.900        53
22.920        43
22.940        50
22.960        40
22.980        60
23.000        37
23.020        33
23.040        27
23.060        37
23.080        33
23.100        30
23.120        30
23.140        40
23.160        27
23.180        60
23.200        30
23.220        40
23.240        43
23.260        33
23.280        40
23.300        33
23.320        30
23.340        33
23.360        37
23.380        30
23.400        30
23.420        40
23.440        43
23.460        33
23.480        47
23.500        60
23.520        47
23.540        43
23.560        33
23.580        40
23.600        27
23.620        30
23.640        40
23.660        30
23.680        33
23.700        37
23.720        23
23.740        43
23.760        40
23.780        37
23.800        43
23.820        43
23.840        40
23.860        50
23.880        43
23.900        37
23.920        27
23.940        40
23.960        27
23.980        40
24.000        53
24.020        27
24.040        30
24.060        23
24.080        37
24.100        43
24.120        20
24.140        30
24.160        37
24.180        37
24.200        20
24.220        33
24.240        50
24.260        17
24.280        20
24.300        30
24.320        20
24.340        27
24.360        47
24.380        43
24.400        37
24.420        33
24.440        53
24.460        33
24.480        60
24.500        20
24.520        33
24.540        23
24.560        17
24.580        30
24.600        30
24.620        37
24.640        27
24.660        23
24.680        33
24.700        23
24.720        27
24.740        50
24.760        20
24.780        33
24.800        17
24.820        40
24.840        40
24.860        60
24.880        23
24.900        27
24.920        37
24.940        37
24.960        33
24.980        33
25.000        27
25.020        43
25.040        37
25.060        40
25.080        20
25.100        27
25.120        30
25.140        20
25.160        37
25.180        47
25.200        33
25.220        40
25.240        37
25.260        20
25.280        37
25.300        27
25.320        37
25.340        37
25.360        23
25.380        33
25.400        27
25.420        63
25.440        40
25.460        50
25.480        13
25.500        27
25.520        33
25.540        27
25.560        37
25.580        30
25.600        27
25.620        37
25.640        37
25.660        53
25.680        53
25.700        27
25.720        37
25.740        27
25.760        30
25.780        27
25.800        33
25.820        33
25.840        43
25.860        30
25.880        23
25.900        33
25.920        17
25.940        23
25.960        33
25.980        33
26.000        23
26.020        40
26.040        10
26.060        40
26.080        20
26.100        20
26.120        30
26.140        27
26.160        50
26.180        23
26.200        17
26.220        33
26.240        17
26.260        40
26.280        30
26.300        17
26.320        33
26.340        23
26.360        17
26.380        33
26.400        30
26.420        40
26.440        17
26.460        47
26.480        17
26.500        30
26.520        47
26.540        37
26.560        30
26.580        57
26.600        13
26.620        27
26.640        40
26.660        27
26.680        30
26.700        37
26.720        40
26.740        27
26.760        30
26.780        27
26.800        33
26.820        13
26.840        37
26.860        13
26.880        30
26.900        27
26.920        47
26.940        47
26.960        20
26.980        30
27.000        13
27.020        20
27.040        27
27.060        27
27.080        37
27.100        43
27.120        30
27.140        40
27.160        27
27.180        40
27.200        30
27.220        27
27.240        17
27.260        17
27.280        27
27.300        33
27.320        27
27.340        20
27.360        33
27.380        27
27.400        20
27.420        27
27.440        20
27.460        30
27.480        33
27.500        20
27.520        23
27.540        23
27.560        27
27.580        27
27.600        27
27.620        10
27.640        27
27.660        17
27.680        17
27.700        23
27.720        20
27.740        30
27.760        27
27.780        30
27.800        40
27.820        23
27.840        23
27.860        33
27.880        20
27.900        27
27.920        13
27.940         3
27.960         7
27.980        27
28.000        20
28.020        20
28.040        23
28.060        30
28.080        40
28.100        17
28.120        20
28.140        37
28.160        27
28.180        27
28.200        30
28.220        33
28.240        13
28.260        23
28.280        53
28.300        30
28.320        30
28.340        43
28.360        23
28.380        17
28.400        30
28.420        30
28.440        33
28.460        17
28.480        33
28.500        23
28.520        23
28.540        47
28.560        27
28.580        33
28.600        37
28.620        17
28.640        27
28.660        30
28.680        13
28.700        50
28.720        40
28.740        17
28.760        23
28.780        27
28.800        30
28.820        40
28.840        17
28.860        27
28.880        10
28.900        27
28.920        17
28.940        27
28.960        23
28.980        57
29.000        27
29.020        23
29.040        30
29.060        17
29.080        20
29.100        13
29.120        40
29.140        33
29.160        60
29.180        27
29.200        47
29.220        30
29.240        53
29.260        37
29.280        17
29.300        33
29.320        37
29.340        40
29.360        20
29.380        27
29.400        20
29.420        17
29.440        37
29.460        37
29.480        33
29.500        33
29.520        37
29.540        27
29.560        20
29.580        30
29.600        33
29.620        10
29.640        30
29.660        27
29.680        37
29.700        27
29.720        30
29.740        17
29.760        17
29.780        20
29.800        13
29.820        57
29.840        10
29.860        17
29.880        13
29.900        27
29.920        30
29.940        30
29.960        23
29.980        40
30.000        27
30.020        20
30.040        33
30.060        10
30.080        20
30.100        37
30.120        23
30.140        23
30.160        27
30.180        30
30.200        30
30.220        30
30.240        37
30.260        30
30.280        23
30.300        33
30.320        23
30.340        20
30.360         3
30.380        40
30.400        23
30.420        30
30.440        30
30.460        23
30.480        37
30.500        27
30.520        33
30.540        33
30.560        17
30.580        27
30.600        27
30.620        23
30.640        23
30.660        37
30.680        17
30.700        40
30.720        20
30.740        27
30.760        40
30.780        27
30.800        27
30.820        47
30.840        13
30.860        20
30.880        17
30.900        37
30.920        27
30.940        30
30.960        20
30.980        43
31.000        23
31.020        30
31.040        20
31.060        30
31.080        37
31.100        20
31.120        40
31.140        50
31.160        27
31.180        23
31.200        40
31.220        50
31.240        33
31.260        23
31.280        40
31.300        37
31.320        27
31.340        57
31.360        43
31.380        53
31.400        70
31.420        57
31.440        60
31.460        87
31.480       107
31.500        57
31.520        73
31.540       153
31.560       123
31.580       147
31.600       203
31.620       193
31.640       287
31.660       260
31.680       343
31.700       277
31.720       277
31.740       320
31.760       340
31.780       350
31.800       273
31.820       237
31.840       257
31.860       233
31.880       220
31.900       213
31.920       177
31.940       153
31.960        77
31.980        87
32.000        77
32.020        63
32.040        67
32.060        43
32.080        43
32.100        40
32.120        53
32.140        43
32.160        40
32.180        53
32.200        43
32.220        43
32.240        50
32.260        53
32.280        37
32.300        30
32.320        30
32.340        40
32.360        70
32.380        43
32.400        23
32.420        40
32.440        23
32.460        27
32.480        60
32.500        47
32.520        13
32.540        33
32.560        37
32.580        53
32.600        37
32.620        40
32.640        30
32.660        23
32.680        30
32.700        17
32.720        27
32.740        10
32.760        23
32.780        40
32.800        33
32.820        33
32.840        47
32.860        17
32.880        37
32.900        23
32.920        23
32.940        10
32.960        20
32.980        27
33.000        10
33.020        27
33.040        37
33.060        10
33.080        33
33.100        43
33.120        33
33.140        20
33.160        13
33.180        17
33.200        30
33.220        30
33.240        47
33.260        27
33.280        40
33.300        20
33.320        37
33.340        13
33.360        17
33.380        20
33.400        17
33.420        10
33.440        33
33.460        30
33.480        23
33.500        30
33.520        27
33.540        43
33.560        20
33.580        23
33.600        23
33.620        37
33.640        23
33.660        23
33.680        33
33.700        30
33.720        27
33.740        23
33.760        20
33.780        20
33.800        17
33.820        20
33.840        20
33.860        27
33.880        30
33.900        40
33.920         3
33.940        20
33.960        23
33.980        17
34.000        23
34.020        27
34.040        20
34.060        27
34.080        33
34.100        10
34.120        30
34.140        30
34.160        17
34.180        13
34.200        37
34.220        10
34.240        17
34.260        37
34.280        20
34.300        13
34.320        43
34.340        23
34.360        20
34.380        30
34.400         7
34.420        20
34.440        27
34.460        13
34.480        23
34.500        17
34.520        23
34.540        20
34.560        27
34.580        20
34.600        30
34.620        37
34.640        20
34.660        20
34.680        30
34.700        27
34.720        17
34.740        40
34.760        20
34.780        20
34.800        20
34.820        20
34.840        30
34.860        33
34.880        20
34.900        20
34.920        53
34.940        23
34.960        37
34.980        37
35.000        37
35.020        40
35.040        33
35.060        40
35.080        40
35.100        60
35.120        67
35.140       100
35.160       147
35.180       147
35.200       137
35.220       103
35.240        63
35.260        93
35.280        93
35.300        67
35.320        30
35.340        27
35.360        23
35.380        20
35.400        17
35.420        10
35.440        23
35.460        13
35.480        27
35.500        17
35.520        10
35.540        20
35.560         7
35.580        30
35.600        23
35.620        23
35.640        20
35.660        17
35.680        20
35.700        10
35.720        23
35.740        27
35.760        23
35.780        30
35.800        13
35.820        17
35.840        23
35.860        27
35.880        20
35.900        10
35.920        20
35.940        17
35.960        23
35.980        20
36.000        27
36.020        30
36.040        20
36.060        20
36.080        17
36.100         3
36.120        27
36.140        33
36.160        27
36.180         3
36.200        17
36.220        13
36.240        13
36.260        17
36.280        13
36.300        13
36.320        17
36.340        13
36.360        33
36.380        23
36.400        10
36.420        23
36.440        30
36.460        30
36.480        23
36.500        20
36.520        13
36.540        33
36.560         7
36.580        13
36.600        17
36.620        20
36.640        20
36.660        17
36.680        20
36.700         3
36.720        20
36.740        23
36.760        17
36.780        13
36.800        20
36.820        17
36.840        27
36.860        27
36.880        23
36.900        20
36.920        17
36.940        23
36.960        23
36.980        27
37.000        17
37.020        27
37.040        10
37.060        13
37.080        20
37.100        17
37.120         3
37.140        20
37.160        10
37.180        20
37.200        17
37.220        17
37.240        20
37.260        17
37.280        30
37.300         7
37.320        20
37.340        30
37.360        20
37.380        23
37.400        13
37.420        27
37.440        17
37.460        10
37.480        13
37.500        27
37.520        13
37.540        27
37.560        37
37.580        17
37.600        33
37.620        20
37.640        27
37.660        17
37.680        33
37.700        27
37.720        40
37.740        10
37.760        50
37.780        17
37.800        23
37.820        33
37.840        23
37.860        17
37.880        27
37.900        30
37.920        17
37.940        43
37.960        20
37.980        17
38.000        20
38.020        10
38.040        10
38.060        23
38.080        33
38.100        13
38.120        10
38.140         7
38.160        17
38.180        27
38.200        27
38.220        17
38.240        37
38.260        13
38.280         7
38.300        33
38.320        17
38.340        10
38.360        17
38.380        13
38.400        13
38.420        23
38.440        23
38.460        20
38.480        13
38.500        27
38.520        33
38.540         3
38.560        13
38.580        17
38.600        20
38.620        23
38.640        23
38.660        20
38.680        30
38.700        20
38.720        20
38.740        17
38.760        23
38.780        10
38.800        17
38.820        13
38.840        27
38.860        20
38.880        20
38.900        20
38.920        30
38.940        20
38.960        30
38.980        13
39.000        30
39.020        20
39.040        33
39.060        30
39.080        53
39.100        27
39.120        50
39.140        50
39.160        57
39.180        73
39.200        80
39.220       107
39.240       103
39.260       117
39.280       157
39.300       153
39.320       120
39.340        93
39.360       143
39.380       117
39.400        87
39.420       100
39.440        93
39.460        60
39.480        47
39.500        37
39.520        27
39.540        33
39.560        30
39.580        23
39.600        33
39.620        53
39.640        17
39.660        43
39.680        37
39.700        43
39.720        23
39.740        17
39.760        17
39.780        30
39.800        47
39.820        23
39.840        23
39.860        37
39.880        27
39.900        30
39.920        47
39.940        33
39.960        27
39.980        23
40.000        33
40.020        23
40.040        13
40.060        30
40.080        20
40.100         7
40.120        13
40.140        10
40.160        40
40.180        27
40.200        43
40.220        37
40.240        13
40.260         7
40.280        20
40.300        17
40.320        17
40.340        17
40.360        23
40.380        23
40.400        13
40.420        20
40.440        10
40.460        17
40.480        47
40.500        17
40.520        20
40.540        13
40.560        27
40.580        10
40.600        27
40.620        23
40.640        27
40.660        33
40.680        13
40.700        20
40.720        20
40.740        17
40.760        13
40.780        30
40.800        33
40.820        20
40.840        17
40.860        27
40.880        10
40.900        17
40.920        13
40.940        37
40.960        13
40.980        23
41.000        30
41.020        17
41.040        23
41.060        10
41.080        20
41.100        10
41.120         7
41.140        13
41.160        23
41.180        17
41.200        27
41.220        20
41.240        20
41.260        13
41.280        13
41.300        30
41.320        20
41.340        17
41.360        30
41.380        17
41.400        23
41.420        17
41.440        37
41.460        20
41.480        20
41.500        23
41.520        30
41.540        33
41.560        27
41.580        70
41.600        67
41.620        77
41.640       110
41.660       147
41.680       193
41.700       227
41.720       220
41.740       177
41.760        90
41.780       113
41.800        83
41.820       147
41.840        83
41.860        70
41.880        37
41.900        23
41.920        30
41.940        33
41.960        23
41.980         7
42.000        20
42.020        20
42.040        30
42.060        10
42.080        23
42.100        20
42.120        23
42.140        13
42.160        13
42.180        20
42.200         7
42.220        10
42.240        20
42.260        13
42.280        17
42.300        23
42.320        13
42.340        20
42.360        13
42.380        23
42.400        13
42.420         7
42.440        27
42.460        10
42.480         7
42.500        17
42.520        10
42.540        17
42.560        23
42.580         7
42.600        30
42.620         3
42.640        23
42.660        30
42.680        17
42.700        27
42.720        13
42.740        27
42.760        20
42.780        27
42.800         3
42.820        13
42.840        10
42.860        17
42.880         7
42.900        10
42.920        20
42.940        30
42.960        30
42.980        17
43.000        27
43.020        20
43.040        17
43.060        33
43.080        20
43.100        23
43.120        27
43.140        17
43.160        30
43.180        17
43.200        43
43.220        40
43.240        23
43.260        27
43.280        27
43.300        50
43.320        53
43.340        97
43.360       103
43.380       130
43.400       203
43.420       153
43.440       113
43.460        70
43.480        87
43.500       130
43.520       113
43.540        87
43.560        57
43.580        20
43.600        40
43.620        20
43.640        27
43.660        10
43.680        10
43.700         3
43.720        13
43.740        20
43.760         7
43.780        13
43.800        17
43.820        23
43.840        20
43.860        13
43.880        13
43.900        23
43.920        17
43.940         7
43.960        10
43.980        20
44.000        27
44.020        20
44.040        17
44.060        17
44.080        27
44.100        20
44.120        33
44.140         7
44.160         7
44.180        17
44.200        30
44.220        37
44.240        33
44.260        30
44.280        30
44.300        20
44.320        33
44.340        20
44.360        27
44.380        23
44.400        23
44.420        23
44.440        23
44.460        20
44.480        13
44.500        17
44.520        17
44.540        33
44.560        13
44.580        27
44.600        30
44.620        27
44.640        17
44.660        27
44.680        27
44.700        17
44.720        17
44.740        40
44.760        33
44.780        17
44.800        17
44.820        37
44.840        37
44.860        13
44.880        27
44.900        37
44.920        20
44.940        13
44.960        23
44.980        23
45.000        37
45.020        27
45.040        30
45.060        33
45.080        30
45.100        37
45.120        37
45.140        23
45.160        40
45.180        57
45.200        53
45.220        23
45.240        37
45.260        30
45.280        40
45.300        53
45.320        63
45.340        73
45.360        70
45.380        80
45.400       100
45.420        80
45.440       110
45.460       130
45.480       110
45.500       160
45.520        97
45.540       110
45.560       180
45.580       120
45.600       153
45.620        83
45.640       133
45.660       110
45.680        90
45.700        70
45.720        93
45.740        83
45.760        70
45.780        63
45.800        73
45.820        67
45.840        47
45.860        43
45.880        47
45.900        47
45.920        27
45.940        37
45.960        63
45.980        40
46.000        37
46.020        43
46.040        37
46.060        30
46.080        23
46.100        33
46.120        30
46.140        30
46.160        23
46.180        23
46.200        37
46.220        17
46.240        23
46.260        43
46.280        13
46.300        30
46.320        27
46.340        17
46.360        13
46.380        47
46.400        13
46.420        30
46.440        23
46.460        13
46.480        37
46.500        33
46.520        13
46.540        20
46.560        23
46.580        10
46.600        13
46.620        23
46.640        13
46.660        40
46.680         7
46.700        13
46.720        27
46.740        17
46.760        10
46.780        23
46.800        40
46.820        23
46.840        23
46.860        17
46.880        20
46.900        27
46.920        27
46.940        17
46.960        33
46.980        33
47.000        27
47.020        17
47.040        13
47.060        17
47.080        10
47.100        17
47.120        17
47.140        40
47.160        23
47.180        23
47.200        23
47.220        27
47.240        17
47.260        33
47.280        27
47.300        17
47.320        23
47.340        27
47.360        17
47.380        20
47.400        13
47.420        13
47.440        30
47.460        20
47.480        17
47.500        27
47.520        10
47.540        17
47.560        20
47.580         7
47.600        10
47.620        23
47.640        20
47.660        20
47.680        23
47.700         3
47.720        13
47.740        20
47.760        20
47.780        17
47.800        13
47.820        17
47.840        20
47.860        20
47.880        17
47.900        13
47.920         7
47.940        13
47.960        27
47.980        13
48.000        23
48.020        23
48.040        17
48.060        17
48.080        13
48.100        17
48.120        13
48.140        13
48.160        10
48.180        13
48.200        27
48.220        20
48.240        10
48.260        20
48.280        33
48.300        20
48.320        23
48.340        23
48.360        27
48.380        20
48.400        20
48.420        17
48.440        20
48.460        30
48.480        30
48.500        13
48.520        10
48.540        13
48.560        13
48.580        23
48.600         3
48.620        10
48.640        23
48.660        27
48.680        20
48.700        13
48.720        13
48.740        30
48.760        20
48.780        17
48.800         7
48.820        10
48.840        10
48.860        13
48.880        27
48.900        13
48.920        13
48.940        10
48.960         7
48.980        13
49.000        13
49.020        17
49.040         7
49.060         7
49.080        23
49.100        13
49.120        20
49.140         7
49.160        17
49.180        13
49.200        10
49.220        23
49.240        10
49.260        27
49.280         7
49.300        30
49.320        10
49.340        27
49.360        20
49.380         7
49.400        17
49.420        20
49.440        27
49.460        10
49.480        10
49.500        20
49.520         7
49.540        10
49.560        20
49.580        13
49.600        10
49.620        23
49.640        23
49.660        23
49.680        20
49.700        23
49.720        13
49.740        13
49.760        30
49.780        10
49.800        20
49.820        20
49.840        20
49.860        17
49.880        33
49.900        20
49.920        13
49.940        13
49.960         0
49.980        20
50.000        13
50.020        10
50.040        23
50.060         3
50.080        10
50.100         7
50.120        17
50.140         7
50.160        17
50.180        20
50.200        27
50.220        27
50.240         7
50.260         7
50.280        13
50.300        17
50.320        10
50.340        20
50.360        17
50.380        10
50.400         0
50.420        20
50.440        20
50.460        23
50.480        10
50.500        17
50.520        10
50.540        10
50.560        13
50.580        13
50.600        17
50.620         7
50.640        10
50.660        17
50.680        10
50.700        13
50.720        13
50.740        10
50.760        10
50.780        27
50.800        23
50.820        13
50.840         3
50.860         7
50.880        17
50.900        27
50.920        13
50.940        23
50.960        13
50.980        13
51.000        17
51.020        10
51.040        17
51.060        33
51.080        17
51.100        17
51.120        13
51.140         3
51.160        40
51.180        30
51.200        20
51.220        13
51.240        27
51.260         7
51.280         7
51.300        17
51.320        13
51.340        10
51.360        20
51.380        20
51.400        17
51.420        10
51.440        13
51.460        23
51.480        27
51.500        23
51.520        10
51.540        23
51.560        30
51.580        10
51.600        13
51.620        17
51.640        17
51.660        30
51.680        17
51.700        10
51.720        13
51.740        20
51.760        40
51.780        10
51.800        17
51.820        23
51.840        23
51.860        27
51.880        27
51.900        13
51.920        17
51.940        20
51.960        17
51.980        10
52.000        17
52.020        20
52.040        10
52.060         7
52.080        23
52.100        17
52.120        17
52.140        17
52.160         7
52.180        20
52.200        13
52.220         7
52.240        27
52.260        30
52.280        17
52.300        20
52.320        20
52.340         7
52.360        10
52.380         7
52.400        27
52.420        23
52.440        10
52.460        20
52.480        10
52.500        10
52.520        20
52.540         7
52.560        23
52.580        17
52.600        30
52.620        40
52.640        27
52.660        17
52.680        27
52.700        23
52.720        20
52.740        20
52.760        10
52.780        13
52.800        23
52.820        27
52.840        27
52.860        10
52.880        13
52.900        13
52.920         3
52.940        10
52.960        20
52.980        13
53.000        10
53.020        30
53.040         7
53.060        13
53.080        13
53.100         7
53.120         3
53.140        17
53.160        10
53.180         7
53.200         7
53.220        27
53.240        10
53.260         3
53.280        10
53.300        20
53.320        23
53.340        30
53.360        13
53.380        17
53.400         0
53.420        13
53.440        10
53.460        13
53.480         7
53.500        23
53.520        13
53.540        23
53.560        10
53.580        10
53.600        13
53.620        10
53.640        17
53.660        10
53.680        20
53.700        20
53.720        13
53.740        23
53.760         7
53.780         7
53.800        10
53.820        10
53.840         7
53.860         7
53.880        13
53.900         7
53.920         7
53.940        10
53.960        17
53.980        10
54.000        10
54.020        13
54.040        17
54.060        17
54.080        23
54.100        17
54.120        10
54.140         3
54.160        10
54.180        17
54.200         7
54.220        13
54.240        10
54.260        17
54.280         7
54.300        17
54.320        27
54.340        13
54.360        17
54.380        17
54.400        17
54.420        10
54.440        13
54.460        20
54.480        10
54.500         3
54.520        13
54.540        17
54.560         0
54.580         7
54.600        17
54.620        13
54.640        13
54.660        13
54.680        10
54.700         7
54.720        17
54.740         3
54.760        20
54.780        20
54.800         7
54.820        13
54.840        13
54.860        10
54.880        23
54.900        17
54.920        23
54.940        20
54.960         7
54.980        17
55.000        17
55.020         7
55.040        13
55.060        37
55.080        17
55.100        20
55.120        23
55.140        17
55.160        10
55.180        33
55.200        20
55.220         7
55.240         7
55.260        17
55.280        13
55.300         3
55.320         7
55.340        13
55.360        13
55.380        13
55.400        20
55.420        10
55.440        10
55.460        20
55.480        13
55.500        10
55.520         7
55.540        17
55.560        17
55.580        33
55.600        20
55.620         3
55.640        13
55.660        10
55.680        10
55.700        23
55.720        20
55.740        17
55.760        20
55.780        13
55.800        10
55.820         3
55.840        17
55.860        13
55.880        23
55.900        10
55.920        13
55.940        10
55.960        17
55.980        13
56.000        17
56.020         3
56.040        20
56.060        17
56.080        13
56.100        23
56.120         7
56.140        20
56.160        13
56.180        13
56.200        20
56.220        27
56.240        37
56.260         0
56.280        27
56.300        13
56.320        27
56.340        10
56.360         0
56.380        20
56.400        27
56.420        17
56.440        43
56.460        17
56.480        17
56.500        30
56.520        23
56.540        17
56.560        27
56.580        57
56.600        43
56.620        83
56.640        33
56.660        70
56.680        67
56.700        57
56.720        37
56.740        77
56.760        93
56.780        50
56.800        43
56.820        47
56.840        30
56.860        60
56.880        63
56.900        40
56.920        33
56.940        17
56.960        50
56.980        37
57.000        50
57.020        30
57.040        27
57.060        37
57.080        23
57.100        27
57.120        40
57.140        27
57.160         3
57.180        33
57.200        40
57.220        20
57.240        13
57.260        27
57.280        30
57.300        33
57.320        27
57.340        50
57.360        30
57.380        13
57.400        23
57.420        27
57.440        37
57.460        43
57.480        47
57.500        57
57.520        67
57.540        77
57.560        47
57.580        50
57.600        30
57.620        30
57.640        37
57.660        50
57.680        47
57.700        43
57.720        40
57.740        23
57.760        33
57.780        13
57.800        13
57.820        27
57.840        13
57.860        13
57.880        13
57.900        10
57.920        13
57.940        10
57.960        13
57.980        17
58.000        10
58.020        13
58.040        17
58.060        10
58.080         7
58.100        13
58.120        20
58.140        27
58.160        17
58.180        10
58.200         7
58.220        20
58.240        20
58.260        23
58.280         7
58.300         3
58.320        17
58.340        10
58.360         7
58.380        10
58.400         3
58.420        10
58.440        13
58.460        13
58.480        10
58.500        13
58.520        13
58.540        17
58.560         3
58.580         3
58.600        13
58.620        20
58.640        23
58.660        17
58.680        13
58.700        13
58.720        17
58.740        10
58.760         7
58.780        27
58.800        13
58.820        13
58.840        17
58.860        10
58.880         3
58.900         7
58.920        13
58.940        17
58.960        13
58.980        10
59.000        13
59.020         3
59.040        20
59.060        17
59.080        17
59.100        13
59.120        13
59.140        23
59.160        10
59.180         7
59.200         3
59.220        10
59.240        20
59.260         3
59.280        17
59.300        13
59.320        20
59.340        10
59.360         7
59.380        17
59.400        27
59.420         7
59.440        10
59.460        17
59.480         7
59.500        13
59.520        40
59.540        10
59.560        13
59.580        23
59.600        23
59.620        13
59.640        10
59.660         7
59.680        17
59.700        20
59.720        17
59.740        13
59.760        27
59.780        17
59.800        17
59.820         7
59.840        17
59.860        20
59.880        27
59.900        27
59.920         3
59.940        17
59.960         7
59.980         0
60.000         0
