20.000        43
20.020        27
20.040        30
20.060        50
20.080        50
20.100        43
20.120        33
20.140        50
20.160        57
20.180        23
20.200        20
20.220        30
20.240        23
20.260        50
20.280        30
20.300        23
20.320        43
20.340        50
20.360        47
20.380        33
20.400        40
20.420        33
20.440        43
20.460        47
20.480        43
20.500        30
20.520        43
20.540        73
20.560        53
20.580        23
20.600        27
20.620        40
20.640        40
20.660        40
20.680        57
20.700        57
20.720        63
20.740        37
20.760        20
20.780        33
20.800        40
20.820        37
20.840        30
20.860        30
20.880        37
20.900        53
20.920        50
20.940        40
20.960        30
20.980        40
21.000        53
21.020        37
21.040        43
21.060        43
21.080        37
21.100        57
21.120        30
21.140        33
21.160        40
21.180        37
21.200        23
21.220        67
21.240        23
21.260        40
21.280        50
21.300        30
21.320        23
21.340        47
21.360        30
21.380        33
21.400        30
21.420        27
21.440        40
21.460        60
21.480        50
21.500        53
21.520        37
21.540        27
21.560        60
21.580        40
21.600        33
21.620        57
21.640        33
21.660        43
21.680        33
21.700        27
21.720        37
21.740        23
21.760        37
21.780        30
21.800        30
21.820        47
21.840        33
21.860        17
21.880        33
21.900        33
21.920        40
21.940        30
21.960        50
21.980        43
22.000        57
22.020        57
22.040        50
22.060        40
22.080        43
22.100        63
22.120        47
22.140        70
22.160        40
22.180        70
22.200        57
22.220        63
22.240        53
22.260        93
22.280        77
22.300        70
22.320        70
22.340        90
22.360        57
22.380        50
22.400        47
22.420        50
22.440        33
22.460        33
22.480        40
22.500        47
22.520        40
22.540        37
22.560        43
22.580        43
22.600        27
22.620        27
22.640        40
22.660        47
22.680        53
22.700        50
22.720        57
22.740        53
22.760        33
22.780        37
22.800        43
22.820        43
22.840        37
22.860        33
22.880        30
22.900        47
22.920        33
22.940        40
22.960        50
22.980        73
23.000        23
23.020        27
23.040        40
23.060        23
23.080        43
23.100        27
23.120        27
23.140        43
23.160        37
23.180        23
23.200        37
23.220        50
23.240        33
23.260        50
23.280        43
23.300        20
23.320        40
23.340        33
23.360        20
23.380        50
23.400        43
23.420        57
23.440        23
23.460        50
23.480        43
23.500        23
23.520        40
23.540        40
23.560        40
23.580        23
23.600        27
23.620        37
23.640        33
23.660        57
23.680        33
23.700        20
23.720        27
23.740        20
23.760        50
23.780        33
23.800        40
23.820        40
23.840        37
23.860        13
23.880        40
23.900        27
23.920        43
23.940        33
23.960        43
23.980        37
24.000        30
24.020        23
24.040        17
24.060        37
24.080        27
24.100        33
24.120        50
24.140        30
24.160        30
24.180        27
24.200        27
24.220        27
24.240        37
24.260        47
24.280        27
24.300        20
24.320        10
24.340        30
24.360        20
24.380        20
24.400        23
24.420        27
24.440        47
24.460        20
24.480        37
24.500        40
24.520        27
24.540        43
24.560        20
24.580        30
24.600        37
24.620        50
24.640        40
24.660        43
24.680        23
24.700        30
24.720        30
24.740        23
24.760        13
24.780        10
24.800        10
24.820        40
24.840        33
24.860        17
24.880        57
24.900        37
24.920        30
24.940        20
24.960        50
24.980        23
25.000        37
25.020        43
25.040        23
25.060        27
25.080        40
25.100        20
25.120        20
25.140        47
25.160        30
25.180        43
25.200        30
25.220        50
25.240        33
25.260        33
25.280        10
25.300        23
25.320        43
25.340        43
25.360        27
25.380        37
25.400        40
25.420        43
25.440        43
25.460        40
25.480        40
25.500        40
25.520        73
25.540        67
25.560        67
25.580        57
25.600       107
25.620        77
25.640        70
25.660        43
25.680        47
25.700        47
25.720        30
25.740        23
25.760        30
25.780        20
25.800        50
25.820        30
25.840        23
25.860        23
25.880        53
25.900        37
25.920        30
25.940        23
25.960        33
25.980        27
26.000        40
26.020        30
26.040        27
26.060        40
26.080        40
26.100        20
26.120        37
26.140        33
26.160        37
26.180        47
26.200        37
26.220        30
26.240        23
26.260        17
26.280        23
26.300        17
26.320        23
26.340        13
26.360        27
26.380        27
26.400        40
26.420        43
26.440        20
26.460        20
26.480        20
26.500        40
26.520        20
26.540        30
26.560        30
26.580        27
26.600        20
26.620        40
26.640        33
26.660        33
26.680        43
26.700        33
26.720        17
26.740        37
26.760        53
26.780        10
26.800        20
26.820        23
26.840        43
26.860        23
26.880        37
26.900        30
26.920        33
26.940        23
26.960        27
26.980        43
27.000        30
27.020        37
27.040        43
27.060        30
27.080        20
27.100         7
27.120        17
27.140        13
27.160        37
27.180        37
27.200        23
27.220        37
27.240        13
27.260        33
27.280        27
27.300        30
27.320        23
27.340        10
27.360        30
27.380        20
27.400        17
27.420        43
27.440        27
27.460        20
27.480        47
27.500        13
27.520        20
27.540        37
27.560        37
27.580        23
27.600        27
27.620         7
27.640        27
27.660        43
27.680        10
27.700        40
27.720        27
27.740        23
27.760        23
27.780        30
27.800        27
27.820        33
27.840        47
27.860        43
27.880        20
27.900        37
27.920        27
27.940        43
27.960        13
27.980        20
28.000        17
28.020        20
28.040        40
28.060        33
28.080        13
28.100        23
28.120        40
28.140        50
28.160        20
28.180        20
28.200        30
28.220        30
28.240        43
28.260        23
28.280        23
28.300        27
28.320        37
28.340        23
28.360        17
28.380        17
28.400        27
28.420        47
28.440        33
28.460        43
28.480        33
28.500        43
28.520        33
28.540        23
28.560        30
28.580        23
28.600         3
28.620        33
28.640        30
28.660        30
28.680        17
28.700        17
28.720        27
28.740        23
28.760        27
28.780        40
28.800        23
28.820        13
28.840        23
28.860        43
28.880        30
28.900        33
28.920        23
28.940        10
28.960        33
28.980        47
29.000        17
29.020        23
29.040        33
29.060        23
29.080        23
29.100        30
29.120        37
29.140        33
29.160        37
29.180        20
29.200        13
29.220        20
29.240        20
29.260        17
29.280        20
29.300        13
29.320        10
29.340        40
29.360        23
29.380        33
29.400        17
29.420        27
29.440         7
29.460        13
29.480         3
29.500        27
29.520        33
29.540        37
29.560        23
29.580        37
29.600        40
29.620        30
29.640        27
29.660        13
29.680        20
29.700        20
29.720        13
29.740        30
29.760        33
29.780        20
29.800        20
29.820        33
29.840        27
29.860        10
29.880        27
29.900        17
29.920        20
29.940        23
29.960        30
29.980        37
30.000        13
30.020        13
30.040        27
30.060        27
30.080        40
30.100        50
30.120        13
30.140        30
30.160        33
30.180        33
30.200        30
30.220        37
30.240        27
30.260        17
30.280        37
30.300        20
30.320        33
30.340        37
30.360        33
30.380        27
30.400        33
30.420        27
30.440        17
30.460        20
30.480        30
30.500        23
30.520        33
30.540        20
30.560        33
30.580        37
30.600        13
30.620        37
30.640        13
30.660        20
30.680        13
30.700        10
30.720        27
30.740        13
30.760        17
30.780        20
30.800        30
30.820        33
30.840        20
30.860        10
30.880        33
30.900        10
30.920        37
30.940        30
30.960        20
30.980        27
31.000        20
31.020        33
31.040        30
31.060        40
31.080        33
31.100        47
31.120        23
31.140        20
31.160        27
31.180        37
31.200        27
31.220        37
31.240        47
31.260        23
31.280        23
31.300        50
31.320        53
31.340        27
31.360        47
31.380        40
31.400        43
31.420        67
31.440        50
31.460        97
31.480        93
31.500        90
31.520        90
31.540        93
31.560       127
31.580       120
31.600       167
31.620       177
31.640       217
31.660       220
31.680       270
31.700       267
31.720       257
31.740       290
31.760       290
31.780       290
31.800       267
31.820       183
31.840       237
31.860       153
31.880       187
31.900       127
31.920       117
31.940        97
31.960        87
31.980        77
32.000        63
32.020        37
32.040        47
32.060        53
32.080        33
32.100        47
32.120        47
32.140        57
32.160        23
32.180        40
32.200        53
32.220        43
32.240        43
32.260        43
32.280        47
32.300        33
32.320        33
32.340        27
32.360        47
32.380        27
32.400        13
32.420        47
32.440        40
32.460        50
32.480        23
32.500        40
32.520        40
32.540        13
32.560        33
32.580        27
32.600        27
32.620        23
32.640        23
32.660        23
32.680        23
32.700        17
32.720        50
32.740        23
32.760        13
32.780        23
32.800        13
32.820        33
32.840        37
32.860        20
32.880        40
32.900        30
32.920        20
32.940        40
32.960        30
32.980        20
33.000        37
33.020        37
33.040        40
33.060        23
33.080        20
33.100        37
33.120        23
33.140        27
33.160        40
33.180        33
33.200        23
33.220        27
33.240        27
33.260        30
33.280        23
33.300        17
33.320        23
33.340        50
33.360        13
33.380        20
33.400        10
33.420        23
33.440        30
33.460        17
33.480        17
33.500        17
33.520        20
33.540        23
33.560        20
33.580        17
33.600        17
33.620        30
33.640        33
33.660        17
33.680        20
33.700        30
33.720        17
33.740        17
33.760        33
33.780        40
33.800        17
33.820        27
33.840        13
33.860        27
33.880        20
33.900        40
33.920        27
33.940        13
33.960        30
33.980        20
34.000        23
34.020        23
34.040        10
34.060        10
34.080        40
34.100        30
34.120        43
34.140         7
34.160        23
34.180        13
34.200        40
34.220        20
34.240        23
34.260        27
34.280        20
34.300        20
34.320        40
34.340        20
34.360        27
34.380        13
34.400        27
34.420        17
34.440        20
34.460        23
34.480        27
34.500        13
34.520        33
34.540        27
34.560        17
34.580        33
34.600        13
34.620        10
34.640        30
34.660        20
34.680        17
34.700        33
34.720        37
34.740        20
34.760        13
34.780        37
34.800        13
34.820        20
34.840        27
34.860        40
34.880        30
34.900        30
34.920        13
34.940        37
34.960        27
34.980        53
35.000        53
35.020        33
35.040        37
35.060        47
35.080        50
35.100       107
35.120       183
35.140       387
35.160       553
35.180       693
35.200       610
35.220       363
35.240       240
35.260       370
35.280       320
35.300       180
35.320        63
35.340        33
35.360        33
35.380        23
35.400        27
35.420        37
35.440        40
35.460        23
35.480        23
35.500        30
35.520        20
35.540        17
35.560        17
35.580        20
35.600        17
35.620        30
35.640        23
35.660        10
35.680        20
35.700         7
35.720        10
35.740        23
35.760        27
35.780        13
35.800        20
35.820        17
35.840        10
35.860        20
35.880        37
35.900        23
35.920        23
35.940         7
35.960        30
35.980        20
36.000        20
36.020        17
36.040        23
36.060        37
36.080        20
36.100        20
36.120        20
36.140         7
36.160        13
36.180        23
36.200        50
36.220        13
36.240        20
36.260        33
36.280        10
36.300        20
36.320        33
36.340        33
36.360        13
36.380        13
36.400        17
36.420        23
36.440        27
36.460        17
36.480        20
36.500        10
36.520        33
36.540        10
36.560        10
36.580        13
36.600        17
36.620        40
36.640        30
36.660        27
36.680        23
36.700        23
36.720        20
36.740        27
36.760        30
36.780        33
36.800        20
36.820        20
36.840        17
36.860        23
36.880        20
36.900        23
36.920        17
36.940        37
36.960        20
36.980        37
37.000        30
37.020        47
37.040        30
37.060        30
37.080        33
37.100        27
37.120        27
37.140         7
37.160        33
37.180        27
37.200        23
37.220        23
37.240        20
37.260        17
37.280        10
37.300        17
37.320         7
37.340        23
37.360        20
37.380        27
37.400        10
37.420        13
37.440        43
37.460        13
37.480        27
37.500        23
37.520        27
37.540        13
37.560        17
37.580        23
37.600        20
37.620        10
37.640        27
37.660        20
37.680        20
37.700        23
37.720        27
37.740        23
37.760        10
37.780        27
37.800        23
37.820        27
37.840        37
37.860        40
37.880        10
37.900        13
37.920        27
37.940        20
37.960        17
37.980        20
38.000        30
38.020        10
38.040        27
38.060        17
38.080        13
38.100        17
38.120        23
38.140        10
38.160        30
38.180        43
38.200        13
38.220        20
38.240        27
38.260        37
38.280        23
38.300        13
38.320        23
38.340        27
38.360        13
38.380        10
38.400        20
38.420        10
38.440        27
38.460        13
38.480        23
38.500        13
38.520        40
38.540        20
38.560        17
38.580        10
38.600        33
38.620        27
38.640        10
38.660        10
38.680        33
38.700        33
38.720        13
38.740        13
38.760        13
38.780        33
38.800        27
38.820        37
38.840        10
38.860        33
38.880        30
38.900        20
38.920        23
38.940        40
38.960        23
38.980        33
39.000        13
39.020        20
39.040        40
39.060        43
39.080        43
39.100        30
39.120        67
39.140        73
39.160        90
39.180        83
39.200       130
39.220       100
39.240       123
39.260       123
39.280       127
39.300       103
39.320       123
39.340       130
39.360       103
39.380        67
39.400       110
39.420        67
39.440        40
39.460        50
39.480        33
39.500        17
39.520        47
39.540        60
39.560        30
39.580        27
39.600        37
39.620        33
39.640        30
39.660        23
39.680        27
39.700        23
39.720        57
39.740        37
39.760        37
39.780        17
39.800        30
39.820        23
39.840        17
39.860        20
39.880        17
39.900        23
39.920        27
39.940        30
39.960        17
39.980        17
40.000        27
40.020        17
40.040        13
40.060        23
40.080        13
40.100        23
40.120        30
40.140         7
40.160        30
40.180        17
40.200        13
40.220        17
40.240         7
40.260        13
40.280        37
40.300        20
40.320        30
40.340        30
40.360         3
40.380        20
40.400        33
40.420        33
40.440        17
40.460        37
40.480        27
40.500        17
40.520        13
40.540        27
40.560        27
40.580        27
40.600        23
40.620        23
40.640        37
40.660        20
40.680        23
40.700        20
40.720        33
40.740        27
40.760        27
40.780        30
40.800        40
40.820        30
40.840        17
40.860         7
40.880        27
40.900        17
40.920        10
40.940        20
40.960        20
40.980        30
41.000        23
41.020        17
41.040        20
41.060        17
41.080        17
41.100        13
41.120        27
41.140        20
41.160        10
41.180        13
41.200        23
41.220        27
41.240        10
41.260        30
41.280        17
41.300        10
41.320        23
41.340        23
41.360        30
41.380        20
41.400        33
41.420        37
41.440        17
41.460        17
41.480        30
41.500        17
41.520        23
41.540        27
41.560        40
41.580        57
41.600        53
41.620        73
41.640        93
41.660       197
41.680       200
41.700       137
41.720        97
41.740       107
41.760        50
41.780        57
41.800        97
41.820        70
41.840        60
41.860        23
41.880        23
41.900        20
41.920        60
41.940        23
41.960        20
41.980        20
42.000        20
42.020        30
42.040        23
42.060        23
42.080        43
42.100        27
42.120        17
42.140        33
42.160        17
42.180        20
42.200        10
42.220        20
42.240        20
42.260        27
42.280        10
42.300        20
42.320        13
42.340        27
42.360        13
42.380        20
42.400        23
42.420        20
42.440        27
42.460        47
42.480        43
42.500        27
42.520        13
42.540        20
42.560        27
42.580        27
42.600        13
42.620        20
42.640        23
42.660        30
42.680        43
42.700        23
42.720        13
42.740        37
42.760        20
42.780        30
42.800        23
42.820        17
42.840        13
42.860        33
42.880        27
42.900        23
42.920        23
42.940        13
42.960        33
42.980        10
43.000        27
43.020        27
43.040        30
43.060        37
43.080        30
43.100        20
43.120        23
43.140        13
43.160        23
43.180        30
43.200        33
43.220         7
43.240        27
43.260        20
43.280        37
43.300        43
43.320        83
43.340       260
43.360       267
43.380       323
43.400       237
43.420       153
43.440       160
43.460       137
43.480       157
43.500       203
43.520        70
43.540        73
43.560        50
43.580        27
43.600        23
43.620        30
43.640        23
43.660        23
43.680        10
43.700        23
43.720        27
43.740        33
43.760        30
43.780        23
43.800        27
43.820        20
43.840        20
43.860        20
43.880        23
43.900        10
43.920        17
43.940        10
43.960         3
43.980        13
44.000        17
44.020         7
44.040        30
44.060        27
44.080        23
44.100        23
44.120        13
44.140        30
44.160        10
44.180         7
44.200        13
44.220        27
44.240        27
44.260        27
44.280        33
44.300        20
44.320        23
44.340        20
44.360        23
44.380        23
44.400        17
44.420         3
44.440        20
44.460        47
44.480        37
44.500        10
44.520        30
44.540        27
44.560        17
44.580        23
44.600        43
44.620        23
44.640        30
44.660        17
44.680        23
44.700        13
44.720        33
44.740        20
44.760        17
44.780        17
44.800        40
44.820         7
44.840        40
44.860        20
44.880        17
44.900        50
44.920        23
44.940        23
44.960        13
44.980        30
45.000        30
45.020        27
45.040        43
45.060        23
45.080        37
45.100        13
45.120        30
45.140        20
45.160        40
45.180        33
45.200        40
45.220        63
45.240        43
45.260        50
45.280        70
45.300        70
45.320       100
45.340        90
45.360        63
45.380        73
45.400        83
45.420        83
45.440        97
45.460       110
45.480        93
45.500       133
45.520       120
45.540       113
45.560       157
45.580       137
45.600        97
45.620        60
45.640       113
45.660        70
45.680        73
45.700        97
45.720        80
45.740        50
45.760        23
45.780        40
45.800        27
45.820        40
45.840        23
45.860        40
45.880        67
45.900        57
45.920        13
45.940        30
45.960        37
45.980        20
46.000        23
46.020        30
46.040        47
46.060        30
46.080        43
46.100        30
46.120        23
46.140        20
46.160        43
46.180        47
46.200        37
46.220        47
46.240        33
46.260        27
46.280        30
46.300        27
46.320        40
46.340        27
46.360        17
46.380        30
46.400        40
46.420        13
46.440        23
46.460        23
46.480        30
46.500        33
46.520        13
46.540        13
46.560        30
46.580        20
46.600        47
46.620        10
46.640        40
46.660        20
46.680        27
46.700        27
46.720        17
46.740        10
46.760        27
46.780        33
46.800        20
46.820        20
46.840        10
46.860        27
46.880        23
46.900        10
46.920        13
46.940        27
46.960        20
46.980        27
47.000        17
47.020        23
47.040        17
47.060        27
47.080        27
47.100        27
47.120        17
47.140        23
47.160        17
47.180        40
47.200        37
47.220        30
47.240        20
47.260        37
47.280        13
47.300        37
47.320        23
47.340        20
47.360        27
47.380        13
47.400        20
47.420        13
47.440        13
47.460        27
47.480        27
47.500        23
47.520        20
47.540         7
47.560        27
47.580        10
47.600        27
47.620        20
47.640        30
47.660        20
47.680        20
47.700        13
47.720        30
47.740        13
47.760        23
47.780        17
47.800        20
47.820        27
47.840        23
47.860        23
47.880        10
47.900        17
47.920        10
47.940        30
47.960        17
47.980        30
48.000        30
48.020         7
48.040        17
48.060        30
48.080        30
48.100        13
48.120        27
48.140        13
48.160        10
48.180        17
48.200         7
48.220        33
48.240        17
48.260        20
48.280        13
48.300        20
48.320        20
48.340        10
48.360        10
48.380        13
48.400        20
48.420         7
48.440        13
48.460        13
48.480        27
48.500        13
48.520        13
48.540         7
48.560        27
48.580        13
48.600        13
48.620        23
48.640        10
48.660        27
48.680        17
48.700         7
48.720        20
48.740        13
48.760        13
48.780        10
48.800        13
48.820         7
48.840        20
48.860        23
48.880        43
48.900        17
48.920         7
48.940        20
48.960         3
48.980         7
49.000        10
49.020        13
49.040        13
49.060        10
49.080        10
49.100        30
49.120         7
49.140        10
49.160        13
49.180        20
49.200        30
49.220        27
49.240        17
49.260        10
49.280        27
49.300        13
49.320         3
49.340        10
49.360        13
49.380        10
49.400         7
49.420        10
49.440         7
49.460        20
49.480        23
49.500        13
49.520        10
49.540         3
49.560        13
49.580        30
49.600        17
49.620        33
49.640        13
49.660        13
49.680         7
49.700         3
49.720        30
49.740        17
49.760        17
49.780        13
49.800        23
49.820         3
49.840         7
49.860        10
49.880        20
49.900        10
49.920        10
49.940         0
49.960        20
49.980        17
50.000        23
50.020        13
50.040         7
50.060        10
50.080         7
50.100        13
50.120        10
50.140        10
50.160        17
50.180        23
50.200        33
50.220        13
50.240        20
50.260        10
50.280        17
50.300        13
50.320        27
50.340        20
50.360        13
50.380        23
50.400        10
50.420        20
50.440        17
50.460        10
50.480        13
50.500        27
50.520        17
50.540        20
50.560        13
50.580        13
50.600        13
50.620        10
50.640        20
50.660        20
50.680        17
50.700        10
50.720        13
50.740         7
50.760        13
50.780        23
50.800        33
50.820         7
50.840         3
50.860        17
50.880        20
50.900        20
50.920         7
50.940        17
50.960        17
50.980        17
51.000        20
51.020         3
51.040         7
51.060        17
51.080         7
51.100        17
51.120        33
51.140        27
51.160        20
51.180        13
51.200        13
51.220        27
51.240        13
51.260        20
51.280        30
51.300        13
51.320        13
51.340        10
51.360        20
51.380        17
51.400        10
51.420        37
51.440        13
51.460        23
51.480        23
51.500        23
51.520        17
51.540        17
51.560        13
51.580        20
51.600        27
51.620        17
51.640        13
51.660        13
51.680        10
51.700         0
51.720        27
51.740        30
51.760        17
51.780        10
51.800        10
51.820        20
51.840        27
51.860        20
51.880        13
51.900        20
51.920        20
51.940        33
51.960        20
51.980        10
52.000         7
52.020        17
52.040        17
52.060         7
52.080         7
52.100        20
52.120        17
52.140        20
52.160        17
52.180        17
52.200        10
52.220        23
52.240         7
52.260        30
52.280        30
52.300        20
52.320        17
52.340        33
52.360        23
52.380        10
52.400        17
52.420        33
52.440        17
52.460        60
52.480        67
52.500       143
52.520       333
52.540       410
52.560       293
52.580       227
52.600       157
52.620       100
52.640       160
52.660       167
52.680       190
52.700       160
52.720       110
52.740       120
52.760        70
52.780        43
52.800        40
52.820        20
52.840        40
52.860        33
52.880        20
52.900        17
52.920        13
52.940        10
52.960         7
52.980        20
53.000        20
53.020        27
53.040        33
53.060        17
53.080         7
53.100        33
53.120        13
53.140         7
53.160        23
53.180        10
53.200        13
53.220         7
53.240         3
53.260         7
53.280        23
53.300        30
53.320        17
53.340        17
53.360        13
53.380        10
53.400        27
53.420        27
53.440        23
53.460        20
53.480         3
53.500        33
53.520        17
53.540        17
53.560        17
53.580        13
53.600        13
53.620        13
53.640         7
53.660        17
53.680        13
53.700        17
53.720        20
53.740        43
53.760        10
53.780        13
53.800        13
53.820        10
53.840        20
53.860        20
53.880        13
53.900         3
53.920        20
53.940        17
53.960         7
53.980        20
54.000        20
54.020        17
54.040        13
54.060        13
54.080         3
54.100        20
54.120         7
54.140        13
54.160        17
54.180        17
54.200        10
54.220         7
54.240        17
54.260        17
54.280        10
54.300        23
54.320        10
54.340        23
54.360        17
54.380        17
54.400         7
54.420         3
54.440        13
54.460        17
54.480        30
54.500        10
54.520        37
54.540        17
54.560        13
54.580        20
54.600        13
54.620        10
54.640        23
54.660         3
54.680        23
54.700        13
54.720        27
54.740        50
54.760        17
54.780        13
54.800        17
54.820        17
54.840        20
54.860        37
54.880         7
54.900        10
54.920         7
54.940        10
54.960        23
54.980        20
55.000        17
55.020         7
55.040        20
55.060        10
55.080        43
55.100        10
55.120        13
55.140        10
55.160         3
55.180        33
55.200        27
55.220        10
55.240        27
55.260        10
55.280        27
55.300         7
55.320        17
55.340        10
55.360        40
55.380        20
55.400        10
55.420        13
55.440        20
55.460        20
55.480        10
55.500        17
55.520        30
55.540         3
55.560         7
55.580         3
55.600        30
55.620        17
55.640        27
55.660        17
55.680        17
55.700        13
55.720        10
55.740        10
55.760        10
55.780         0
55.800        10
55.820        23
55.840        10
55.860        17
55.880        30
55.900        20
55.920        10
55.940        13
55.960        23
55.980        10
56.000        13
56.020        10
56.040        13
56.060        10
56.080        10
56.100        13
56.120        13
56.140        13
56.160         3
56.180        17
56.200        10
56.220        17
56.240        17
56.260        13
56.280        23
56.300        27
56.320        37
56.340        17
56.360        17
56.380        27
56.400        10
56.420         7
56.440        30
56.460        17
56.480        33
56.500        27
56.520        50
56.540        53
56.560        53
56.580        47
56.600        60
56.620        27
56.640        53
56.660        63
56.680        83
56.700        63
56.720        67
56.740        47
56.760        67
56.780        70
56.800        37
56.820        60
56.840        43
56.860        47
56.880        30
56.900        60
56.920        33
56.940        23
56.960        27
56.980        27
57.000        33
57.020        20
57.040        23
57.060        37
57.080        23
57.100        20
57.120         3
57.140        20
57.160        27
57.180         3
57.200        20
57.220        23
57.240        13
57.260         7
57.280        20
57.300        27
57.320        33
57.340        23
57.360        17
57.380        30
57.400        17
57.420        60
57.440        30
57.460        17
57.480        33
57.500        17
57.520        33
57.540        23
57.560        20
57.580        27
57.600        23
57.620        40
57.640        27
57.660        20
57.680        20
57.700        17
57.720        27
57.740        30
57.760        13
57.780        20
57.800        17
57.820        17
57.840        13
57.860        17
57.880        20
57.900        13
57.920        20
57.940        30
57.960        33
57.980         3
58.000        17
58.020        20
58.040         7
58.060        17
58.080        20
58.100        17
58.120         7
58.140        10
58.160        10
58.180        13
58.200        17
58.220        20
58.240        10
58.260        10
58.280        13
58.300        13
58.320        20
58.340        10
58.360        13
58.380        13
58.400        23
58.420        10
58.440        30
58.460         0
58.480        10
58.500        20
58.520        13
58.540        10
58.560        10
58.580         7
58.600         7
58.620        10
58.640        20
58.660        10
58.680        17
58.700        17
58.720        13
58.740         3
58.760        10
58.780        17
58.800         3
58.820        23
58.840         7
58.860         3
58.880        17
58.900        10
58.920        23
58.940        20
58.960        10
58.980        23
59.000        10
59.020        13
59.040        17
59.060         3
59.080        23
59.100         7
59.120        17
59.140        20
59.160         3
59.180        17
59.200        10
59.220        27
59.240        10
59.260        17
59.280        17
59.300        13
59.320        10
59.340         7
59.360        17
59.380        20
59.400        13
59.420        17
59.440        33
59.460        13
59.480        10
59.500        17
59.520        20
59.540        17
59.560        10
59.580        20
59.600        43
59.620        10
59.640        27
59.660         7
59.680        17
59.700        10
59.720        23
59.740        17
59.760        17
59.780        27
59.800         7
59.820        17
59.840        30
59.860        23
59.880        23
59.900        20
59.920        23
59.940        10
59.960         7
59.980        10
60.000        10
