20.000        90
20.020       130
20.040       100
20.060       103
20.080       100
20.100       127
20.120       107
20.140       103
20.160       113
20.180       107
20.200       143
20.220       130
20.240       107
20.260       127
20.280        87
20.300       117
20.320       107
20.340       143
20.360       127
20.380       107
20.400        90
20.420       127
20.440       123
20.460       140
20.480       147
20.500       123
20.520       103
20.540       103
20.560        83
20.580       130
20.600       100
20.620        97
20.640        93
20.660       110
20.680       103
20.700        77
20.720       103
20.740        87
20.760        93
20.780       130
20.800       110
20.820        90
20.840        90
20.860        97
20.880       103
20.900       110
20.920       113
20.940       127
20.960        93
20.980       100
21.000       107
21.020       107
21.040        80
21.060       127
21.080       103
21.100       107
21.120       113
21.140        83
21.160       150
21.180       100
21.200        97
21.220       103
21.240        97
21.260       150
21.280       127
21.300       133
21.320        57
21.340       103
21.360       107
21.380       113
21.400       100
21.420        97
21.440       137
21.460       137
21.480       117
21.500       107
21.520       127
21.540       107
21.560       120
21.580        70
21.600       100
21.620       107
21.640       103
21.660       177
21.680       110
21.700       147
21.720       120
21.740       130
21.760       130
21.780       123
21.800       140
21.820       137
21.840       140
21.860       167
21.880       113
21.900        93
21.920       120
21.940       117
21.960       127
21.980       103
22.000       113
22.020       157
22.040       130
22.060       117
22.080       127
22.100       183
22.120       173
22.140       153
22.160       143
22.180       173
22.200       130
22.220       147
22.240       173
22.260       157
22.280       157
22.300       177
22.320       127
22.340       150
22.360       187
22.380       183
22.400       133
22.420       163
22.440       220
22.460       207
22.480       180
22.500       207
22.520       190
22.540       203
22.560       203
22.580       217
22.600       227
22.620       243
22.640       210
22.660       183
22.680       257
22.700       230
22.720       207
22.740       247
22.760       190
22.780       170
22.800       190
22.820       250
22.840       213
22.860       297
22.880       263
22.900       280
22.920       267
22.940       317
22.960       290
22.980       320
23.000       257
23.020       327
23.040       526
23.060      1146
23.080      1806
23.100      1989
23.120      1739
23.140      1243
23.160       500
23.180       343
23.200       293
23.220       280
23.240       363
23.260       287
23.280       290
23.300       237
23.320       207
23.340       230
23.360       237
23.380       150
23.400       193
23.420       210
23.440       240
23.460       223
23.480       227
23.500       200
23.520       243
23.540       183
23.560       220
23.580       197
23.600       193
23.620       193
23.640       173
23.660       197
23.680       177
23.700       173
23.720       243
23.740       210
23.760       170
23.780       153
23.800       220
23.820       183
23.840       227
23.860       210
23.880       207
23.900       193
23.920       247
23.940       217
23.960       217
23.980       193
24.000       180
24.020       220
24.040       220
24.060       237
24.080       247
24.100       183
24.120       217
24.140       177
24.160       193
24.180       223
24.200       267
24.220       257
24.240       197
24.260       173
24.280       223
24.300       187
24.320       210
24.340       260
24.360       177
24.380       180
24.400       197
24.420       187
24.440       190
24.460       173
24.480       183
24.500       243
24.520       217
24.540       227
24.560       237
24.580       200
24.600       187
24.620       207
24.640       277
24.660       220
24.680       330
24.700       420
24.720       636
24.740       750
24.760       980
24.780       880
24.800      1080
24.820       893
24.840       910
24.860      1066
24.880       963
24.900      1020
24.920       916
24.940      1046
24.960       983
24.980      1013
25.000       996
25.020      1056
25.040       896
25.060      1023
25.080       973
25.100       966
25.120      1033
25.140      1010
25.160      1073
25.180      1050
25.200      1143
25.220      1176
25.240      1146
25.260      1153
25.280      1176
25.300      1456
25.320      1466
25.340      1403
25.360      1676
25.380      1836
25.400      2342
25.420      3998
25.440      6128
25.460      8803
25.480     11645
25.500     14441
25.520     18079
25.540     35839
25.560    110406
25.580    175900
25.600    193283
25.620    195099
25.640    162268
25.660    128289
25.680    114291
25.700     76713
25.720     29535
25.740     16357
25.760     12455
25.780      9130
25.800      6977
25.820      5125
25.840      3605
25.860      2259
25.880      1883
25.900      1823
25.920      1503
25.940      1619
25.960      1493
25.980      1539
26.000      1253
26.020      1210
26.040      1126
26.060      1086
26.080      1030
26.100      1023
26.120      1000
26.140       946
26.160      1006
26.180       853
26.200       866
26.220       910
26.240       880
26.260       826
26.280       853
26.300       856
26.320       830
26.340       740
26.360       800
26.380       796
26.400       760
26.420       786
26.440       773
26.460       743
26.480       796
26.500       780
26.520       826
26.540       783
26.560       643
26.580       723
26.600       680
26.620       783
26.640       813
26.660       633
26.680       696
26.700       786
26.720       766
26.740       713
26.760       663
26.780       586
26.800       610
26.820       633
26.840       683
26.860       693
26.880       703
26.900       673
26.920       686
26.940       630
26.960       643
26.980       533
27.000       680
27.020       583
27.040       663
27.060       653
27.080       683
27.100       596
27.120       520
27.140       626
27.160       606
27.180       650
27.200       610
27.220       533
27.240       653
27.260       633
27.280       703
27.300       590
27.320       606
27.340       573
27.360       616
27.380       566
27.400       510
27.420       690
27.440       503
27.460       573
27.480       570
27.500       576
27.520       520
27.540       550
27.560       550
27.580       560
27.600       540
27.620       560
27.640       556
27.660       516
27.680       620
27.700       503
27.720       566
27.740       543
27.760       556
27.780       496
27.800       533
27.820       580
27.840       513
27.860       520
27.880       550
27.900       503
27.920       556
27.940       573
27.960       417
27.980       576
28.000       486
28.020       493
28.040       503
28.060       590
28.080       566
28.100       493
28.120       456
28.140       470
28.160       516
28.180       460
28.200       490
28.220       506
28.240       520
28.260       483
28.280       476
28.300       500
28.320       516
28.340       570
28.360       483
28.380       536
28.400       463
28.420       426
28.440       433
28.460       526
28.480       456
28.500       463
28.520       486
28.540       496
28.560       556
28.580       516
28.600       556
28.620       453
28.640       503
28.660       516
28.680       510
28.700       493
28.720       523
28.740       536
28.760       553
28.780       590
28.800       523
28.820       673
28.840       643
28.860       590
28.880       653
28.900       580
28.920       636
28.940       646
28.960       643
28.980       693
29.000       616
29.020       686
29.040       613
29.060       756
29.080       666
29.100       710
29.120       773
29.140       770
29.160       630
29.180       633
29.200       696
29.220       623
29.240       530
29.260       506
29.280       523
29.300       493
29.320       433
29.340       357
29.360       473
29.380       513
29.400       483
29.420       466
29.440       417
29.460       430
29.480       473
29.500       473
29.520       563
29.540       480
29.560       543
29.580       397
29.600       506
29.620       496
29.640       493
29.660       536
29.680       546
29.700       590
29.720       503
29.740       626
29.760       410
29.780       466
29.800       410
29.820       407
29.840       407
29.860       400
29.880       317
29.900       357
29.920       417
29.940       407
29.960       343
29.980       407
30.000       397
30.020       400
30.040       390
30.060       423
30.080       420
30.100       347
30.120       370
30.140       353
30.160       363
30.180       370
30.200       350
30.220       280
30.240       313
30.260       400
30.280       363
30.300       347
30.320       320
30.340       357
30.360       377
30.380       420
30.400       340
30.420       380
30.440       320
30.460       370
30.480       337
30.500       420
30.520       423
30.540       347
30.560       350
30.580       410
30.600       373
30.620       390
30.640       350
30.660       330
30.680       333
30.700       373
30.720       343
30.740       347
30.760       327
30.780       357
30.800       347
30.820       303
30.840       340
30.860       310
30.880       310
30.900       313
30.920       330
30.940       290
30.960       337
30.980       373
31.000       277
31.020       277
31.040       317
31.060       247
31.080       317
31.100       310
31.120       257
31.140       310
31.160       287
31.180       253
31.200       293
31.220       310
31.240       283
31.260       360
31.280       327
31.300       303
31.320       320
31.340       257
31.360       333
31.380       293
31.400       260
31.420       290
31.440       303
31.460       273
31.480       243
31.500       290
31.520       293
31.540       270
31.560       257
31.580       283
31.600       273
31.620       287
31.640       267
31.660       263
31.680       277
31.700       250
31.720       303
31.740       237
31.760       243
31.780       310
31.800       250
31.820       280
31.840       280
31.860       237
31.880       233
31.900       230
31.920       267
31.940       273
31.960       290
31.980       250
32.000       250
32.020       283
32.040       293
32.060       217
32.080       207
32.100       353
32.120       233
32.140       250
32.160       343
32.180       263
32.200       297
32.220       290
32.240       257
32.260       323
32.280       287
32.300       333
32.320       277
32.340       267
32.360       307
32.380       220
32.400       277
32.420       263
32.440       270
32.460       270
32.480       223
32.500       223
32.520       233
32.540       227
32.560       270
32.580       190
32.600       173
32.620       213
32.640       240
32.660       250
32.680       243
32.700       203
32.720       207
32.740       223
32.760       217
32.780       237
32.800       153
32.820       217
32.840       180
32.860       230
32.880       250
32.900       190
32.920       233
32.940       280
32.960       210
32.980       220
33.000       213
33.020       197
33.040       230
33.060       187
33.080       160
33.100       160
33.120       187
33.140       200
33.160       187
33.180       183
33.200       147
33.220       183
33.240       227
33.260       210
33.280       197
33.300       167
33.320       160
33.340       220
33.360       177
33.380       207
33.400       217
33.420       183
33.440       223
33.460       157
33.480       167
33.500       233
33.520       147
33.540       163
33.560       197
33.580       190
33.600       197
33.620       170
33.640       137
33.660       197
33.680       207
33.700       190
33.720       187
33.740       183
33.760       180
33.780       163
33.800       183
33.820       190
33.840       200
33.860       140
33.880       143
33.900       180
33.920       190
33.940       187
33.960       200
33.980       163
34.000       173
34.020       217
34.040       177
34.060       240
34.080       143
34.100       163
34.120       123
34.140       213
34.160       140
34.180       197
34.200       183
34.220       140
34.240       180
34.260       180
34.280       203
34.300       203
34.320       160
34.340       193
34.360       223
34.380       140
34.400       143
34.420       153
34.440       170
34.460       157
34.480       183
34.500       170
34.520       153
34.540       150
34.560       147
34.580       177
34.600       153
34.620       173
34.640       173
34.660       213
34.680       147
34.700       120
34.720       157
34.740       113
34.760       137
34.780       150
34.800       153
34.820       133
34.840       157
34.860       133
34.880       137
34.900       117
34.920       110
34.940       143
34.960       150
34.980       157
35.000       120
35.020       147
35.040       140
35.060       147
35.080       170
35.100       147
35.120       180
35.140       150
35.160       180
35.180       147
35.200       193
35.220       110
35.240       137
35.260       147
35.280       117
35.300       143
35.320       127
35.340       160
35.360        97
35.380       123
35.400       143
35.420       120
35.440       183
35.460       160
35.480       127
35.500       120
35.520        90
35.540       153
35.560       123
35.580       137
35.600       157
35.620       100
35.640        97
35.660       100
35.680       140
35.700       107
35.720       130
35.740       117
35.760       117
35.780       160
35.800       113
35.820       187
35.840       160
35.860       157
35.880       133
35.900       143
35.920       200
35.940       167
35.960       193
35.980       207
36.000       157
36.020       180
36.040       240
36.060       230
36.080       183
36.100       227
36.120       270
36.140       260
36.160       197
36.180       193
36.200       197
36.220       190
36.240       197
36.260       197
36.280       160
36.300       167
36.320       137
36.340       160
36.360       130
36.380       123
36.400       117
36.420       147
36.440       147
36.460       137
36.480       113
36.500       120
36.520       157
36.540       107
36.560       113
36.580       117
36.600       120
36.620       120
36.640       110
36.660       103
36.680       117
36.700       130
36.720       100
36.740       103
36.760        97
36.780        93
36.800       143
36.820       107
36.840        97
36.860        87
36.880        93
36.900       100
36.920        97
36.940       107
36.960        90
36.980       100
37.000       143
37.020       117
37.040       113
37.060        93
37.080       113
37.100       110
37.120        90
37.140        93
37.160        80
37.180       100
37.200       103
37.220        97
37.240        83
37.260       107
37.280        97
37.300       100
37.320        87
37.340        87
37.360        97
37.380        80
37.400       113
37.420        93
37.440       103
37.460        63
37.480        57
37.500       120
37.520        73
37.540        90
37.560       103
37.580        60
37.600       113
37.620        80
37.640       110
37.660        67
37.680        80
37.700        77
37.720        63
37.740        80
37.760        73
37.780        67
37.800        87
37.820        97
37.840        63
37.860        73
37.880        83
37.900        70
37.920       100
37.940        90
37.960        53
37.980        60
38.000        80
38.020        77
38.040        80
38.060       100
38.080        87
38.100        70
38.120        73
38.140       113
38.160        77
38.180        77
38.200       107
38.220        83
38.240       113
38.260        67
38.280        97
38.300        70
38.320       100
38.340        83
38.360        83
38.380        80
38.400       100
38.420        87
38.440        70
38.460        83
38.480        63
38.500        87
38.520        83
38.540        77
38.560        63
38.580        67
38.600        70
38.620        77
38.640        83
38.660        60
38.680        60
38.700        57
38.720        70
38.740        50
38.760        57
38.780        67
38.800        77
38.820        63
38.840        63
38.860       100
38.880        70
38.900        77
38.920        77
38.940        67
38.960       103
38.980        90
39.000        73
39.020        77
39.040        83
39.060        80
39.080        70
39.100        77
39.120        87
39.140        83
39.160        77
39.180       100
39.200        60
39.220        87
39.240        93
39.260        87
39.280        57
39.300        73
39.320        90
39.340        57
39.360        67
39.380        57
39.400        40
39.420        63
39.440        60
39.460        80
39.480        77
39.500        63
39.520        90
39.540        67
39.560        90
39.580        73
39.600        63
39.620        77
39.640        67
39.660        50
39.680        60
39.700        53
39.720        50
39.740        87
39.760        60
39.780        67
39.800        60
39.820        50
39.840        57
39.860        50
39.880        27
39.900        47
39.920        40
39.940        53
39.960        70
39.980        50
40.000        57
40.020        73
40.040        60
40.060        57
40.080        50
40.100        40
40.120        57
40.140        63
40.160        33
40.180        57
40.200        67
40.220        67
40.240        57
40.260        63
40.280        60
40.300        70
40.320        67
40.340        63
40.360        90
40.380        60
40.400        87
40.420        53
40.440        73
40.460        87
40.480        70
40.500        40
40.520        67
40.540        50
40.560        90
40.580        33
40.600        53
40.620        73
40.640        43
40.660        40
40.680        70
40.700        43
40.720        27
40.740        50
40.760        70
40.780        27
40.800        50
40.820        60
40.840        47
40.860        77
40.880        53
40.900        57
40.920        63
40.940        70
40.960        53
40.980        77
41.000        53
41.020        50
41.040        60
41.060        53
41.080        37
41.100        53
41.120        47
41.140        70
41.160        63
41.180        47
41.200        53
41.220        40
41.240        37
41.260        27
41.280        50
41.300        50
41.320        40
41.340        50
41.360        60
41.380        47
41.400        60
41.420        57
41.440        63
41.460        57
41.480        50
41.500        27
41.520        47
41.540        63
41.560        47
41.580        37
41.600        77
41.620        63
41.640        47
41.660        63
41.680        47
41.700        40
41.720        53
41.740        40
41.760        47
41.780        57
41.800        43
41.820        37
41.840        53
41.860        27
41.880        30
41.900        40
41.920        70
41.940        33
41.960        37
41.980        53
42.000        47
42.020        47
42.040        40
42.060        67
42.080        37
42.100        50
42.120        63
42.140        40
42.160        43
42.180        60
42.200        43
42.220        50
42.240        43
42.260        57
42.280        50
42.300        53
42.320        67
42.340        50
42.360        40
42.380        40
42.400        67
42.420        93
42.440       100
42.460        53
42.480        70
42.500        70
42.520        77
42.540        83
42.560        70
42.580        60
42.600        60
42.620        53
42.640        87
42.660        50
42.680        27
42.700        43
42.720        30
42.740        53
42.760        67
42.780        40
42.800        73
42.820        60
42.840        27
42.860        47
42.880        13
42.900        40
42.920        43
42.940        40
42.960        50
42.980        50
43.000        27
43.020        50
43.040        50
43.060        60
43.080        53
43.100        27
43.120        40
43.140        43
43.160        50
43.180        50
43.200        50
43.220        30
43.240        37
43.260        50
43.280        50
43.300        43
43.320        50
43.340        43
43.360        53
43.380        37
43.400        43
43.420        47
43.440        53
43.460        30
43.480        37
43.500        60
43.520        33
43.540        47
43.560        23
43.580        43
43.600        30
43.620        53
43.640        50
43.660        27
43.680        43
43.700        27
43.720        73
43.740        43
43.760        43
43.780        40
43.800        40
43.820        50
43.840        33
43.860        57
43.880        40
43.900        30
43.920        37
43.940        57
43.960        30
43.980        57
44.000        60
44.020        57
44.040        33
44.060        27
44.080        50
44.100        33
44.120        33
44.140        57
44.160        40
44.180        57
44.200        53
44.220        37
44.240        40
44.260        47
44.280        37
44.300        60
44.320        47
44.340        67
44.360        37
44.380        53
44.400        50
44.420        30
44.440        40
44.460        30
44.480        33
44.500        50
44.520        33
44.540        33
44.560        47
44.580        23
44.600        47
44.620        63
44.640        33
44.660        63
44.680        40
44.700        53
44.720        33
44.740        27
44.760        30
44.780        57
44.800        27
44.820        40
44.840        63
44.860        47
44.880        43
44.900        17
44.920        57
44.940        50
44.960        27
44.980        33
45.000         7
45.020        40
45.040        40
45.060        37
45.080        10
45.100        30
45.120        30
45.140        43
45.160        30
45.180        57
45.200        70
45.220        33
45.240        37
45.260        20
45.280        30
45.300        20
45.320        43
45.340        40
45.360        27
45.380        43
45.400        50
45.420        50
45.440        50
45.460        23
45.480        40
45.500        20
45.520        43
45.540        40
45.560        47
45.580        30
45.600        33
45.620        27
45.640        33
45.660        30
45.680        30
45.700        60
45.720        40
45.740        33
45.760        60
45.780        50
45.800        47
45.820        53
45.840        57
45.860        47
45.880        60
45.900        47
45.920        63
45.940        57
45.960        67
45.980        53
46.000        47
46.020        60
46.040        57
46.060        80
46.080        57
46.100        47
46.120        53
46.140        33
46.160        70
46.180        73
46.200        87
46.220        77
46.240        80
46.260        60
46.280        67
46.300        70
46.320        40
46.340        57
46.360        67
46.380        43
46.400        43
46.420        73
46.440        70
46.460        47
46.480        70
46.500        60
46.520        40
46.540        43
46.560        77
46.580        53
46.600        43
46.620       133
46.640        77
46.660        47
46.680        60
46.700        77
46.720        73
46.740        50
46.760       110
46.780       100
46.800       107
46.820       103
46.840       100
46.860       103
46.880        93
46.900       100
46.920        87
46.940       100
46.960        83
46.980        70
47.000       110
47.020       130
47.040       137
47.060       167
47.080       210
47.100       263
47.120       456
47.140       860
47.160      1566
47.180      1943
47.200      1719
47.220      1306
47.240       716
47.260       473
47.280       310
47.300       250
47.320       173
47.340       183
47.360       167
47.380       150
47.400       113
47.420       110
47.440        97
47.460       100
47.480        87
47.500        80
47.520        83
47.540        87
47.560       100
47.580        87
47.600        77
47.620        47
47.640        50
47.660        83
47.680        70
47.700        70
47.720        40
47.740        67
47.760        70
47.780        47
47.800        63
47.820        60
47.840        40
47.860        47
47.880        67
47.900        57
47.920        43
47.940        70
47.960        50
47.980        40
48.000        37
48.020        47
48.040        73
48.060        37
48.080        27
48.100        27
48.120        57
48.140        47
48.160        37
48.180        33
48.200        40
48.220        20
48.240        40
48.260        33
48.280        47
48.300        77
48.320        67
48.340        53
48.360        40
48.380        37
48.400        30
48.420        77
48.440        53
48.460        53
48.480        50
48.500        47
48.520        63
48.540        47
48.560        47
48.580        47
48.600        30
48.620        40
48.640        40
48.660        53
48.680        60
48.700        60
48.720        50
48.740        47
48.760        50
48.780        40
48.800        60
48.820        47
48.840        33
48.860        47
48.880        33
48.900        47
48.920        33
48.940        33
48.960        60
48.980        43
49.000        60
49.020        63
49.040        33
49.060        43
49.080        53
49.100        43
49.120        50
49.140        50
49.160        40
49.180        57
49.200        30
49.220        90
49.240        53
49.260        53
49.280        50
49.300        53
49.320        40
49.340        70
49.360        60
49.380        47
49.400        73
49.420        40
49.440        57
49.460        53
49.480        67
49.500        57
49.520        47
49.540        77
49.560        37
49.580        40
49.600        40
49.620        37
49.640        47
49.660        53
49.680        53
49.700        53
49.720        53
49.740        33
49.760        63
49.780        50
49.800        67
49.820        53
49.840        63
49.860        83
49.880        50
49.900        67
49.920        50
49.940        30
49.960        67
49.980        53
50.000        60
50.020        30
50.040        47
50.060        63
50.080        53
50.100        27
50.120        60
50.140        33
50.160        70
50.180        33
50.200        63
50.220        63
50.240        63
50.260        63
50.280        47
50.300        53
50.320        60
50.340        63
50.360        37
50.380        57
50.400        50
50.420        43
50.440        60
50.460        40
50.480        53
50.500        53
50.520        73
50.540        50
50.560        57
50.580        73
50.600       123
50.620       147
50.640       207
50.660       237
50.680       387
50.700       410
50.720       443
50.740       407
50.760       490
50.780       470
50.800       430
50.820       430
50.840       456
50.860       516
50.880       460
50.900       387
50.920       500
50.940       450
50.960       413
50.980       453
51.000       426
51.020       490
51.040       420
51.060       446
51.080       446
51.100       463
51.120       463
51.140       476
51.160       470
51.180       483
51.200       530
51.220       450
51.240       526
51.260       523
51.280       443
51.300       490
51.320       450
51.340       450
51.360       513
51.380       523
51.400       533
51.420       453
51.440       473
51.460       463
51.480       513
51.500       446
51.520       496
51.540       413
51.560       466
51.580       496
51.600       566
51.620       513
51.640       593
51.660       473
51.680       460
51.700       503
51.720       576
51.740       490
51.760       566
51.780       553
51.800       520
51.820       576
51.840       550
51.860       553
51.880       673
51.900       656
51.920       616
51.940       633
51.960       676
51.980       670
52.000       666
52.020       746
52.040       743
52.060       810
52.080       720
52.100       756
52.120      1023
52.140       886
52.160       986
52.180      1093
52.200      1080
52.220      1180
52.240      1593
52.260      1673
52.280      2196
52.300      2779
52.320      3322
52.340      3802
52.360      4145
52.380      4975
52.400      6178
52.420      7510
52.440     10299
52.460     13511
52.480     17416
52.500     26003
52.520     51083
52.540    112015
52.560    170728
52.580    191303
52.600    177056
52.620    119046
52.640     61925
52.660     50153
52.680     74110
52.700    105561
52.720    118003
52.740    106218
52.760     68589
52.780     32230
52.800     16457
52.820     11202
52.840      8906
52.860      7520
52.880      5664
52.900      3975
52.920      2829
52.940      2136
52.960      1886
52.980      1746
53.000      1586
53.020      1359
53.040      1166
53.060      1183
53.080      1206
53.100      1040
53.120      1023
53.140       956
53.160       953
53.180       750
53.200       776
53.220       963
53.240       763
53.260       773
53.280       770
53.300       630
53.320       650
53.340       673
53.360       626
53.380       623
53.400       663
53.420       576
53.440       540
53.460       510
53.480       626
53.500       580
53.520       553
53.540       553
53.560       463
53.580       466
53.600       553
53.620       440
53.640       536
53.660       523
53.680       460
53.700       493
53.720       446
53.740       440
53.760       450
53.780       423
53.800       486
53.820       383
53.840       436
53.860       473
53.880       400
53.900       443
53.920       377
53.940       440
53.960       313
53.980       436
54.000       420
54.020       350
54.040       417
54.060       380
54.080       343
54.100       380
54.120       380
54.140       430
54.160       410
54.180       317
54.200       410
54.220       327
54.240       367
54.260       363
54.280       370
54.300       310
54.320       367
54.340       320
54.360       390
54.380       343
54.400       313
54.420       343
54.440       350
54.460       363
54.480       267
54.500       353
54.520       307
54.540       323
54.560       357
54.580       270
54.600       327
54.620       277
54.640       360
54.660       347
54.680       373
54.700       377
54.720       323
54.740       250
54.760       337
54.780       307
54.800       277
54.820       343
54.840       323
54.860       330
54.880       287
54.900       280
54.920       320
54.940       340
54.960       327
54.980       247
55.000       247
55.020       327
55.040       293
55.060       260
55.080       267
55.100       260
55.120       283
55.140       257
55.160       260
55.180       300
55.200       247
55.220       283
55.240       247
55.260       227
55.280       267
55.300       207
55.320       277
55.340       303
55.360       267
55.380       300
55.400       283
55.420       260
55.440       243
55.460       283
55.480       227
55.500       213
55.520       260
55.540       323
55.560       260
55.580       240
55.600       200
55.620       237
55.640       233
55.660       270
55.680       280
55.700       280
55.720       260
55.740       190
55.760       250
55.780       220
55.800       250
55.820       253
55.840       273
55.860       220
55.880       297
55.900       257
55.920       263
55.940       223
55.960       250
55.980       203
56.000       230
56.020       223
56.040       263
56.060       230
56.080       273
56.100       213
56.120       223
56.140       220
56.160       270
56.180       340
56.200       250
56.220       250
56.240       240
56.260       237
56.280       243
56.300       270
56.320       193
56.340       273
56.360       220
56.380       243
56.400       183
56.420       253
56.440       267
56.460       187
56.480       227
56.500       260
56.520       213
56.540       253
56.560       223
56.580       227
56.600       260
56.620       200
56.640       193
56.660       217
56.680       250
56.700       203
56.720       220
56.740       240
56.760       187
56.780       197
56.800       270
56.820       190
56.840       213
56.860       217
56.880       183
56.900       217
56.920       230
56.940       183
56.960       187
56.980       227
57.000       197
57.020       233
57.040       173
57.060       200
57.080       220
57.100       157
57.120       150
57.140       207
57.160       240
57.180       220
57.200       200
57.220       190
57.240       220
57.260       177
57.280       247
57.300       220
57.320       207
57.340       220
57.360       227
57.380       243
57.400       250
57.420       187
57.440       183
57.460       200
57.480       180
57.500       210
57.520       190
57.540       173
57.560       170
57.580       160
57.600       160
57.620       140
57.640       240
57.660       167
57.680       183
57.700       190
57.720       153
57.740       207
57.760       213
57.780       190
57.800       210
57.820       223
57.840       193
57.860       190
57.880       183
57.900       207
57.920       183
57.940       130
57.960       177
57.980       177
58.000       163
58.020       187
58.040       203
58.060       143
58.080       180
58.100       193
58.120       183
58.140       183
58.160       157
58.180       203
58.200       157
58.220       173
58.240       127
58.260       193
58.280       173
58.300       220
58.320       167
58.340       163
58.360       117
58.380       217
58.400       173
58.420       180
58.440       197
58.460       157
58.480       143
58.500       160
58.520       133
58.540       190
58.560       180
58.580       123
58.600       133
58.620       193
58.640       123
58.660       163
58.680       177
58.700       150
58.720       207
58.740        97
58.760       137
58.780       170
58.800       183
58.820       143
58.840       177
58.860       193
58.880       160
58.900       123
58.920       170
58.940       140
58.960       153
58.980       180
59.000       173
59.020       200
59.040       147
59.060       140
59.080       133
59.100       157
59.120       143
59.140       153
59.160       133
59.180       163
59.200       167
59.220       163
59.240       103
59.260       150
59.280       140
59.300       180
59.320       130
59.340       130
59.360       147
59.380       107
59.400       133
59.420       160
59.440       120
59.460       147
59.480       140
59.500       167
59.520       137
59.540       150
59.560       183
59.580       180
59.600       110
59.620       180
59.640       130
59.660       113
59.680       150
59.700       163
59.720       170
59.740       120
59.760       153
59.780       117
59.800       113
59.820       163
59.840       107
59.860       107
59.880       150
59.900       120
59.920       127
59.940       140
59.960       110
59.980        73
60.000        73
