20.000        60
20.020        50
20.040        37
20.060        53
20.080        30
20.100        40
20.120        40
20.140        57
20.160        30
20.180        40
20.200        47
20.220        70
20.240        37
20.260        83
20.280        40
20.300        30
20.320        30
20.340        47
20.360        37
20.380        30
20.400        60
20.420        40
20.440        53
20.460        47
20.480        37
20.500        27
20.520        53
20.540        63
20.560        33
20.580        47
20.600        43
20.620        33
20.640        40
20.660        57
20.680         7
20.700        23
20.720        47
20.740        47
20.760        40
20.780        47
20.800        70
20.820        63
20.840        40
20.860        53
20.880        40
20.900        43
20.920        50
20.940        60
20.960        40
20.980        43
21.000        27
21.020        60
21.040        47
21.060        40
21.080        47
21.100        37
21.120        43
21.140        17
21.160        37
21.180        50
21.200        33
21.220        33
21.240        30
21.260        43
21.280        40
21.300        33
21.320        50
21.340        40
21.360        17
21.380        30
21.400        27
21.420        57
21.440        40
21.460        47
21.480        47
21.500        33
21.520        47
21.540        53
21.560        47
21.580        63
21.600        30
21.620        30
21.640        60
21.660        53
21.680        23
21.700        27
21.720        37
21.740        27
21.760        20
21.780        37
21.800        33
21.820        20
21.840        23
21.860        27
21.880        30
21.900        37
21.920        47
21.940        47
21.960        43
21.980        17
22.000        47
22.020        33
22.040        43
22.060        47
22.080        37
22.100        37
22.120        37
22.140        30
22.160        40
22.180        37
22.200        20
22.220        23
22.240        33
22.260        67
22.280        23
22.300        37
22.320        57
22.340        33
22.360        43
22.380        50
22.400        47
22.420        87
22.440        37
22.460        50
22.480        67
22.500        63
22.520        60
22.540        43
22.560        60
22.580        57
22.600        90
22.620       107
22.640        93
22.660        93
22.680        90
22.700        67
22.720        73
22.740        53
22.760        53
22.780        53
22.800        67
22.820        60
22.840        50
22.860        33
22.880        47
22.900        63
22.920        23
22.940        30
22.960        43
22.980        27
23.000        57
23.020        43
23.040        43
23.060        30
23.080        30
23.100        23
23.120        20
23.140        30
23.160        33
23.180        43
23.200        33
23.220        30
23.240        23
23.260        33
23.280        20
23.300        37
23.320        47
23.340        40
23.360        50
23.380        30
23.400        33
23.420        43
23.440        20
23.460        33
23.480        50
23.500        33
23.520        30
23.540        33
23.560        43
23.580        27
23.600        33
23.620        53
23.640        37
23.660        33
23.680        17
23.700        43
23.720        43
23.740        53
23.760        70
23.780        43
23.800        30
23.820        53
23.840        40
23.860        37
23.880        20
23.900        40
23.920        20
23.940        33
23.960        27
23.980        37
24.000        27
24.020        17
24.040        27
24.060        30
24.080        27
24.100        60
24.120        23
24.140        40
24.160        20
24.180        40
24.200        33
24.220        50
24.240        33
24.260        33
24.280        27
24.300        33
24.320        23
24.340        27
24.360        23
24.380        10
24.400        33
24.420        33
24.440        23
24.460        30
24.480        33
24.500        37
24.520        10
24.540        33
24.560        23
24.580        30
24.600        17
24.620        17
24.640        37
24.660        33
24.680        33
24.700        27
24.720        40
24.740        33
24.760        30
24.780        20
24.800        60
24.820        27
24.840        43
24.860        17
24.880        40
24.900        33
24.920        40
24.940        57
24.960        27
24.980        23
25.000        30
25.020        20
25.040        33
25.060        37
25.080        30
25.100        10
25.120        37
25.140        23
25.160        30
25.180        27
25.200        20
25.220        33
25.240        17
25.260        23
25.280        27
25.300        73
25.320        33
25.340        37
25.360        20
25.380        30
25.400        37
25.420        20
25.440        37
25.460        37
25.480        17
25.500        37
25.520        10
25.540        53
25.560        57
25.580        40
25.600        33
25.620        60
25.640        60
25.660        43
25.680        50
25.700        47
25.720        50
25.740        30
25.760        53
25.780        57
25.800        60
25.820        77
25.840        73
25.860       120
25.880       133
25.900       130
25.920        97
25.940       130
25.960       127
25.980        90
26.000        57
26.020        70
26.040        53
26.060        50
26.080        50
26.100        20
26.120        40
26.140        33
26.160        47
26.180        27
26.200        33
26.220        10
26.240        27
26.260        20
26.280        30
26.300        53
26.320        20
26.340        23
26.360        43
26.380        37
26.400        37
26.420        23
26.440        23
26.460        30
26.480        27
26.500        23
26.520        20
26.540        23
26.560        17
26.580        40
26.600        20
26.620        27
26.640        20
26.660        33
26.680        20
26.700        43
26.720        33
26.740        37
26.760        27
26.780        27
26.800        23
26.820        40
26.840         7
26.860        20
26.880        30
26.900        33
26.920        33
26.940        37
26.960        17
26.980        30
27.000        37
27.020        27
27.040        17
27.060        13
27.080        13
27.100        27
27.120        23
27.140        23
27.160        37
27.180        30
27.200        20
27.220        37
27.240        27
27.260        23
27.280        20
27.300        43
27.320        37
27.340        43
27.360        43
27.380        20
27.400        30
27.420        17
27.440        40
27.460        37
27.480        20
27.500        23
27.520        30
27.540        20
27.560        37
27.580        43
27.600        43
27.620        30
27.640        20
27.660        37
27.680        43
27.700        20
27.720        47
27.740        23
27.760        40
27.780        43
27.800        30
27.820        30
27.840        27
27.860        57
27.880        47
27.900        30
27.920        23
27.940        47
27.960        50
27.980        40
28.000        30
28.020        40
28.040        37
28.060        33
28.080        43
28.100        40
28.120        23
28.140        33
28.160        47
28.180        30
28.200        43
28.220        27
28.240        30
28.260        43
28.280        40
28.300        50
28.320        33
28.340        37
28.360        40
28.380        37
28.400        40
28.420        20
28.440        47
28.460        37
28.480        47
28.500        37
28.520        43
28.540        57
28.560        20
28.580        57
28.600        50
28.620        50
28.640        33
28.660        57
28.680        60
28.700        73
28.720        97
28.740        77
28.760        90
28.780        83
28.800        93
28.820       120
28.840       110
28.860       143
28.880       170
28.900       180
28.920       223
28.940       187
28.960       187
28.980       223
29.000       177
29.020       230
29.040       223
29.060       270
29.080       260
29.100       283
29.120       263
29.140       193
29.160       297
29.180       200
29.200       250
29.220       220
29.240       180
29.260       123
29.280       143
29.300       137
29.320       117
29.340       117
29.360        90
29.380       107
29.400        57
29.420        80
29.440        60
29.460       103
29.480        97
29.500        80
29.520        87
29.540        83
29.560        90
29.580       127
29.600       133
29.620       180
29.640       207
29.660       153
29.680       210
29.700       190
29.720       190
29.740       127
29.760       127
29.780        73
29.800        80
29.820        60
29.840        47
29.860        50
29.880        30
29.900        20
29.920        40
29.940        27
29.960        13
29.980        37
30.000        33
30.020        40
30.040        27
30.060        27
30.080        37
30.100        23
30.120        33
30.140        33
30.160        27
30.180        17
30.200        33
30.220        30
30.240        17
30.260        17
30.280        23
30.300        10
30.320        40
30.340        27
30.360        30
30.380        27
30.400        60
30.420        43
30.440        27
30.460        43
30.480        30
30.500        60
30.520        57
30.540        40
30.560        47
30.580        43
30.600        50
30.620        53
30.640        67
30.660        50
30.680        40
30.700        47
30.720        53
30.740        37
30.760        33
30.780        27
30.800        43
30.820        20
30.840        20
30.860        13
30.880        27
30.900        23
30.920        33
30.940        23
30.960        17
30.980        13
31.000        30
31.020        17
31.040        40
31.060        33
31.080        20
31.100        30
31.120        30
31.140        33
31.160        43
31.180        47
31.200        43
31.220        23
31.240        30
31.260        33
31.280        40
31.300        47
31.320        27
31.340        43
31.360        37
31.380        17
31.400        27
31.420        33
31.440        43
31.460        47
31.480        23
31.500        53
31.520        43
31.540        30
31.560        33
31.580        20
31.600        40
31.620        23
31.640        47
31.660        13
31.680        27
31.700        17
31.720        40
31.740        30
31.760        33
31.780        43
31.800        33
31.820        30
31.840        47
31.860        27
31.880        23
31.900        37
31.920        30
31.940        30
31.960        30
31.980        47
32.000        33
32.020        27
32.040        40
32.060        53
32.080        43
32.100        40
32.120        57
32.140        93
32.160        70
32.180        70
32.200       103
32.220       113
32.240       120
32.260        90
32.280        90
32.300        80
32.320        97
32.340        60
32.360        70
32.380        50
32.400        27
32.420        57
32.440        37
32.460        43
32.480        27
32.500        27
32.520        30
32.540        20
32.560        27
32.580        23
32.600        23
32.620        33
32.640        33
32.660        50
32.680        43
32.700        20
32.720        20
32.740        40
32.760        37
32.780        30
32.800        50
32.820        30
32.840        33
32.860        27
32.880        43
32.900        50
32.920        23
32.940        33
32.960        10
32.980        37
33.000        37
33.020        33
33.040        23
33.060        20
33.080        33
33.100        33
33.120        30
33.140        37
33.160        30
33.180        23
33.200        20
33.220        13
33.240        27
33.260        30
33.280        20
33.300        37
33.320        20
33.340        17
33.360        17
33.380        27
33.400        20
33.420        13
33.440        30
33.460        33
33.480        23
33.500        40
33.520        40
33.540        30
33.560        40
33.580        23
33.600        20
33.620        33
33.640        20
33.660        33
33.680        13
33.700        17
33.720        40
33.740        23
33.760        23
33.780        20
33.800        47
33.820        27
33.840        27
33.860        23
33.880        30
33.900        17
33.920        27
33.940        30
33.960        27
33.980        37
34.000        33
34.020         7
34.040        37
34.060        17
34.080        17
34.100        30
34.120        33
34.140        27
34.160        30
34.180        10
34.200        23
34.220        23
34.240        17
34.260        30
34.280         0
34.300        13
34.320        30
34.340        10
34.360        17
34.380        27
34.400        13
34.420        37
34.440        30
34.460        20
34.480        17
34.500        10
34.520        13
34.540        17
34.560        23
34.580        23
34.600        37
34.620        30
34.640        23
34.660        23
34.680         3
34.700        23
34.720        20
34.740        17
34.760        13
34.780        20
34.800        50
34.820        17
34.840        23
34.860        30
34.880        30
34.900        13
34.920        17
34.940        30
34.960        33
34.980        30
35.000        23
35.020        23
35.040        23
35.060        47
35.080        40
35.100        60
35.120        83
35.140        73
35.160        83
35.180       123
35.200       117
35.220        80
35.240        87
35.260        80
35.280        83
35.300        53
35.320        80
35.340        30
35.360        23
35.380        20
35.400        43
35.420        30
35.440        13
35.460        30
35.480        27
35.500        13
35.520        17
35.540        17
35.560        30
35.580        17
35.600        17
35.620        47
35.640        13
35.660        27
35.680        20
35.700        30
35.720         7
35.740        27
35.760        33
35.780        23
35.800        27
35.820         7
35.840        17
35.860        27
35.880        30
35.900        17
35.920        17
35.940        33
35.960        20
35.980        23
36.000         7
36.020        27
36.040        20
36.060        23
36.080        20
36.100        13
36.120        17
36.140        17
36.160        20
36.180        27
36.200        37
36.220        13
36.240        10
36.260        17
36.280        17
36.300        23
36.320        23
36.340        43
36.360        13
36.380        23
36.400        47
36.420        20
36.440        20
36.460        37
36.480        37
36.500        33
36.520        13
36.540        30
36.560        33
36.580        23
36.600        17
36.620        40
36.640        20
36.660        20
36.680        40
36.700        23
36.720        37
36.740        40
36.760        33
36.780        23
36.800        27
36.820         7
36.840        20
36.860        27
36.880        17
36.900        13
36.920        13
36.940        13
36.960        40
36.980        33
37.000        30
37.020        40
37.040        23
37.060        17
37.080        23
37.100        27
37.120        27
37.140         7
37.160        17
37.180        30
37.200        20
37.220        10
37.240        20
37.260        27
37.280        20
37.300        13
37.320        10
37.340        20
37.360         7
37.380         3
37.400        30
37.420        13
37.440        10
37.460        17
37.480        30
37.500        13
37.520        23
37.540        13
37.560        23
37.580        33
37.600        17
37.620        27
37.640        27
37.660        17
37.680        37
37.700        40
37.720        40
37.740        80
37.760        93
37.780       150
37.800       157
37.820       117
37.840       120
37.860        87
37.880        93
37.900        77
37.920        93
37.940        53
37.960        20
37.980        20
38.000        23
38.020        17
38.040        30
38.060        13
38.080        20
38.100        20
38.120        30
38.140        20
38.160        17
38.180        13
38.200        27
38.220        20
38.240        30
38.260        27
38.280        20
38.300        27
38.320        13
38.340        37
38.360        30
38.380        30
38.400        27
38.420        20
38.440        20
38.460        23
38.480        10
38.500        27
38.520        43
38.540        10
38.560        10
38.580        13
38.600        17
38.620        23
38.640        17
38.660        13
38.680        10
38.700        23
38.720        23
38.740        27
38.760        33
38.780        17
38.800        23
38.820        13
38.840        13
38.860        17
38.880        33
38.900        20
38.920         3
38.940        13
38.960        40
38.980        20
39.000        30
39.020        30
39.040        30
39.060        40
39.080        33
39.100        30
39.120        27
39.140        30
39.160        30
39.180        37
39.200        30
39.220        17
39.240        33
39.260        40
39.280        27
39.300        23
39.320        27
39.340        23
39.360        33
39.380        33
39.400        20
39.420        30
39.440        23
39.460        17
39.480        23
39.500        17
39.520        10
39.540        10
39.560        20
39.580        17
39.600        13
39.620         7
39.640         7
39.660        17
39.680        20
39.700        27
39.720        23
39.740        33
39.760        20
39.780        17
39.800        10
39.820        17
39.840        10
39.860        17
39.880        23
39.900        23
39.920        13
39.940        17
39.960        10
39.980        33
40.000        17
40.020        33
40.040        17
40.060        47
40.080        37
40.100        27
40.120        40
40.140        17
40.160        47
40.180        23
40.200        17
40.220        17
40.240        27
40.260        30
40.280        27
40.300        37
40.320        40
40.340        17
40.360        13
40.380        17
40.400        40
40.420        20
40.440        13
40.460        27
40.480        33
40.500        10
40.520        27
40.540        20
40.560        20
40.580        30
40.600         7
40.620        10
40.640        30
40.660        23
40.680        40
40.700        13
40.720        23
40.740        23
40.760        20
40.780        27
40.800        33
40.820        20
40.840        23
40.860        27
40.880         3
40.900        47
40.920        30
40.940        30
40.960        23
40.980        13
41.000        17
41.020        27
41.040        27
41.060        20
41.080        30
41.100        30
41.120        27
41.140        30
41.160        23
41.180        33
41.200        23
41.220        23
41.240        23
41.260        20
41.280        20
41.300        20
41.320        10
41.340        10
41.360        37
41.380        10
41.400        37
41.420        23
41.440        20
41.460        20
41.480        27
41.500        33
41.520        40
41.540        47
41.560        97
41.580        73
41.600        77
41.620        83
41.640       143
41.660       233
41.680       303
41.700       270
41.720       210
41.740       127
41.760       120
41.780       127
41.800       157
41.820       130
41.840       107
41.860        43
41.880        30
41.900        30
41.920        27
41.940        33
41.960        47
41.980        27
42.000        27
42.020        23
42.040        23
42.060        20
42.080        17
42.100        27
42.120        17
42.140        23
42.160        20
42.180        17
42.200        27
42.220        37
42.240        10
42.260        40
42.280        43
42.300        33
42.320        17
42.340        20
42.360        37
42.380        27
42.400        27
42.420        37
42.440        67
42.460        47
42.480        40
42.500        37
42.520        50
42.540        43
42.560        37
42.580        40
42.600        43
42.620        43
42.640        60
42.660        43
42.680        20
42.700        27
42.720        30
42.740        20
42.760        23
42.780        17
42.800        13
42.820        23
42.840        23
42.860        10
42.880        17
42.900        33
42.920        30
42.940        20
42.960        33
42.980        17
43.000        30
43.020        20
43.040        13
43.060        47
43.080        27
43.100        23
43.120        30
43.140        17
43.160        23
43.180        20
43.200        13
43.220        20
43.240        40
43.260         3
43.280        73
43.300       137
43.320       167
43.340       163
43.360        93
43.380        87
43.400        53
43.420        90
43.440       123
43.460        93
43.480        70
43.500        57
43.520        50
43.540        27
43.560        23
43.580        33
43.600        20
43.620        30
43.640        33
43.660        27
43.680        13
43.700        13
43.720         7
43.740        17
43.760        23
43.780        37
43.800        13
43.820        17
43.840        23
43.860         7
43.880        17
43.900         7
43.920        20
43.940        17
43.960        17
43.980        20
44.000        20
44.020        27
44.040        17
44.060        37
44.080        30
44.100        27
44.120        43
44.140        17
44.160        27
44.180        17
44.200        20
44.220        13
44.240        13
44.260        20
44.280        30
44.300        30
44.320        37
44.340        37
44.360        37
44.380        40
44.400        27
44.420        37
44.440        37
44.460        33
44.480        27
44.500        10
44.520        47
44.540        30
44.560        27
44.580        33
44.600        13
44.620        30
44.640        33
44.660        17
44.680        13
44.700        27
44.720        27
44.740        17
44.760        27
44.780        17
44.800        17
44.820        17
44.840        30
44.860        23
44.880        23
44.900         7
44.920        33
44.940        30
44.960         7
44.980        30
45.000        27
45.020        47
45.040        23
45.060        30
45.080        33
45.100        13
45.120        30
45.140         7
45.160        20
45.180        20
45.200        33
45.220        27
45.240        20
45.260        30
45.280        20
45.300        20
45.320        10
45.340        20
45.360        20
45.380        23
45.400        20
45.420        23
45.440        27
45.460        27
45.480        20
45.500         7
45.520         3
45.540        23
45.560        17
45.580        20
45.600        43
45.620        13
45.640        30
45.660        33
45.680        23
45.700        20
45.720        23
45.740        30
45.760        20
45.780        33
45.800        30
45.820        37
45.840        47
45.860        27
45.880        37
45.900        40
45.920        20
45.940        57
45.960        20
45.980        20
46.000        43
46.020        27
46.040        47
46.060        47
46.080        43
46.100        33
46.120        50
46.140        33
46.160        43
46.180        27
46.200        37
46.220        23
46.240        37
46.260        33
46.280        47
46.300        47
46.320        73
46.340        47
46.360        33
46.380        43
46.400        47
46.420        30
46.440        13
46.460        43
46.480        23
46.500        43
46.520        23
46.540         7
46.560         7
46.580        27
46.600        43
46.620        23
46.640        40
46.660        30
46.680        30
46.700        30
46.720        33
46.740        33
46.760        40
46.780        40
46.800        20
46.820        23
46.840        23
46.860        43
46.880        23
46.900        27
46.920        20
46.940        23
46.960        17
46.980        30
47.000        23
47.020        20
47.040        13
47.060        13
47.080        13
47.100         7
47.120        33
47.140        20
47.160        17
47.180        23
47.200        23
47.220        27
47.240        30
47.260        27
47.280        30
47.300        33
47.320        17
47.340        37
47.360        33
47.380        20
47.400        33
47.420        40
47.440        27
47.460         7
47.480        27
47.500        30
47.520        17
47.540        33
47.560        23
47.580        23
47.600        20
47.620        23
47.640        10
47.660        17
47.680        27
47.700        17
47.720        10
47.740        17
47.760        13
47.780        27
47.800        10
47.820        10
47.840        23
47.860        27
47.880        33
47.900        30
47.920        17
47.940        10
47.960        20
47.980        20
48.000        47
48.020        20
48.040        20
48.060        23
48.080        20
48.100        17
48.120        10
48.140        23
48.160        17
48.180        37
48.200        30
48.220         3
48.240        20
48.260        27
48.280        17
48.300        40
48.320        23
48.340        33
48.360        20
48.380        40
48.400        33
48.420        33
48.440        13
48.460        20
48.480        43
48.500        23
48.520        17
48.540        17
48.560        17
48.580        20
48.600        37
48.620        17
48.640        23
48.660         0
48.680        10
48.700        17
48.720        13
48.740        27
48.760        10
48.780        20
48.800        33
48.820        23
48.840        27
48.860        27
48.880        20
48.900        23
48.920        30
48.940        10
48.960         7
48.980        27
49.000        37
49.020        23
49.040        10
49.060        53
49.080         7
49.100        40
49.120        40
49.140        23
49.160        53
49.180        47
49.200        43
49.220        53
49.240        37
49.260        67
49.280        30
49.300        63
49.320        30
49.340        20
49.360        53
49.380        27
49.400        30
49.420        40
49.440        27
49.460        23
49.480        23
49.500        33
49.520        33
49.540        33
49.560        23
49.580        30
49.600        17
49.620        13
49.640        17
49.660        20
49.680        30
49.700        40
49.720        20
49.740        20
49.760        27
49.780         7
49.800        23
49.820        17
49.840        23
49.860        17
49.880        33
49.900        23
49.920        27
49.940        30
49.960        23
49.980        30
50.000        27
50.020        23
50.040        20
50.060        13
50.080        33
50.100        37
50.120        37
50.140        30
50.160        27
50.180        33
50.200        23
50.220        23
50.240        37
50.260        37
50.280        27
50.300        30
50.320        20
50.340        30
50.360        20
50.380        23
50.400        10
50.420        10
50.440        27
50.460        40
50.480        13
50.500        13
50.520        30
50.540        30
50.560         7
50.580        17
50.600        17
50.620        10
50.640        27
50.660        13
50.680         7
50.700        13
50.720        20
50.740        27
50.760        20
50.780        20
50.800        17
50.820        20
50.840        30
50.860        33
50.880        10
50.900        10
50.920        17
50.940        13
50.960        10
50.980        20
51.000        17
51.020        10
51.040        30
51.060        20
51.080         7
51.100        10
51.120        17
51.140        37
51.160        17
51.180        23
51.200        13
51.220        17
51.240        27
51.260        27
51.280        30
51.300        20
51.320        13
51.340        27
51.360        17
51.380        27
51.400        27
51.420        23
51.440        30
51.460        10
51.480        17
51.500        17
51.520        20
51.540        30
51.560        30
51.580        13
51.600        10
51.620        20
51.640        23
51.660        37
51.680        13
51.700        30
51.720        23
51.740        10
51.760        33
51.780        13
51.800        27
51.820        37
51.840        13
51.860        47
51.880        30
51.900        10
51.920        53
51.940        47
51.960        33
51.980        50
52.000        70
52.020        20
52.040        57
52.060        40
52.080        47
52.100        70
52.120        67
52.140        57
52.160        37
52.180        63
52.200        43
52.220        20
52.240        50
52.260        37
52.280        33
52.300        37
52.320        30
52.340        20
52.360        27
52.380        23
52.400        30
52.420        30
52.440        23
52.460        13
52.480        23
52.500        37
52.520        53
52.540        60
52.560        63
52.580        60
52.600        47
52.620        30
52.640        13
52.660        13
52.680        17
52.700        23
52.720        37
52.740        43
52.760        17
52.780        27
52.800         7
52.820         7
52.840        13
52.860        13
52.880        33
52.900        20
52.920        10
52.940        13
52.960        27
52.980        27
53.000        13
53.020        20
53.040        27
53.060        17
53.080        20
53.100        20
53.120        17
53.140        20
53.160        17
53.180        23
53.200        23
53.220        10
53.240        20
53.260        17
53.280        20
53.300        10
53.320        10
53.340        20
53.360         7
53.380        20
53.400        20
53.420        13
53.440         7
53.460        13
53.480        13
53.500        23
53.520        10
53.540        20
53.560        20
53.580        23
53.600        10
53.620        10
53.640        27
53.660        17
53.680        17
53.700        27
53.720        17
53.740        10
53.760         7
53.780        20
53.800        23
53.820        17
53.840        17
53.860        13
53.880        10
53.900        17
53.920        17
53.940        20
53.960        13
53.980        20
54.000        17
54.020        20
54.040        17
54.060        13
54.080        13
54.100        13
54.120        20
54.140        27
54.160        23
54.180        23
54.200        30
54.220         7
54.240        23
54.260         7
54.280        20
54.300        17
54.320        20
54.340        23
54.360        13
54.380        23
54.400        30
54.420         3
54.440        17
54.460        17
54.480         3
54.500        30
54.520        13
54.540        27
54.560        20
54.580        10
54.600        27
54.620        23
54.640        13
54.660        30
54.680         7
54.700         7
54.720        30
54.740        27
54.760        20
54.780        20
54.800        40
54.820        27
54.840        27
54.860        37
54.880        13
54.900        27
54.920        27
54.940        37
54.960        37
54.980        13
55.000        23
55.020        13
55.040        27
55.060         7
55.080        13
55.100        27
55.120        10
55.140        20
55.160        27
55.180        20
55.200        23
55.220        20
55.240         7
55.260        27
55.280        17
55.300        17
55.320         7
55.340        10
55.360        23
55.380        23
55.400        27
55.420        17
55.440        20
55.460        10
55.480        10
55.500        17
55.520         3
55.540         7
55.560        17
55.580        27
55.600        23
55.620        23
55.640        23
55.660        13
55.680        30
55.700        13
55.720        10
55.740        43
55.760        27
55.780        37
55.800        23
55.820        17
55.840        23
55.860        37
55.880        37
55.900        27
55.920        27
55.940        20
55.960        20
55.980        30
56.000        17
56.020        27
56.040        13
56.060        30
56.080        20
56.100        17
56.120        20
56.140        13
56.160        20
56.180        17
56.200        17
56.220        27
56.240        27
56.260        10
56.280         3
56.300        23
56.320        10
56.340        13
56.360         3
56.380        10
56.400        17
56.420        13
56.440        33
56.460        13
56.480        13
56.500        27
56.520        27
56.540        10
56.560        20
56.580         7
56.600        10
56.620        20
56.640        10
56.660        33
56.680        23
56.700        20
56.720        23
56.740        13
56.760        23
56.780        30
56.800        20
56.820        13
56.840        27
56.860        10
56.880        17
56.900        17
56.920        27
56.940        17
56.960        13
56.980        20
57.000        10
57.020        37
57.040        23
57.060        13
57.080        13
57.100        27
57.120        20
57.140        27
57.160        17
57.180        20
57.200        20
57.220        23
57.240        27
57.260        17
57.280        27
57.300        27
57.320        27
57.340        23
57.360        43
57.380        33
57.400        20
57.420        37
57.440        33
57.460        20
57.480        73
57.500        73
57.520        73
57.540        70
57.560        53
57.580        30
57.600        33
57.620        23
57.640        53
57.660        40
57.680        40
57.700        27
57.720        23
57.740        27
57.760        17
57.780        20
57.800        13
57.820        23
57.840        13
57.860        20
57.880        23
57.900        17
57.920        13
57.940         7
57.960        13
57.980        13
58.000        27
58.020        27
58.040        20
58.060        27
58.080        20
58.100        10
58.120        17
58.140        30
58.160         7
58.180        17
58.200         7
58.220        30
58.240        33
58.260        13
58.280        40
58.300        10
58.320         0
58.340        27
58.360         3
58.380        17
58.400         7
58.420        23
58.440        23
58.460        10
58.480        23
58.500        17
58.520        10
58.540         3
58.560         7
58.580         3
58.600        17
58.620         3
58.640        40
58.660         3
58.680        30
58.700         3
58.720        17
58.740        13
58.760         3
58.780        10
58.800        17
58.820        10
58.840        10
58.860        27
58.880        30
58.900         0
58.920        17
58.940        17
58.960        27
58.980        13
59.000        20
59.020        17
59.040         3
59.060         7
59.080        13
59.100        13
59.120        13
59.140        10
59.160        20
59.180        20
59.200        20
59.220        13
59.240        27
59.260        20
59.280        13
59.300        30
59.320        23
59.340        23
59.360        10
59.380        13
59.400        23
59.420        23
59.440        17
59.460        23
59.480        30
59.500        20
59.520        33
59.540        13
59.560        13
59.580        13
59.600        20
59.620        20
59.640        20
59.660        13
59.680        13
59.700        20
59.720        27
59.740        17
59.760        20
59.780        23
59.800        17
59.820        10
59.840        13
59.860        43
59.880        40
59.900        20
59.920        13
59.940        23
59.960        20
59.980        10
60.000        10
