20.000        20
20.020        20
20.040        60
20.060        33
20.080        53
20.100        30
20.120        37
20.140        50
20.160        13
20.180        40
20.200        40
20.220        13
20.240        37
20.260        30
20.280        53
20.300        47
20.320        23
20.340        40
20.360        47
20.380        47
20.400        80
20.420        30
20.440        57
20.460        30
20.480        40
20.500        40
20.520        43
20.540        33
20.560        57
20.580        50
20.600        20
20.620        50
20.640        37
20.660        43
20.680        20
20.700        33
20.720        23
20.740        43
20.760        30
20.780        40
20.800        40
20.820        57
20.840        20
20.860        43
20.880        47
20.900        37
20.920        40
20.940        63
20.960        30
20.980        40
21.000        50
21.020        30
21.040        33
21.060        20
21.080        37
21.100        33
21.120        30
21.140        43
21.160        33
21.180        60
21.200        33
21.220        50
21.240        53
21.260        37
21.280        47
21.300        37
21.320        30
21.340        37
21.360        43
21.380        40
21.400        30
21.420        30
21.440        13
21.460        23
21.480        47
21.500        23
21.520        53
21.540        40
21.560        40
21.580        27
21.600        37
21.620        53
21.640        37
21.660        37
21.680        30
21.700        27
21.720        27
21.740        13
21.760        33
21.780        30
21.800        37
21.820        40
21.840        67
21.860        40
21.880        27
21.900        50
21.920        60
21.940        20
21.960        33
21.980        47
22.000        40
22.020        47
22.040        40
22.060        47
22.080        27
22.100        40
22.120        37
22.140        43
22.160        27
22.180        47
22.200        33
22.220        37
22.240        30
22.260        30
22.280        40
22.300        23
22.320        27
22.340        67
22.360        23
22.380        27
22.400        30
22.420        33
22.440        27
22.460        23
22.480        27
22.500        33
22.520        40
22.540        27
22.560        27
22.580        30
22.600        37
22.620        37
22.640        20
22.660        60
22.680        37
22.700        33
22.720        33
22.740        30
22.760        53
22.780        43
22.800        40
22.820        43
22.840        37
22.860        43
22.880        57
22.900        30
22.920        50
22.940        40
22.960        30
22.980        33
23.000        23
23.020        27
23.040        33
23.060        30
23.080        43
23.100        37
23.120        27
23.140        17
23.160        50
23.180        30
23.200        23
23.220        27
23.240        37
23.260        27
23.280        27
23.300        33
23.320        30
23.340        13
23.360        17
23.380        47
23.400        37
23.420        43
23.440        30
23.460        17
23.480        43
23.500        30
23.520        23
23.540        37
23.560        37
23.580        37
23.600        40
23.620        33
23.640        20
23.660        33
23.680        23
23.700        27
23.720        30
23.740        37
23.760        37
23.780        37
23.800        43
23.820        23
23.840        43
23.860        23
23.880        27
23.900        47
23.920        37
23.940        27
23.960        17
23.980        53
24.000        27
24.020        27
24.040        27
24.060        50
24.080        47
24.100        27
24.120        30
24.140        37
24.160        23
24.180        43
24.200        33
24.220        33
24.240        43
24.260        40
24.280        57
24.300        23
24.320        40
24.340        27
24.360        37
24.380        27
24.400        20
24.420        27
24.440        33
24.460        43
24.480        33
24.500        40
24.520        23
24.540        23
24.560        30
24.580        27
24.600        50
24.620        33
24.640        13
24.660        30
24.680        30
24.700        37
24.720        33
24.740        30
24.760        27
24.780        43
24.800        27
24.820        17
24.840        30
24.860        30
24.880        37
24.900        27
24.920        30
24.940        23
24.960        53
24.980        37
25.000        13
25.020        47
25.040        23
25.060        37
25.080        40
25.100        27
25.120        33
25.140        40
25.160        37
25.180        47
25.200        27
25.220        40
25.240        37
25.260        47
25.280        33
25.300        33
25.320        30
25.340        50
25.360        33
25.380        23
25.400        33
25.420        53
25.440        43
25.460        57
25.480        70
25.500        30
25.520        67
25.540        43
25.560        60
25.580        63
25.600        47
25.620        67
25.640        90
25.660       107
25.680        37
25.700        67
25.720        70
25.740        33
25.760        20
25.780        13
25.800        33
25.820        30
25.840        47
25.860        27
25.880        43
25.900        33
25.920        30
25.940        53
25.960        30
25.980        20
26.000        20
26.020        30
26.040        30
26.060        47
26.080        27
26.100        10
26.120        27
26.140        33
26.160        33
26.180        37
26.200        20
26.220        43
26.240        20
26.260        27
26.280        17
26.300        20
26.320        47
26.340        27
26.360        43
26.380        30
26.400        33
26.420        37
26.440        33
26.460        27
26.480        43
26.500        40
26.520        43
26.540        20
26.560        60
26.580        30
26.600        23
26.620        33
26.640        50
26.660        43
26.680        23
26.700        47
26.720        40
26.740        43
26.760        40
26.780        47
26.800        23
26.820        47
26.840        37
26.860        40
26.880        37
26.900        20
26.920        30
26.940        53
26.960        50
26.980        30
27.000        10
27.020        43
27.040        23
27.060        40
27.080        30
27.100        33
27.120        37
27.140        40
27.160        53
27.180        30
27.200        37
27.220        37
27.240        53
27.260        40
27.280        37
27.300        37
27.320        37
27.340        50
27.360        33
27.380        47
27.400        37
27.420        33
27.440        50
27.460        40
27.480        47
27.500        27
27.520        27
27.540        33
27.560        40
27.580        30
27.600        30
27.620        33
27.640        67
27.660        57
27.680        27
27.700        50
27.720        50
27.740        13
27.760        30
27.780        27
27.800        23
27.820        27
27.840        57
27.860        33
27.880        40
27.900        20
27.920        33
27.940        33
27.960        53
27.980        50
28.000        37
28.020        23
28.040        50
28.060        43
28.080        30
28.100        23
28.120        50
28.140        40
28.160        17
28.180        53
28.200        37
28.220        20
28.240        37
28.260        40
28.280        37
28.300        47
28.320        17
28.340        27
28.360        20
28.380        33
28.400        40
28.420        37
28.440        27
28.460        30
28.480        47
28.500        40
28.520        23
28.540        13
28.560        17
28.580        17
28.600        43
28.620        13
28.640        30
28.660        30
28.680        40
28.700        37
28.720        23
28.740        30
28.760        33
28.780        17
28.800        40
28.820        43
28.840        43
28.860        47
28.880        27
28.900        30
28.920        37
28.940        53
28.960        13
28.980        40
29.000        17
29.020        30
29.040        37
29.060        47
29.080        40
29.100        33
29.120        27
29.140        30
29.160        37
29.180        50
29.200        23
29.220        33
29.240        17
29.260        67
29.280        33
29.300        27
29.320        27
29.340        47
29.360        27
29.380        37
29.400        30
29.420        30
29.440        30
29.460        43
29.480        30
29.500        23
29.520        30
29.540        33
29.560        30
29.580        50
29.600        37
29.620        37
29.640        27
29.660        20
29.680        37
29.700        33
29.720        30
29.740        37
29.760        27
29.780        53
29.800        30
29.820        43
29.840        40
29.860        63
29.880        37
29.900        33
29.920        37
29.940        37
29.960        47
29.980        23
30.000        33
30.020        33
30.040        40
30.060        50
30.080        53
30.100        10
30.120        20
30.140        27
30.160        53
30.180        13
30.200        43
30.220        23
30.240        30
30.260        13
30.280        20
30.300        30
30.320        53
30.340        30
30.360        20
30.380        27
30.400        17
30.420        20
30.440        37
30.460        23
30.480        37
30.500        70
30.520        27
30.540        30
30.560        30
30.580        33
30.600        27
30.620        37
30.640        27
30.660        37
30.680        13
30.700        10
30.720        23
30.740        13
30.760        33
30.780        43
30.800        20
30.820        20
30.840        23
30.860        30
30.880        40
30.900        17
30.920        47
30.940        23
30.960        30
30.980        43
31.000        27
31.020        10
31.040        20
31.060        43
31.080        23
31.100        20
31.120        23
31.140        13
31.160        27
31.180        27
31.200        43
31.220        23
31.240        30
31.260        27
31.280        47
31.300        43
31.320        20
31.340        17
31.360        37
31.380        30
31.400        53
31.420        17
31.440        47
31.460        53
31.480        60
31.500        23
31.520        27
31.540        17
31.560        53
31.580        20
31.600        20
31.620        23
31.640        13
31.660        27
31.680        23
31.700        27
31.720        40
31.740        37
31.760        30
31.780        13
31.800         7
31.820        27
31.840        47
31.860        27
31.880        13
31.900        27
31.920        47
31.940        53
31.960        43
31.980        27
32.000        13
32.020        40
32.040        53
32.060        20
32.080        27
32.100        13
32.120        37
32.140        30
32.160        23
32.180        37
32.200        13
32.220        17
32.240        23
32.260        50
32.280        17
32.300        33
32.320        13
32.340        37
32.360        33
32.380        33
32.400        20
32.420        30
32.440        33
32.460        20
32.480        23
32.500        13
32.520        47
32.540        20
32.560        30
32.580        13
32.600        20
32.620        33
32.640        23
32.660        23
32.680        13
32.700        30
32.720        33
32.740        20
32.760        20
32.780        23
32.800        20
32.820        27
32.840        27
32.860        30
32.880        20
32.900        27
32.920        30
32.940        23
32.960        33
32.980        40
33.000        10
33.020        10
33.040        30
33.060        17
33.080        40
33.100        27
33.120        20
33.140        23
33.160        27
33.180        37
33.200        17
33.220        20
33.240        33
33.260        20
33.280        23
33.300        27
33.320        40
33.340        37
33.360        27
33.380        30
33.400        37
33.420        30
33.440        37
33.460        23
33.480        30
33.500        17
33.520        37
33.540        27
33.560        27
33.580        20
33.600        23
33.620        30
33.640        13
33.660        17
33.680        40
33.700        33
33.720        27
33.740        17
33.760        37
33.780        17
33.800        23
33.820        37
33.840        20
33.860        23
33.880        17
33.900        17
33.920        23
33.940        20
33.960        20
33.980        23
34.000        27
34.020        13
34.040        20
34.060        27
34.080        13
34.100        30
34.120        20
34.140        20
34.160        13
34.180        17
34.200        30
34.220         7
34.240        10
34.260        17
34.280        23
34.300        33
34.320        33
34.340        37
34.360        30
34.380        10
34.400        27
34.420        17
34.440        20
34.460        20
34.480        30
34.500        30
34.520        17
34.540        37
34.560        23
34.580        13
34.600        30
34.620        37
34.640        20
34.660        47
34.680        33
34.700        23
34.720        17
34.740        13
34.760        20
34.780        37
34.800        20
34.820        27
34.840        23
34.860        23
34.880        27
34.900        30
34.920        13
34.940        40
34.960        37
34.980        43
35.000        33
35.020        60
35.040        33
35.060        73
35.080        30
35.100        53
35.120       120
35.140        83
35.160       110
35.180       167
35.200       183
35.220       123
35.240       113
35.260       117
35.280       130
35.300        63
35.320        53
35.340        43
35.360        53
35.380        23
35.400        30
35.420        17
35.440        10
35.460        13
35.480        33
35.500        13
35.520        23
35.540        17
35.560        33
35.580        20
35.600        20
35.620        13
35.640        23
35.660        20
35.680        30
35.700        20
35.720        10
35.740        10
35.760        20
35.780        23
35.800        27
35.820        27
35.840        20
35.860        13
35.880        10
35.900        23
35.920        37
35.940        13
35.960        10
35.980         7
36.000        13
36.020        27
36.040        23
36.060        20
36.080        13
36.100        13
36.120        13
36.140         7
36.160        33
36.180        23
36.200        13
36.220        33
36.240        17
36.260        13
36.280         7
36.300        33
36.320        30
36.340        13
36.360        20
36.380        17
36.400        17
36.420        30
36.440        13
36.460        20
36.480        23
36.500        27
36.520        27
36.540         7
36.560        17
36.580        23
36.600        13
36.620        17
36.640        17
36.660        13
36.680        23
36.700        17
36.720        23
36.740         7
36.760        13
36.780        13
36.800        10
36.820         7
36.840        17
36.860        23
36.880        33
36.900        17
36.920        27
36.940         7
36.960         7
36.980        30
37.000        33
37.020        20
37.040         7
37.060        33
37.080         7
37.100        23
37.120        23
37.140        30
37.160        17
37.180        30
37.200        17
37.220        33
37.240        17
37.260        37
37.280        20
37.300        17
37.320        20
37.340        30
37.360        30
37.380        23
37.400        20
37.420        23
37.440        20
37.460        37
37.480        17
37.500        17
37.520        33
37.540        27
37.560        23
37.580        17
37.600        17
37.620        33
37.640        30
37.660        27
37.680        20
37.700        23
37.720        20
37.740        10
37.760        23
37.780        17
37.800        30
37.820        77
37.840        67
37.860        67
37.880        57
37.900        63
37.920        53
37.940        37
37.960        30
37.980        33
38.000        30
38.020        40
38.040        23
38.060        17
38.080        17
38.100        30
38.120        17
38.140        27
38.160        20
38.180        10
38.200        23
38.220        17
38.240        30
38.260         7
38.280        13
38.300        17
38.320        27
38.340        27
38.360        13
38.380         7
38.400        13
38.420        33
38.440        33
38.460        17
38.480        23
38.500        20
38.520        23
38.540         3
38.560        30
38.580        17
38.600        17
38.620        13
38.640        10
38.660        10
38.680        30
38.700        27
38.720        33
38.740        27
38.760        27
38.780        13
38.800        20
38.820        10
38.840        20
38.860        27
38.880        30
38.900        27
38.920        23
38.940        17
38.960        13
38.980        17
39.000        10
39.020        23
39.040        13
39.060        23
39.080        27
39.100        23
39.120        23
39.140        17
39.160         7
39.180        10
39.200        23
39.220        20
39.240        17
39.260        20
39.280        27
39.300        27
39.320        23
39.340        20
39.360        23
39.380        23
39.400        20
39.420        13
39.440        20
39.460        27
39.480        30
39.500        10
39.520        13
39.540         3
39.560        20
39.580        27
39.600        17
39.620        27
39.640        17
39.660        13
39.680         7
39.700        13
39.720        20
39.740        37
39.760        10
39.780        23
39.800        17
39.820        33
39.840        17
39.860        17
39.880         3
39.900        30
39.920        10
39.940        27
39.960        27
39.980        10
40.000        20
40.020        23
40.040         7
40.060        13
40.080        27
40.100        13
40.120        13
40.140        20
40.160        37
40.180        23
40.200         7
40.220        20
40.240        20
40.260        10
40.280        17
40.300        10
40.320        10
40.340        13
40.360        27
40.380        10
40.400        17
40.420        17
40.440        30
40.460        10
40.480        27
40.500        13
40.520        20
40.540        10
40.560        30
40.580        27
40.600        20
40.620        10
40.640        23
40.660         7
40.680        27
40.700         7
40.720        37
40.740        13
40.760         7
40.780        27
40.800        13
40.820        23
40.840        27
40.860        23
40.880        10
40.900        33
40.920        33
40.940        40
40.960        13
40.980        17
41.000        17
41.020        17
41.040        13
41.060        13
41.080         0
41.100        17
41.120        17
41.140         7
41.160        20
41.180         7
41.200        23
41.220        23
41.240        30
41.260        23
41.280        13
41.300        20
41.320        30
41.340        17
41.360        23
41.380        30
41.400        17
41.420        17
41.440        40
41.460        17
41.480        27
41.500        27
41.520        27
41.540        27
41.560        20
41.580        20
41.600        33
41.620        47
41.640        53
41.660        77
41.680        97
41.700       130
41.720       160
41.740       197
41.760       177
41.780       177
41.800       153
41.820        70
41.840        63
41.860        87
41.880        87
41.900        30
41.920        50
41.940        37
41.960        30
41.980        20
42.000        17
42.020        23
42.040        13
42.060         3
42.080        10
42.100        23
42.120        23
42.140        17
42.160        10
42.180        17
42.200        23
42.220        27
42.240        17
42.260        20
42.280        13
42.300        23
42.320        23
42.340        17
42.360        47
42.380        20
42.400        27
42.420        20
42.440        23
42.460        20
42.480         7
42.500        27
42.520        17
42.540        27
42.560        20
42.580        13
42.600        13
42.620         3
42.640        17
42.660        23
42.680        23
42.700        10
42.720         7
42.740        27
42.760        13
42.780        20
42.800        23
42.820         7
42.840        23
42.860        10
42.880        10
42.900         7
42.920        20
42.940        20
42.960        20
42.980        13
43.000        13
43.020        23
43.040        27
43.060        17
43.080        17
43.100        20
43.120        30
43.140        17
43.160        20
43.180        10
43.200        13
43.220        30
43.240        40
43.260        37
43.280        27
43.300        50
43.320        70
43.340       110
43.360       183
43.380       210
43.400       183
43.420       140
43.440        90
43.460       100
43.480       117
43.500       127
43.520       107
43.540        53
43.560        43
43.580        43
43.600        43
43.620        37
43.640        27
43.660        33
43.680        23
43.700        27
43.720        30
43.740        23
43.760        20
43.780        27
43.800        17
43.820        30
43.840        17
43.860        13
43.880        17
43.900        20
43.920        50
43.940        27
43.960        30
43.980        27
44.000        13
44.020        20
44.040        37
44.060        20
44.080        33
44.100        17
44.120        20
44.140        23
44.160        13
44.180        13
44.200        17
44.220        23
44.240         7
44.260        13
44.280        27
44.300        17
44.320        13
44.340        23
44.360        23
44.380        23
44.400        30
44.420        23
44.440        23
44.460        27
44.480        33
44.500        10
44.520        20
44.540        17
44.560         7
44.580        13
44.600        17
44.620        20
44.640        20
44.660        17
44.680        13
44.700        27
44.720        17
44.740        27
44.760        20
44.780        23
44.800        20
44.820        33
44.840        13
44.860        23
44.880        33
44.900        20
44.920        27
44.940        20
44.960        23
44.980        23
45.000        13
45.020        10
45.040        10
45.060        17
45.080         7
45.100        27
45.120        20
45.140        17
45.160        17
45.180        30
45.200        10
45.220        37
45.240        17
45.260        23
45.280        13
45.300        17
45.320        17
45.340        20
45.360        10
45.380        23
45.400        10
45.420        13
45.440        30
45.460        23
45.480        17
45.500        30
45.520        17
45.540        20
45.560        20
45.580        17
45.600         7
45.620        10
45.640        17
45.660        30
45.680        13
45.700         3
45.720        17
45.740        13
45.760        17
45.780        23
45.800        30
45.820        13
45.840        13
45.860        17
45.880        13
45.900         7
45.920        10
45.940         3
45.960        23
45.980        13
46.000         7
46.020        13
46.040         7
46.060        13
46.080        23
46.100        33
46.120        27
46.140         3
46.160        10
46.180        10
46.200        17
46.220        23
46.240        13
46.260        20
46.280        10
46.300        20
46.320         3
46.340        23
46.360        33
46.380        17
46.400        17
46.420        20
46.440        27
46.460        40
46.480        33
46.500        30
46.520        23
46.540        23
46.560        17
46.580        13
46.600        13
46.620        13
46.640         7
46.660        17
46.680        17
46.700        10
46.720        13
46.740        20
46.760        33
46.780        23
46.800        27
46.820        17
46.840        17
46.860        10
46.880         7
46.900        17
46.920        23
46.940        10
46.960        17
46.980        27
47.000         7
47.020        20
47.040        17
47.060        27
47.080        17
47.100        17
47.120        37
47.140        37
47.160        13
47.180        10
47.200        20
47.220        13
47.240         3
47.260        20
47.280         7
47.300        17
47.320        13
47.340        13
47.360        13
47.380        23
47.400        27
47.420        20
47.440        10
47.460        30
47.480         7
47.500        27
47.520        23
47.540        27
47.560        27
47.580        13
47.600        10
47.620         7
47.640        13
47.660        23
47.680        13
47.700        17
47.720        17
47.740        20
47.760        13
47.780        13
47.800        20
47.820        13
47.840        17
47.860        17
47.880        13
47.900        33
47.920        17
47.940        23
47.960        23
47.980        20
48.000        30
48.020        23
48.040        10
48.060        17
48.080        17
48.100        37
48.120        17
48.140        20
48.160        27
48.180        27
48.200        30
48.220        20
48.240        17
48.260        13
48.280        23
48.300        33
48.320        23
48.340        30
48.360        10
48.380        20
48.400        10
48.420        23
48.440        13
48.460        27
48.480        17
48.500        17
48.520        17
48.540        23
48.560        30
48.580        13
48.600        33
48.620        30
48.640        13
48.660         7
48.680        27
48.700        20
48.720        17
48.740        13
48.760        23
48.780        37
48.800        13
48.820        17
48.840        27
48.860        30
48.880        13
48.900        23
48.920        37
48.940        23
48.960        13
48.980        33
49.000        20
49.020        27
49.040        13
49.060        23
49.080        13
49.100        10
49.120        20
49.140        20
49.160        20
49.180        27
49.200        17
49.220        33
49.240        20
49.260        27
49.280        20
49.300        17
49.320        10
49.340        13
49.360        23
49.380        23
49.400        23
49.420        23
49.440        17
49.460        23
49.480         3
49.500        17
49.520        17
49.540        27
49.560        23
49.580        10
49.600        23
49.620        20
49.640        20
49.660        17
49.680        13
49.700        17
49.720         3
49.740        13
49.760        10
49.780        10
49.800        23
49.820        10
49.840         7
49.860        13
49.880        13
49.900        30
49.920        17
49.940        17
49.960        13
49.980        37
50.000        17
50.020        23
50.040        23
50.060        27
50.080        13
50.100        30
50.120        23
50.140        23
50.160        13
50.180        20
50.200        10
50.220        20
50.240        13
50.260        20
50.280        23
50.300        13
50.320        10
50.340        23
50.360        20
50.380        30
50.400        33
50.420        13
50.440        23
50.460        13
50.480        27
50.500        27
50.520        10
50.540        10
50.560        13
50.580        20
50.600        20
50.620        10
50.640        23
50.660        30
50.680        27
50.700        17
50.720        10
50.740        30
50.760        13
50.780        10
50.800        20
50.820        17
50.840        17
50.860        17
50.880        23
50.900        13
50.920         7
50.940         3
50.960        20
50.980        20
51.000        30
51.020        17
51.040        20
51.060        17
51.080        20
51.100        23
51.120        27
51.140        20
51.160        27
51.180        23
51.200         7
51.220        30
51.240        33
51.260        10
51.280        30
51.300        20
51.320        17
51.340        17
51.360        10
51.380         7
51.400        20
51.420        17
51.440        20
51.460        23
51.480        20
51.500        10
51.520        23
51.540        17
51.560        27
51.580        20
51.600        23
51.620        27
51.640        20
51.660        13
51.680        33
51.700        13
51.720        20
51.740        23
51.760        17
51.780        10
51.800         7
51.820        17
51.840        17
51.860        10
51.880        13
51.900        20
51.920        10
51.940        13
51.960        23
51.980        20
52.000        17
52.020        13
52.040        23
52.060        30
52.080        33
52.100        10
52.120        20
52.140        27
52.160        13
52.180        27
52.200        13
52.220         7
52.240        10
52.260        13
52.280        13
52.300        17
52.320        20
52.340         7
52.360         0
52.380        10
52.400        33
52.420        13
52.440        17
52.460        20
52.480        27
52.500        57
52.520        57
52.540        80
52.560       160
52.580       183
52.600        77
52.620        77
52.640        33
52.660        47
52.680        53
52.700        63
52.720        77
52.740        27
52.760        37
52.780        30
52.800        37
52.820        27
52.840        37
52.860        23
52.880        27
52.900        20
52.920        20
52.940        20
52.960        13
52.980        20
53.000        13
53.020        23
53.040        23
53.060        13
53.080         7
53.100        13
53.120        20
53.140        30
53.160        13
53.180         7
53.200        13
53.220        23
53.240        20
53.260        33
53.280        30
53.300        17
53.320        13
53.340        27
53.360        10
53.380        37
53.400        13
53.420        33
53.440        10
53.460        20
53.480        37
53.500        13
53.520        23
53.540        17
53.560        13
53.580        10
53.600        13
53.620        17
53.640        13
53.660        10
53.680        27
53.700        20
53.720        20
53.740        10
53.760        17
53.780        13
53.800        10
53.820        20
53.840        20
53.860        13
53.880        13
53.900        17
53.920        27
53.940        10
53.960         3
53.980        20
54.000        23
54.020        10
54.040        20
54.060        10
54.080        30
54.100         3
54.120        17
54.140        23
54.160        10
54.180         7
54.200        20
54.220         3
54.240        17
54.260        17
54.280        13
54.300         7
54.320        20
54.340        13
54.360         7
54.380        30
54.400        20
54.420         7
54.440        13
54.460        23
54.480         3
54.500        13
54.520        30
54.540        17
54.560        23
54.580        23
54.600        27
54.620        27
54.640        33
54.660        23
54.680         7
54.700         7
54.720        13
54.740        23
54.760        30
54.780         7
54.800        17
54.820        27
54.840        13
54.860        27
54.880         7
54.900         7
54.920        17
54.940        20
54.960        23
54.980        27
55.000        23
55.020         7
55.040        13
55.060        10
55.080        13
55.100        30
55.120        10
55.140         7
55.160        17
55.180        13
55.200        10
55.220        10
55.240         0
55.260         7
55.280         7
55.300         3
55.320        17
55.340        13
55.360        17
55.380        10
55.400         7
55.420        17
55.440        20
55.460        10
55.480        23
55.500         7
55.520        30
55.540        33
55.560        17
55.580        17
55.600        17
55.620        13
55.640        23
55.660        13
55.680         3
55.700        17
55.720        17
55.740        13
55.760         7
55.780        27
55.800        17
55.820        20
55.840        17
55.860        17
55.880        13
55.900        20
55.920        27
55.940        13
55.960        20
55.980        20
56.000         7
56.020        13
56.040        27
56.060         7
56.080        10
56.100         3
56.120         7
56.140        10
56.160        23
56.180        20
56.200         7
56.220        17
56.240        17
56.260        13
56.280        17
56.300        17
56.320        27
56.340        20
56.360         7
56.380        13
56.400        30
56.420        20
56.440         3
56.460        13
56.480        20
56.500        10
56.520        13
56.540        23
56.560        13
56.580        13
56.600         0
56.620         3
56.640        13
56.660        20
56.680        13
56.700        13
56.720        20
56.740        17
56.760        13
56.780         3
56.800        17
56.820         7
56.840         7
56.860         7
56.880         7
56.900        20
56.920        17
56.940        10
56.960        20
56.980         3
57.000         0
57.020        27
57.040        20
57.060        13
57.080        10
57.100        30
57.120         0
57.140        13
57.160        27
57.180         7
57.200        20
57.220        10
57.240        30
57.260        13
57.280        23
57.300        13
57.320        23
57.340        13
57.360        17
57.380        17
57.400        20
57.420        30
57.440        23
57.460        27
57.480        30
57.500        53
57.520        67
57.540       120
57.560       103
57.580        60
57.600       110
57.620        50
57.640        33
57.660        33
57.680        50
57.700        53
57.720        57
57.740        47
57.760        47
57.780        37
57.800        10
57.820         7
57.840        20
57.860        17
57.880        13
57.900         7
57.920        13
57.940        10
57.960         3
57.980         7
58.000        27
58.020        13
58.040        10
58.060        13
58.080        20
58.100        23
58.120        17
58.140        17
58.160        20
58.180        13
58.200        20
58.220        13
58.240        17
58.260        33
58.280        10
58.300        13
58.320        10
58.340         0
58.360        13
58.380        30
58.400         7
58.420        17
58.440        23
58.460        20
58.480        20
58.500        27
58.520         7
58.540        10
58.560        27
58.580        10
58.600        23
58.620        23
58.640        17
58.660        10
58.680        17
58.700        13
58.720        27
58.740         7
58.760        17
58.780         7
58.800        17
58.820        17
58.840        13
58.860        23
58.880        10
58.900        10
58.920        17
58.940        13
58.960        23
58.980        13
59.000        20
59.020        20
59.040        17
59.060        20
59.080        17
59.100         7
59.120         3
59.140        10
59.160        30
59.180         7
59.200        10
59.220        10
59.240        30
59.260        20
59.280        13
59.300         7
59.320        20
59.340        10
59.360         3
59.380        10
59.400        20
59.420        10
59.440        20
59.460        27
59.480        17
59.500        27
59.520        30
59.540        23
59.560        30
59.580         7
59.600        10
59.620         7
59.640        20
59.660        20
59.680         3
59.700        23
59.720        17
59.740        13
59.760         0
59.780        27
59.800        20
59.820        17
59.840        23
59.860        17
59.880        17
59.900        10
59.920         3
59.940        30
59.960        23
59.980        13
60.000        13
