20.000        30
20.020        13
20.040        37
20.060        43
20.080        40
20.100        30
20.120        47
20.140        43
20.160        43
20.180        30
20.200        50
20.220        40
20.240       110
20.260        43
20.280        27
20.300        47
20.320        23
20.340        40
20.360        43
20.380        20
20.400        43
20.420        40
20.440        57
20.460        50
20.480        50
20.500        30
20.520        23
20.540        33
20.560        30
20.580        30
20.600        20
20.620        23
20.640        30
20.660        37
20.680        43
20.700        33
20.720        50
20.740        33
20.760        40
20.780        33
20.800        37
20.820        40
20.840        53
20.860        40
20.880        20
20.900        40
20.920        40
20.940        40
20.960        33
20.980        27
21.000        27
21.020        33
21.040        43
21.060        60
21.080        37
21.100        30
21.120        27
21.140        20
21.160        33
21.180        47
21.200        50
21.220        30
21.240        40
21.260        53
21.280        43
21.300        37
21.320        30
21.340        43
21.360        33
21.380        33
21.400        37
21.420        37
21.440        50
21.460        43
21.480        30
21.500        57
21.520        33
21.540        37
21.560        17
21.580        37
21.600        30
21.620        43
21.640        33
21.660        30
21.680        33
21.700        33
21.720        27
21.740        50
21.760        47
21.780        30
21.800        20
21.820        33
21.840        27
21.860        43
21.880        33
21.900        33
21.920        47
21.940        43
21.960        53
21.980        37
22.000        23
22.020        33
22.040        20
22.060        50
22.080        33
22.100        43
22.120        20
22.140        37
22.160        40
22.180        20
22.200        30
22.220        23
22.240        50
22.260        27
22.280        43
22.300        40
22.320        60
22.340        23
22.360        37
22.380        47
22.400        63
22.420        57
22.440        40
22.460        70
22.480        37
22.500        50
22.520        60
22.540        63
22.560        50
22.580        33
22.600        37
22.620        57
22.640        37
22.660        33
22.680        43
22.700        20
22.720        50
22.740        30
22.760        27
22.780        50
22.800        40
22.820        50
22.840        20
22.860        27
22.880        37
22.900        23
22.920        33
22.940        33
22.960        40
22.980         7
23.000        43
23.020        43
23.040        33
23.060        17
23.080        23
23.100        33
23.120        33
23.140        43
23.160        13
23.180        47
23.200        40
23.220        30
23.240        30
23.260        37
23.280        30
23.300        27
23.320        27
23.340        37
23.360        30
23.380        43
23.400        37
23.420        23
23.440        47
23.460        23
23.480        27
23.500        27
23.520        53
23.540        23
23.560        23
23.580        23
23.600        23
23.620        43
23.640        43
23.660        17
23.680        20
23.700         7
23.720        37
23.740        47
23.760        40
23.780        33
23.800        37
23.820        40
23.840        30
23.860        30
23.880        27
23.900        40
23.920        17
23.940        40
23.960        37
23.980        13
24.000        33
24.020        37
24.040        37
24.060        33
24.080        37
24.100        27
24.120        20
24.140        33
24.160        37
24.180        37
24.200        17
24.220        40
24.240        20
24.260        40
24.280        20
24.300        20
24.320        33
24.340        17
24.360        17
24.380        53
24.400        33
24.420        37
24.440        30
24.460        27
24.480        27
24.500         3
24.520        20
24.540        20
24.560        33
24.580        33
24.600        40
24.620        33
24.640        13
24.660        33
24.680        20
24.700        27
24.720        57
24.740        27
24.760        23
24.780        40
24.800        53
24.820        43
24.840        20
24.860        30
24.880        27
24.900        50
24.920        27
24.940        17
24.960        13
24.980        23
25.000        27
25.020        40
25.040        43
25.060        43
25.080        33
25.100        30
25.120        37
25.140        50
25.160        27
25.180        20
25.200        37
25.220        27
25.240        50
25.260        50
25.280        43
25.300        40
25.320        43
25.340        47
25.360        53
25.380        60
25.400        47
25.420        83
25.440        83
25.460        80
25.480        73
25.500       117
25.520       243
25.540       473
25.560       846
25.580       950
25.600       993
25.620       883
25.640       613
25.660       490
25.680       320
25.700       183
25.720       137
25.740        70
25.760        57
25.780        43
25.800        37
25.820        67
25.840        50
25.860        40
25.880        27
25.900        47
25.920        37
25.940        33
25.960        40
25.980        23
26.000        37
26.020        60
26.040        37
26.060        20
26.080        33
26.100        33
26.120        30
26.140        33
26.160        23
26.180        23
26.200        37
26.220        43
26.240        53
26.260        47
26.280        27
26.300        13
26.320        43
26.340        13
26.360        30
26.380        20
26.400        30
26.420        27
26.440        47
26.460        17
26.480        30
26.500         7
26.520        23
26.540        33
26.560        23
26.580        20
26.600        33
26.620        43
26.640        23
26.660        37
26.680        33
26.700        27
26.720        33
26.740        23
26.760        50
26.780        23
26.800        33
26.820        37
26.840        23
26.860        27
26.880        17
26.900        13
26.920        33
26.940        23
26.960        17
26.980        20
27.000        40
27.020        47
27.040        17
27.060        30
27.080        13
27.100        23
27.120        50
27.140        10
27.160        27
27.180        43
27.200        47
27.220        23
27.240        10
27.260        27
27.280        10
27.300        33
27.320        50
27.340        27
27.360        27
27.380        20
27.400        43
27.420        23
27.440        13
27.460        30
27.480        13
27.500        23
27.520        23
27.540        10
27.560        30
27.580        33
27.600        40
27.620        20
27.640        13
27.660        47
27.680        27
27.700        30
27.720        33
27.740        33
27.760        13
27.780         7
27.800        30
27.820        37
27.840        27
27.860        23
27.880        33
27.900        27
27.920        30
27.940        33
27.960        53
27.980        33
28.000        47
28.020        33
28.040        57
28.060        10
28.080        37
28.100        50
28.120        10
28.140        50
28.160        23
28.180        30
28.200        27
28.220        63
28.240        40
28.260        43
28.280        30
28.300        23
28.320        23
28.340        43
28.360        37
28.380        30
28.400        50
28.420        30
28.440        20
28.460        37
28.480        30
28.500        30
28.520        23
28.540        47
28.560        50
28.580        30
28.600        30
28.620        23
28.640        30
28.660        50
28.680        50
28.700        57
28.720        77
28.740        83
28.760        93
28.780       113
28.800        90
28.820       160
28.840       170
28.860       173
28.880       230
28.900       277
28.920       287
28.940       333
28.960       300
28.980       340
29.000       280
29.020       327
29.040       240
29.060       237
29.080       227
29.100       267
29.120       160
29.140       240
29.160       140
29.180       180
29.200       143
29.220       153
29.240       130
29.260        87
29.280        80
29.300        90
29.320        60
29.340        63
29.360        80
29.380        40
29.400        50
29.420        53
29.440        50
29.460        40
29.480        47
29.500        30
29.520        23
29.540        20
29.560        43
29.580        27
29.600        30
29.620        30
29.640        27
29.660        47
29.680        13
29.700        33
29.720        40
29.740        13
29.760        27
29.780        23
29.800        10
29.820        23
29.840        30
29.860        33
29.880        50
29.900        33
29.920        30
29.940        33
29.960        37
29.980        27
30.000         7
30.020        17
30.040        33
30.060        20
30.080        17
30.100        13
30.120        20
30.140        27
30.160        23
30.180        27
30.200        20
30.220        37
30.240        43
30.260        33
30.280        43
30.300        20
30.320        13
30.340         7
30.360        23
30.380        27
30.400        20
30.420        10
30.440        30
30.460        30
30.480        30
30.500        23
30.520        20
30.540        37
30.560        27
30.580        23
30.600        20
30.620        20
30.640        17
30.660        37
30.680        43
30.700        37
30.720        57
30.740        17
30.760        33
30.780        30
30.800        10
30.820        17
30.840        33
30.860        20
30.880        13
30.900        23
30.920        27
30.940        23
30.960        27
30.980        17
31.000        30
31.020        33
31.040        40
31.060        50
31.080        30
31.100        37
31.120        20
31.140        30
31.160        17
31.180        23
31.200        20
31.220        37
31.240        57
31.260        30
31.280        40
31.300        30
31.320        33
31.340        50
31.360        43
31.380        30
31.400        63
31.420        50
31.440        53
31.460        57
31.480        63
31.500        83
31.520        50
31.540        53
31.560        50
31.580        57
31.600        47
31.620        53
31.640        37
31.660        67
31.680        40
31.700        50
31.720        50
31.740        50
31.760        43
31.780        33
31.800         7
31.820        30
31.840        17
31.860        47
31.880        27
31.900        13
31.920        37
31.940        27
31.960        30
31.980        33
32.000        30
32.020        10
32.040        20
32.060        27
32.080        23
32.100        33
32.120        33
32.140        27
32.160        37
32.180        33
32.200        43
32.220        23
32.240        33
32.260        30
32.280        53
32.300        23
32.320        27
32.340        13
32.360        37
32.380        40
32.400        23
32.420        40
32.440        13
32.460        20
32.480        27
32.500        47
32.520        43
32.540        30
32.560        57
32.580        63
32.600        47
32.620        43
32.640        63
32.660        83
32.680        50
32.700        50
32.720        40
32.740        60
32.760        33
32.780        37
32.800        37
32.820        40
32.840        23
32.860        30
32.880        23
32.900        47
32.920        30
32.940        30
32.960        20
32.980        33
33.000        20
33.020        30
33.040        17
33.060        23
33.080         7
33.100        17
33.120        27
33.140        40
33.160        13
33.180        17
33.200        30
33.220        20
33.240        23
33.260         3
33.280        23
33.300         7
33.320        13
33.340        17
33.360        17
33.380        33
33.400        17
33.420        20
33.440        27
33.460        13
33.480        30
33.500        10
33.520        20
33.540        23
33.560        17
33.580        20
33.600         7
33.620        30
33.640        23
33.660        27
33.680        17
33.700        23
33.720        17
33.740        17
33.760        13
33.780        13
33.800        17
33.820        30
33.840        20
33.860        23
33.880        20
33.900        23
33.920        17
33.940        10
33.960        23
33.980        13
34.000        27
34.020        23
34.040        40
34.060        17
34.080        17
34.100        30
34.120        27
34.140        10
34.160        13
34.180        10
34.200        13
34.220        13
34.240        20
34.260        43
34.280        13
34.300        13
34.320        10
34.340        27
34.360        20
34.380        40
34.400        23
34.420        13
34.440        37
34.460        17
34.480        27
34.500        10
34.520        20
34.540         7
34.560        20
34.580        37
34.600         7
34.620        20
34.640         7
34.660        13
34.680        17
34.700        27
34.720        17
34.740        20
34.760        13
34.780        27
34.800        17
34.820        23
34.840        30
34.860        23
34.880        10
34.900        10
34.920        20
34.940        13
34.960        17
34.980        13
35.000        23
35.020        30
35.040        30
35.060        17
35.080         7
35.100        30
35.120        13
35.140        20
35.160        23
35.180        23
35.200        13
35.220        27
35.240        13
35.260        17
35.280        30
35.300        13
35.320         7
35.340        17
35.360        13
35.380         7
35.400        10
35.420        23
35.440        27
35.460        13
35.480        20
35.500        17
35.520        13
35.540        13
35.560        27
35.580        10
35.600        30
35.620         7
35.640        20
35.660        13
35.680        17
35.700        37
35.720        13
35.740        27
35.760        10
35.780        13
35.800        13
35.820        27
35.840        17
35.860        10
35.880         7
35.900        20
35.920        20
35.940        17
35.960        13
35.980        20
36.000        27
36.020        27
36.040        17
36.060        20
36.080        10
36.100        30
36.120        13
36.140        17
36.160        40
36.180        47
36.200        20
36.220        17
36.240        17
36.260        33
36.280        30
36.300        20
36.320        23
36.340        40
36.360        30
36.380        30
36.400        33
36.420        40
36.440        40
36.460        37
36.480        37
36.500        33
36.520        43
36.540        33
36.560        30
36.580        27
36.600        13
36.620         3
36.640        47
36.660        37
36.680        23
36.700        27
36.720         7
36.740        23
36.760        17
36.780        30
36.800        13
36.820        13
36.840        20
36.860        17
36.880        10
36.900        10
36.920        30
36.940        10
36.960        13
36.980        23
37.000        17
37.020        10
37.040        13
37.060        13
37.080        23
37.100         7
37.120        20
37.140        20
37.160        13
37.180         7
37.200        20
37.220        20
37.240        17
37.260        20
37.280        13
37.300         7
37.320        30
37.340        17
37.360        17
37.380         3
37.400        10
37.420        23
37.440        20
37.460        20
37.480        10
37.500        33
37.520        47
37.540        23
37.560        20
37.580        13
37.600        13
37.620         3
37.640        27
37.660        13
37.680        13
37.700        10
37.720        10
37.740        10
37.760        10
37.780        20
37.800        10
37.820        17
37.840         3
37.860        30
37.880        10
37.900        10
37.920         7
37.940        20
37.960        17
37.980        13
38.000        10
38.020        10
38.040        10
38.060        10
38.080        20
38.100        17
38.120        20
38.140        17
38.160        13
38.180        10
38.200        23
38.220        23
38.240        17
38.260        27
38.280        23
38.300         3
38.320        20
38.340        13
38.360        17
38.380        17
38.400        13
38.420        13
38.440        13
38.460        13
38.480        17
38.500        10
38.520        13
38.540        13
38.560        27
38.580        20
38.600        27
38.620        13
38.640        17
38.660        13
38.680        40
38.700        13
38.720        20
38.740        17
38.760        23
38.780         7
38.800        20
38.820        17
38.840        27
38.860        10
38.880        23
38.900        13
38.920        17
38.940        10
38.960        13
38.980        27
39.000         3
39.020        23
39.040        23
39.060        13
39.080        13
39.100        30
39.120        30
39.140        20
39.160        20
39.180        17
39.200        17
39.220        10
39.240        10
39.260         3
39.280        17
39.300        30
39.320        20
39.340        17
39.360        17
39.380        23
39.400        13
39.420        20
39.440        23
39.460        23
39.480         7
39.500        13
39.520        23
39.540        13
39.560        23
39.580        17
39.600        33
39.620        43
39.640        10
39.660        10
39.680         7
39.700        17
39.720        20
39.740        23
39.760        20
39.780        17
39.800        27
39.820        20
39.840        27
39.860        13
39.880        20
39.900        27
39.920        17
39.940        23
39.960        43
39.980        27
40.000        30
40.020        33
40.040        30
40.060        23
40.080        20
40.100        33
40.120        30
40.140        20
40.160        30
40.180         7
40.200        57
40.220        23
40.240        27
40.260        37
40.280        30
40.300        50
40.320         7
40.340        37
40.360        23
40.380        30
40.400        33
40.420        10
40.440        17
40.460        20
40.480        27
40.500        20
40.520        40
40.540        33
40.560        23
40.580        20
40.600        20
40.620        23
40.640        20
40.660        13
40.680        23
40.700         7
40.720        10
40.740        10
40.760        20
40.780        17
40.800        17
40.820        20
40.840        10
40.860         3
40.880        17
40.900        13
40.920        20
40.940        13
40.960        10
40.980        17
41.000        23
41.020        17
41.040         7
41.060        10
41.080         3
41.100        17
41.120        13
41.140        17
41.160        10
41.180        13
41.200        10
41.220        27
41.240        13
41.260        13
41.280        30
41.300         7
41.320        17
41.340        27
41.360        20
41.380         7
41.400        13
41.420        40
41.440        17
41.460        23
41.480        20
41.500        17
41.520        17
41.540        17
41.560        17
41.580        27
41.600        13
41.620         0
41.640        10
41.660        23
41.680         7
41.700        20
41.720        17
41.740        33
41.760        23
41.780        23
41.800        13
41.820        13
41.840        13
41.860        20
41.880        23
41.900        27
41.920        13
41.940        13
41.960        17
41.980        20
42.000        10
42.020         0
42.040        13
42.060        20
42.080        17
42.100        10
42.120        10
42.140        17
42.160        30
42.180        10
42.200        20
42.220        17
42.240        20
42.260        13
42.280        27
42.300        30
42.320        27
42.340        30
42.360        13
42.380        10
42.400         7
42.420        23
42.440        20
42.460        30
42.480        27
42.500        20
42.520        17
42.540        17
42.560        27
42.580        13
42.600        20
42.620        20
42.640        27
42.660        23
42.680        27
42.700        17
42.720        23
42.740        33
42.760        17
42.780        37
42.800        33
42.820        10
42.840        17
42.860        17
42.880        13
42.900        27
42.920         7
42.940        33
42.960        37
42.980        23
43.000        17
43.020        20
43.040        20
43.060        23
43.080        10
43.100        33
43.120        20
43.140         7
43.160        27
43.180        17
43.200        20
43.220        13
43.240         7
43.260        17
43.280        20
43.300        20
43.320        20
43.340        10
43.360        23
43.380        13
43.400        20
43.420        17
43.440        27
43.460         3
43.480        20
43.500        20
43.520        17
43.540         7
43.560         0
43.580        30
43.600        13
43.620        17
43.640        10
43.660        10
43.680        10
43.700        10
43.720        10
43.740        30
43.760        20
43.780        20
43.800        30
43.820        10
43.840        27
43.860        37
43.880        23
43.900        20
43.920        20
43.940        23
43.960        17
43.980        13
44.000        10
44.020        17
44.040        27
44.060        10
44.080        30
44.100        30
44.120        17
44.140        47
44.160        40
44.180        43
44.200        37
44.220        43
44.240        27
44.260        33
44.280        43
44.300        33
44.320        23
44.340        27
44.360        23
44.380        50
44.400        33
44.420        23
44.440        33
44.460        20
44.480        33
44.500        13
44.520        17
44.540        17
44.560        17
44.580        20
44.600        23
44.620        23
44.640        43
44.660        20
44.680        20
44.700        17
44.720        17
44.740        13
44.760        20
44.780        27
44.800        23
44.820        17
44.840        20
44.860        13
44.880         0
44.900        10
44.920        23
44.940        10
44.960        17
44.980        17
45.000        33
45.020        17
45.040        30
45.060        13
45.080        20
45.100        27
45.120        27
45.140        13
45.160        27
45.180        10
45.200         7
45.220        17
45.240        23
45.260        10
45.280        30
45.300         7
45.320        13
45.340        20
45.360        13
45.380        13
45.400        17
45.420        10
45.440        33
45.460        30
45.480        20
45.500        10
45.520        33
45.540        40
45.560        23
45.580        10
45.600        40
45.620        13
45.640        27
45.660        23
45.680        30
45.700        30
45.720        43
45.740        13
45.760        37
45.780        30
45.800        43
45.820        33
45.840        60
45.860        47
45.880        27
45.900        23
45.920        37
45.940        53
45.960        47
45.980        13
46.000        67
46.020        40
46.040        37
46.060        33
46.080        23
46.100        37
46.120        37
46.140        43
46.160        43
46.180        20
46.200        17
46.220        33
46.240        20
46.260        40
46.280        20
46.300        23
46.320        20
46.340        27
46.360        13
46.380        33
46.400        23
46.420        20
46.440        27
46.460        17
46.480        27
46.500        17
46.520        30
46.540        50
46.560        30
46.580        23
46.600        30
46.620        30
46.640        43
46.660        33
46.680        33
46.700        37
46.720        40
46.740        37
46.760        33
46.780        50
46.800        47
46.820        37
46.840        43
46.860        43
46.880        37
46.900        53
46.920        37
46.940        23
46.960        37
46.980        17
47.000        20
47.020        13
47.040        27
47.060         3
47.080         7
47.100        27
47.120        33
47.140        37
47.160        43
47.180        40
47.200        37
47.220        57
47.240        37
47.260        37
47.280        27
47.300        40
47.320        27
47.340        33
47.360        17
47.380        17
47.400        23
47.420        33
47.440         0
47.460        23
47.480        23
47.500        27
47.520        17
47.540        23
47.560        10
47.580        10
47.600        27
47.620        23
47.640        10
47.660        37
47.680        30
47.700        13
47.720        20
47.740        23
47.760        17
47.780         7
47.800        17
47.820        20
47.840        23
47.860        13
47.880        17
47.900        23
47.920        17
47.940        17
47.960        27
47.980        23
48.000        23
48.020        13
48.040        27
48.060        13
48.080        27
48.100        20
48.120        20
48.140        23
48.160        23
48.180        27
48.200        23
48.220        30
48.240        13
48.260        27
48.280        13
48.300        17
48.320        20
48.340        40
48.360        27
48.380        20
48.400        23
48.420        33
48.440        17
48.460        23
48.480        13
48.500        20
48.520        13
48.540        13
48.560        27
48.580        13
48.600        23
48.620         7
48.640        37
48.660         7
48.680        20
48.700        13
48.720        20
48.740         7
48.760        13
48.780        17
48.800        17
48.820        27
48.840        17
48.860        27
48.880        20
48.900        10
48.920        10
48.940        23
48.960        27
48.980        17
49.000        23
49.020        13
49.040        17
49.060        40
49.080        23
49.100        10
49.120         0
49.140        23
49.160        23
49.180        27
49.200        23
49.220        30
49.240         7
49.260         7
49.280        17
49.300        13
49.320        17
49.340         7
49.360        30
49.380        23
49.400        23
49.420        33
49.440        23
49.460        27
49.480        27
49.500        20
49.520        20
49.540        17
49.560        23
49.580        17
49.600        20
49.620        20
49.640        30
49.660        13
49.680        33
49.700        27
49.720        33
49.740        13
49.760        37
49.780        70
49.800        37
49.820        67
49.840        43
49.860        40
49.880        50
49.900        27
49.920        47
49.940        33
49.960        33
49.980        23
50.000        30
50.020        40
50.040        53
50.060        60
50.080        33
50.100        43
50.120        40
50.140        37
50.160        43
50.180        30
50.200        40
50.220        27
50.240        57
50.260        37
50.280        30
50.300        20
50.320        37
50.340        30
50.360        17
50.380        23
50.400        17
50.420        27
50.440        27
50.460        13
50.480        20
50.500        30
50.520        13
50.540        27
50.560        20
50.580        20
50.600        33
50.620        23
50.640        37
50.660        20
50.680        40
50.700        40
50.720        57
50.740        23
50.760        30
50.780        33
50.800        23
50.820        43
50.840        63
50.860        33
50.880        50
50.900        40
50.920        57
50.940        40
50.960        47
50.980        27
51.000        33
51.020        47
51.040        47
51.060        30
51.080        63
51.100        33
51.120        47
51.140        30
51.160        80
51.180        37
51.200        47
51.220        37
51.240        60
51.260        57
51.280        47
51.300        63
51.320        77
51.340        47
51.360        50
51.380        47
51.400        30
51.420        53
51.440        53
51.460        43
51.480        60
51.500        40
51.520        47
51.540        57
51.560        53
51.580        43
51.600        60
51.620        43
51.640        60
51.660        30
51.680        40
51.700        40
51.720        33
51.740        47
51.760        63
51.780        73
51.800        33
51.820        30
51.840        63
51.860        43
51.880        70
51.900        57
51.920        83
51.940        73
51.960        53
51.980        57
52.000        70
52.020        83
52.040        70
52.060        77
52.080        83
52.100       103
52.120        77
52.140        97
52.160       107
52.180        70
52.200        83
52.220       127
52.240       107
52.260       187
52.280       167
52.300       173
52.320       183
52.340       200
52.360       227
52.380       327
52.400       313
52.420       450
52.440       520
52.460       843
52.480      1509
52.500      3082
52.520      5385
52.540      7044
52.560      7594
52.580      6684
52.600      5118
52.620      3928
52.640      4275
52.660      5305
52.680      6204
52.700      5921
52.720      4322
52.740      3192
52.760      1963
52.780      1589
52.800      1593
52.820      1583
52.840      1160
52.860       783
52.880       423
52.900       283
52.920       203
52.940       163
52.960       130
52.980       153
53.000       127
53.020       127
53.040       130
53.060       107
53.080        87
53.100        50
53.120       100
53.140        57
53.160        67
53.180        80
53.200        77
53.220       110
53.240        63
53.260        47
53.280        87
53.300        60
53.320        90
53.340        90
53.360        47
53.380        53
53.400        60
53.420        60
53.440        60
53.460        63
53.480        50
53.500        50
53.520        43
53.540        63
53.560        47
53.580        50
53.600        50
53.620        70
53.640        50
53.660        57
53.680        47
53.700        40
53.720        43
53.740        43
53.760        53
53.780        67
53.800        53
53.820        50
53.840        47
53.860        33
53.880        63
53.900        47
53.920        50
53.940        40
53.960        40
53.980        67
54.000        53
54.020        43
54.040        27
54.060        40
54.080        50
54.100        20
54.120        53
54.140        47
54.160        60
54.180        57
54.200        57
54.220        67
54.240        40
54.260        40
54.280        30
54.300        43
54.320        57
54.340        57
54.360        67
54.380        40
54.400        67
54.420        60
54.440        50
54.460        63
54.480        53
54.500        37
54.520        63
54.540        80
54.560        67
54.580        57
54.600        87
54.620        47
54.640        33
54.660        47
54.680        47
54.700        57
54.720        63
54.740        43
54.760        60
54.780        47
54.800        50
54.820        57
54.840        60
54.860       110
54.880        73
54.900        43
54.920        17
54.940        37
54.960        60
54.980        37
55.000        57
55.020        40
55.040        40
55.060        37
55.080        37
55.100        33
55.120        43
55.140        47
55.160        47
55.180        43
55.200        33
55.220        40
55.240        50
55.260        33
55.280        37
55.300        33
55.320        60
55.340        53
55.360        53
55.380        30
55.400        17
55.420        47
55.440        37
55.460        33
55.480        47
55.500        37
55.520        43
55.540        40
55.560        40
55.580        27
55.600        27
55.620        37
55.640        40
55.660        33
55.680        40
55.700        40
55.720        20
55.740        30
55.760        40
55.780        57
55.800        40
55.820        33
55.840        43
55.860        60
55.880        40
55.900        20
55.920        53
55.940        30
55.960        33
55.980        40
56.000        43
56.020        30
56.040        33
56.060        43
56.080        47
56.100        40
56.120        33
56.140        57
56.160        30
56.180        37
56.200        50
56.220        37
56.240        27
56.260        33
56.280        30
56.300        40
56.320        33
56.340        27
56.360        43
56.380        43
56.400        33
56.420        43
56.440        57
56.460        30
56.480        30
56.500        47
56.520        57
56.540        43
56.560        43
56.580        50
56.600        47
56.620        37
56.640        73
56.660        47
56.680        60
56.700        50
56.720        70
56.740        33
56.760        37
56.780        33
56.800        43
56.820        33
56.840        47
56.860        70
56.880        50
56.900        57
56.920        53
56.940        50
56.960        60
56.980        80
57.000        67
57.020        63
57.040        77
57.060        50
57.080        70
57.100        53
57.120        60
57.140        53
57.160        67
57.180        57
57.200        63
57.220        50
57.240        63
57.260        80
57.280        37
57.300        67
57.320        77
57.340        63
57.360        87
57.380        83
57.400        80
57.420        60
57.440        67
57.460        47
57.480        30
57.500        93
57.520        87
57.540        67
57.560       110
57.580        87
57.600        67
57.620        97
57.640       103
57.660        57
57.680        83
57.700        83
57.720        77
57.740        80
57.760        70
57.780        60
57.800        70
57.820       100
57.840        80
57.860        97
57.880       120
57.900        83
57.920        53
57.940        63
57.960        83
57.980        80
58.000        73
58.020        63
58.040        57
58.060        77
58.080       110
58.100        87
58.120        67
58.140        43
58.160        53
58.180        70
58.200        63
58.220        80
58.240       103
58.260        80
58.280        97
58.300        70
58.320        77
58.340        60
58.360        93
58.380        93
58.400        97
58.420        90
58.440        83
58.460        90
58.480        93
58.500        67
58.520        90
58.540        93
58.560       107
58.580        80
58.600       100
58.620        93
58.640        97
58.660       100
58.680       103
58.700       130
58.720        80
58.740       123
58.760       100
58.780        90
58.800       113
58.820       133
58.840       107
58.860        90
58.880        97
58.900        90
58.920       140
58.940       100
58.960       100
58.980       107
59.000       110
59.020       103
59.040       123
59.060       137
59.080       120
59.100       140
59.120       107
59.140       127
59.160       120
59.180       177
59.200       133
59.220       117
59.240       137
59.260       103
59.280       100
59.300       123
59.320       120
59.340       113
59.360       110
59.380       117
59.400        83
59.420       123
59.440       117
59.460       133
59.480       107
59.500       180
59.520       140
59.540        97
59.560       123
59.580       103
59.600       117
59.620       133
59.640       130
59.660       143
59.680        93
59.700       107
59.720       110
59.740       143
59.760       140
59.780       127
59.800       133
59.820       153
59.840       143
59.860        93
59.880       150
59.900       123
59.920       130
59.940       157
59.960       137
59.980        40
60.000        40
