20.000        20
20.020        20
20.040        37
20.060        43
20.080        63
20.100        30
20.120        63
20.140        50
20.160        30
20.180        30
20.200        73
20.220        57
20.240        30
20.260        30
20.280        43
20.300        50
20.320        53
20.340        30
20.360        57
20.380        27
20.400        33
20.420        33
20.440        37
20.460        57
20.480        57
20.500        43
20.520        37
20.540        43
20.560        60
20.580        83
20.600        57
20.620        53
20.640        50
20.660        23
20.680        13
20.700        43
20.720        33
20.740        37
20.760        40
20.780        33
20.800        40
20.820        43
20.840        53
20.860        30
20.880        33
20.900        50
20.920        40
20.940        33
20.960        63
20.980        43
21.000        47
21.020        20
21.040        27
21.060        57
21.080        13
21.100        60
21.120        27
21.140        47
21.160        47
21.180        53
21.200        43
21.220        30
21.240        27
21.260        27
21.280        53
21.300        40
21.320        40
21.340        37
21.360        43
21.380        50
21.400        67
21.420        47
21.440        30
21.460        43
21.480        33
21.500        30
21.520        47
21.540        20
21.560        37
21.580        17
21.600        27
21.620        27
21.640        43
21.660        43
21.680        33
21.700        27
21.720        20
21.740        37
21.760        37
21.780        50
21.800        20
21.820        27
21.840        37
21.860        47
21.880        27
21.900        33
21.920        37
21.940        50
21.960        37
21.980        23
22.000        33
22.020        30
22.040        33
22.060        37
22.080        27
22.100        23
22.120        37
22.140        47
22.160        37
22.180        27
22.200        27
22.220        27
22.240        43
22.260        43
22.280        37
22.300        37
22.320        33
22.340        47
22.360        27
22.380        37
22.400        33
22.420        37
22.440        40
22.460        30
22.480        43
22.500        57
22.520        30
22.540        40
22.560        43
22.580        37
22.600        17
22.620        27
22.640        43
22.660        60
22.680        53
22.700        73
22.720        40
22.740        47
22.760        43
22.780        40
22.800        37
22.820        30
22.840        53
22.860        33
22.880        33
22.900        40
22.920        27
22.940        37
22.960        53
22.980        50
23.000        17
23.020        33
23.040        10
23.060        53
23.080        43
23.100        40
23.120        40
23.140        30
23.160        37
23.180        57
23.200        33
23.220        33
23.240        40
23.260        23
23.280        50
23.300        17
23.320        27
23.340        37
23.360        40
23.380        47
23.400        33
23.420        30
23.440        57
23.460        40
23.480        20
23.500        40
23.520        20
23.540        27
23.560        37
23.580        27
23.600        17
23.620        27
23.640        40
23.660        30
23.680        27
23.700        27
23.720        37
23.740        43
23.760        37
23.780        33
23.800        20
23.820        33
23.840        47
23.860        27
23.880        40
23.900        27
23.920        33
23.940        30
23.960        40
23.980        43
24.000        33
24.020        27
24.040        23
24.060        30
24.080        43
24.100        33
24.120        33
24.140        20
24.160        43
24.180        13
24.200        40
24.220        20
24.240        27
24.260        43
24.280        30
24.300        43
24.320        30
24.340        23
24.360        23
24.380        33
24.400        13
24.420        43
24.440        23
24.460        20
24.480        27
24.500        20
24.520        33
24.540        27
24.560        47
24.580        17
24.600        30
24.620        37
24.640        23
24.660        20
24.680        20
24.700        20
24.720        47
24.740        47
24.760        27
24.780        37
24.800        17
24.820         7
24.840        27
24.860        23
24.880        40
24.900        23
24.920        20
24.940        33
24.960        30
24.980        43
25.000        17
25.020        23
25.040        27
25.060        30
25.080        23
25.100        40
25.120        30
25.140        30
25.160        20
25.180        33
25.200        13
25.220        30
25.240        37
25.260        17
25.280        40
25.300        20
25.320        23
25.340        20
25.360        37
25.380        23
25.400        30
25.420        37
25.440        17
25.460        17
25.480        23
25.500        13
25.520        27
25.540        33
25.560        53
25.580        33
25.600        77
25.620        47
25.640        77
25.660        83
25.680        47
25.700        77
25.720        47
25.740        63
25.760        23
25.780        27
25.800        23
25.820        67
25.840        60
25.860        97
25.880        63
25.900        60
25.920        70
25.940        80
25.960        80
25.980        53
26.000        87
26.020        17
26.040        30
26.060        40
26.080        10
26.100        33
26.120        23
26.140        37
26.160        20
26.180        27
26.200        40
26.220        13
26.240        43
26.260        37
26.280        23
26.300        23
26.320        43
26.340        93
26.360        40
26.380        17
26.400        33
26.420        17
26.440        30
26.460        27
26.480        43
26.500        23
26.520        10
26.540        17
26.560        17
26.580        43
26.600        17
26.620        37
26.640        37
26.660        60
26.680        33
26.700        33
26.720        30
26.740        13
26.760        23
26.780        23
26.800        23
26.820        37
26.840        30
26.860        17
26.880        33
26.900        37
26.920        50
26.940        40
26.960        30
26.980        17
27.000        30
27.020        20
27.040        37
27.060        37
27.080        33
27.100        27
27.120        27
27.140        33
27.160        30
27.180        13
27.200        33
27.220        27
27.240        40
27.260        27
27.280        27
27.300        27
27.320        13
27.340        33
27.360        23
27.380        30
27.400        27
27.420        30
27.440        67
27.460        10
27.480        17
27.500        37
27.520        33
27.540        27
27.560        17
27.580        27
27.600        30
27.620        23
27.640        13
27.660        37
27.680        23
27.700        23
27.720        30
27.740        33
27.760        37
27.780        20
27.800        57
27.820        40
27.840        27
27.860        33
27.880        30
27.900        40
27.920        40
27.940        33
27.960        47
27.980        33
28.000        17
28.020        27
28.040        13
28.060        33
28.080        27
28.100        43
28.120        20
28.140        50
28.160        30
28.180        30
28.200        13
28.220        23
28.240        20
28.260        30
28.280        37
28.300        20
28.320        17
28.340        30
28.360        17
28.380         3
28.400        47
28.420        20
28.440        27
28.460        30
28.480        20
28.500        20
28.520        23
28.540        40
28.560        13
28.580        17
28.600        40
28.620        30
28.640        20
28.660        13
28.680        23
28.700        30
28.720        43
28.740        50
28.760        33
28.780        33
28.800        17
28.820        47
28.840        57
28.860        50
28.880        53
28.900        60
28.920        60
28.940        63
28.960        47
28.980        80
29.000        83
29.020       107
29.040       100
29.060       107
29.080        93
29.100       117
29.120       107
29.140        93
29.160       123
29.180        93
29.200       123
29.220        73
29.240        83
29.260        77
29.280        33
29.300        60
29.320        60
29.340        63
29.360        33
29.380        57
29.400        60
29.420        37
29.440        23
29.460        33
29.480        50
29.500        23
29.520        27
29.540        37
29.560        43
29.580        47
29.600        43
29.620        47
29.640        80
29.660        50
29.680        70
29.700        87
29.720        70
29.740        80
29.760        67
29.780        30
29.800        47
29.820        43
29.840        20
29.860        37
29.880        33
29.900        17
29.920        30
29.940        20
29.960        20
29.980        40
30.000        37
30.020        20
30.040        23
30.060        20
30.080        23
30.100        13
30.120        33
30.140        17
30.160        23
30.180        27
30.200        20
30.220        17
30.240        30
30.260        33
30.280        40
30.300        17
30.320        13
30.340        23
30.360        50
30.380        10
30.400        20
30.420        17
30.440        30
30.460        30
30.480        23
30.500        13
30.520        30
30.540        33
30.560        40
30.580        33
30.600        30
30.620        47
30.640        17
30.660        50
30.680        67
30.700        43
30.720        13
30.740        27
30.760        17
30.780        30
30.800         7
30.820        40
30.840        33
30.860        20
30.880        23
30.900        30
30.920        37
30.940        50
30.960        10
30.980        30
31.000        30
31.020        13
31.040        27
31.060        23
31.080        20
31.100        13
31.120        27
31.140        17
31.160        23
31.180        37
31.200        40
31.220        33
31.240        40
31.260        17
31.280        27
31.300        17
31.320        43
31.340        30
31.360        33
31.380        30
31.400        30
31.420        33
31.440        40
31.460        23
31.480        23
31.500        20
31.520        27
31.540        17
31.560        23
31.580        20
31.600        37
31.620        23
31.640        27
31.660        33
31.680        23
31.700        17
31.720        17
31.740        30
31.760        23
31.780        13
31.800        33
31.820        10
31.840        43
31.860        13
31.880        13
31.900        40
31.920        23
31.940        10
31.960        10
31.980        20
32.000         3
32.020        23
32.040        33
32.060        17
32.080        23
32.100        20
32.120        50
32.140        30
32.160        30
32.180        30
32.200        40
32.220        33
32.240        33
32.260        37
32.280        67
32.300        73
32.320        57
32.340        37
32.360        63
32.380        40
32.400        40
32.420        43
32.440        40
32.460        27
32.480        27
32.500        27
32.520        13
32.540        13
32.560        33
32.580        27
32.600        30
32.620        17
32.640        27
32.660        43
32.680        17
32.700        23
32.720        10
32.740        30
32.760        20
32.780        23
32.800        30
32.820        47
32.840        30
32.860        30
32.880        23
32.900        33
32.920        47
32.940        10
32.960        20
32.980        17
33.000        20
33.020        20
33.040        13
33.060        27
33.080        30
33.100        30
33.120        27
33.140        17
33.160        30
33.180        27
33.200        17
33.220        17
33.240        23
33.260        30
33.280        27
33.300        23
33.320        37
33.340        23
33.360        23
33.380        20
33.400        17
33.420        23
33.440        20
33.460        30
33.480        20
33.500        10
33.520        13
33.540        17
33.560        27
33.580        23
33.600        13
33.620        23
33.640        23
33.660        27
33.680        17
33.700        33
33.720        20
33.740        17
33.760        17
33.780        13
33.800        30
33.820        23
33.840        13
33.860        20
33.880        20
33.900        13
33.920        10
33.940        23
33.960        13
33.980        10
34.000        20
34.020        17
34.040        13
34.060        27
34.080        17
34.100        13
34.120        17
34.140        23
34.160         7
34.180        20
34.200         7
34.220        20
34.240        20
34.260         7
34.280        17
34.300         0
34.320        20
34.340        40
34.360        20
34.380        33
34.400        17
34.420        10
34.440         3
34.460        30
34.480        20
34.500        13
34.520        30
34.540         7
34.560        10
34.580        27
34.600        23
34.620        23
34.640        23
34.660        27
34.680        20
34.700        27
34.720        33
34.740        13
34.760        17
34.780        20
34.800        27
34.820        13
34.840        20
34.860        27
34.880        30
34.900        10
34.920        30
34.940        17
34.960        37
34.980        20
35.000        23
35.020        10
35.040        10
35.060        23
35.080        30
35.100        20
35.120        20
35.140        30
35.160        33
35.180        33
35.200        53
35.220        43
35.240        30
35.260        37
35.280        30
35.300        23
35.320        17
35.340        33
35.360        23
35.380        17
35.400        23
35.420        20
35.440        20
35.460        23
35.480        33
35.500        23
35.520        17
35.540        17
35.560        27
35.580        23
35.600        10
35.620        13
35.640        20
35.660        13
35.680         7
35.700        23
35.720        27
35.740        20
35.760        17
35.780        13
35.800        17
35.820        17
35.840        10
35.860        23
35.880        30
35.900        17
35.920        10
35.940        37
35.960        13
35.980        33
36.000        27
36.020        13
36.040        20
36.060        17
36.080        17
36.100        30
36.120        23
36.140        30
36.160        17
36.180        23
36.200        20
36.220        20
36.240        20
36.260        17
36.280        20
36.300        13
36.320        40
36.340        20
36.360        17
36.380        40
36.400        17
36.420        23
36.440        23
36.460        23
36.480        37
36.500        20
36.520        43
36.540        30
36.560        37
36.580        23
36.600        23
36.620        17
36.640        20
36.660        17
36.680        20
36.700        27
36.720        27
36.740        20
36.760        10
36.780        20
36.800        23
36.820        30
36.840        17
36.860        20
36.880        17
36.900        33
36.920        20
36.940        13
36.960        10
36.980        20
37.000        33
37.020        23
37.040        13
37.060        27
37.080        27
37.100        20
37.120        13
37.140        37
37.160        10
37.180        20
37.200        13
37.220         3
37.240        17
37.260        20
37.280        23
37.300        23
37.320        20
37.340         7
37.360        23
37.380        20
37.400        23
37.420        27
37.440         7
37.460        17
37.480        30
37.500        20
37.520        17
37.540        33
37.560        17
37.580        27
37.600        20
37.620        13
37.640        40
37.660        20
37.680        13
37.700        10
37.720        10
37.740        13
37.760        17
37.780        23
37.800        33
37.820        23
37.840        33
37.860        37
37.880        60
37.900        43
37.920        27
37.940        27
37.960        33
37.980        50
38.000        30
38.020        37
38.040        13
38.060        27
38.080        27
38.100         0
38.120        33
38.140        30
38.160        30
38.180        20
38.200        20
38.220        27
38.240        23
38.260        10
38.280        20
38.300        10
38.320        30
38.340        27
38.360        13
38.380        13
38.400        33
38.420        33
38.440        23
38.460        20
38.480        27
38.500        20
38.520        20
38.540        20
38.560        13
38.580         7
38.600        17
38.620        17
38.640        23
38.660        13
38.680         7
38.700        17
38.720        27
38.740        10
38.760        23
38.780        17
38.800        13
38.820        10
38.840        37
38.860        13
38.880        23
38.900        17
38.920        37
38.940        23
38.960        23
38.980        27
39.000        20
39.020        17
39.040        17
39.060        20
39.080        13
39.100        23
39.120        23
39.140        27
39.160        30
39.180        30
39.200        10
39.220        17
39.240        20
39.260        17
39.280        23
39.300        17
39.320        17
39.340        23
39.360        23
39.380        17
39.400        13
39.420        37
39.440        17
39.460        13
39.480        37
39.500        20
39.520        20
39.540        20
39.560        13
39.580        23
39.600        13
39.620        30
39.640        40
39.660        17
39.680        20
39.700        30
39.720        20
39.740        13
39.760        37
39.780         0
39.800        13
39.820        27
39.840        13
39.860        20
39.880        20
39.900        20
39.920        17
39.940        10
39.960        13
39.980        23
40.000        30
40.020        10
40.040        37
40.060        23
40.080        30
40.100        23
40.120        37
40.140        30
40.160        50
40.180        23
40.200        33
40.220        30
40.240        33
40.260        17
40.280        13
40.300        30
40.320        33
40.340        20
40.360        37
40.380        13
40.400        17
40.420        20
40.440        33
40.460         7
40.480        20
40.500        13
40.520        27
40.540        30
40.560        10
40.580        13
40.600        20
40.620        17
40.640        13
40.660        20
40.680        30
40.700        17
40.720        13
40.740        10
40.760        17
40.780        10
40.800        17
40.820        13
40.840        17
40.860        17
40.880        30
40.900        10
40.920        33
40.940        17
40.960        17
40.980        17
41.000        13
41.020        20
41.040        27
41.060         7
41.080        17
41.100        23
41.120        17
41.140        10
41.160        20
41.180         7
41.200        37
41.220        13
41.240        17
41.260        13
41.280        13
41.300        20
41.320        30
41.340        17
41.360        13
41.380        40
41.400        20
41.420        20
41.440        17
41.460        13
41.480        27
41.500        33
41.520        33
41.540        30
41.560        43
41.580        23
41.600        40
41.620        47
41.640        43
41.660        33
41.680        63
41.700        67
41.720       107
41.740       177
41.760       140
41.780       147
41.800       140
41.820       117
41.840       123
41.860        67
41.880        80
41.900       103
41.920        93
41.940        37
41.960        23
41.980        20
42.000        30
42.020        30
42.040        17
42.060        30
42.080        27
42.100         3
42.120        10
42.140        17
42.160        27
42.180        30
42.200        27
42.220        17
42.240        17
42.260        23
42.280        20
42.300        23
42.320        10
42.340        13
42.360        17
42.380        33
42.400        37
42.420        27
42.440        23
42.460        27
42.480        37
42.500        23
42.520        40
42.540        40
42.560        17
42.580        30
42.600        27
42.620        33
42.640        27
42.660        20
42.680        43
42.700        33
42.720        23
42.740        37
42.760        27
42.780        17
42.800        27
42.820        17
42.840        30
42.860        13
42.880        20
42.900        33
42.920        27
42.940        27
42.960        27
42.980        23
43.000        13
43.020        17
43.040        23
43.060        20
43.080        27
43.100        37
43.120        37
43.140        30
43.160        10
43.180        23
43.200        23
43.220         0
43.240        20
43.260        13
43.280        20
43.300        43
43.320        30
43.340        20
43.360        17
43.380        43
43.400        53
43.420       103
43.440       207
43.460       287
43.480       267
43.500       290
43.520       107
43.540        73
43.560       100
43.580       223
43.600       183
43.620       123
43.640        50
43.660        33
43.680        27
43.700        43
43.720        20
43.740        27
43.760        20
43.780        20
43.800        30
43.820        17
43.840        13
43.860        20
43.880        13
43.900        33
43.920        17
43.940        30
43.960        13
43.980        23
44.000        10
44.020        37
44.040        20
44.060        20
44.080        20
44.100        13
44.120        13
44.140        37
44.160        17
44.180        20
44.200        30
44.220        23
44.240        33
44.260        37
44.280        23
44.300        23
44.320        23
44.340        37
44.360        27
44.380        17
44.400        30
44.420        30
44.440        40
44.460        23
44.480        17
44.500        33
44.520        30
44.540        23
44.560        23
44.580         7
44.600         7
44.620        20
44.640        10
44.660        13
44.680        17
44.700        13
44.720        23
44.740        27
44.760        23
44.780        13
44.800        27
44.820        20
44.840        13
44.860        23
44.880        23
44.900        17
44.920         0
44.940         7
44.960         7
44.980        10
45.000        17
45.020        17
45.040        17
45.060        17
45.080        13
45.100        10
45.120        27
45.140        30
45.160        17
45.180        20
45.200        13
45.220        20
45.240        20
45.260        17
45.280        17
45.300        10
45.320        10
45.340        13
45.360        20
45.380        27
45.400        30
45.420        33
45.440        13
45.460         7
45.480        20
45.500        13
45.520        37
45.540        37
45.560        20
45.580        20
45.600        20
45.620        17
45.640        33
45.660         3
45.680        10
45.700        33
45.720        10
45.740        13
45.760         7
45.780        27
45.800        20
45.820        43
45.840        23
45.860        17
45.880        17
45.900        20
45.920        17
45.940        20
45.960        27
45.980        23
46.000        27
46.020        20
46.040         7
46.060        20
46.080        27
46.100         7
46.120        30
46.140        40
46.160        23
46.180        30
46.200        23
46.220        23
46.240        27
46.260        27
46.280        57
46.300        40
46.320        17
46.340        33
46.360        27
46.380        27
46.400        33
46.420        23
46.440        27
46.460        23
46.480        13
46.500        17
46.520        43
46.540        33
46.560        13
46.580        10
46.600        33
46.620        13
46.640         7
46.660        27
46.680        13
46.700        10
46.720        13
46.740        30
46.760        17
46.780        10
46.800        13
46.820        17
46.840        27
46.860        20
46.880        13
46.900        20
46.920        33
46.940         7
46.960        30
46.980        23
47.000        17
47.020        10
47.040        20
47.060        13
47.080        27
47.100        13
47.120        13
47.140        37
47.160        17
47.180        23
47.200        37
47.220        17
47.240        27
47.260         7
47.280        23
47.300        13
47.320        13
47.340        23
47.360        23
47.380        10
47.400        20
47.420        10
47.440        23
47.460        23
47.480        13
47.500        13
47.520        13
47.540        30
47.560        20
47.580        13
47.600         3
47.620        13
47.640         7
47.660        40
47.680        23
47.700        23
47.720        17
47.740        17
47.760        13
47.780        33
47.800        20
47.820        10
47.840        20
47.860        20
47.880        27
47.900        33
47.920        17
47.940        17
47.960        23
47.980        33
48.000        30
48.020        17
48.040        20
48.060        27
48.080        30
48.100        17
48.120        10
48.140         3
48.160        17
48.180        20
48.200        37
48.220        10
48.240        17
48.260        47
48.280        23
48.300        13
48.320        17
48.340        17
48.360        10
48.380        27
48.400        20
48.420        20
48.440        27
48.460        20
48.480        20
48.500        10
48.520        17
48.540        10
48.560         7
48.580        17
48.600        13
48.620        17
48.640         3
48.660        10
48.680        23
48.700        13
48.720        10
48.740        20
48.760        17
48.780         3
48.800        27
48.820         7
48.840        10
48.860        10
48.880        20
48.900        23
48.920         3
48.940        17
48.960        10
48.980        17
49.000        13
49.020        13
49.040        23
49.060        27
49.080        23
49.100        13
49.120        23
49.140        13
49.160        40
49.180        13
49.200        17
49.220        23
49.240        30
49.260        37
49.280        30
49.300        23
49.320        43
49.340        17
49.360        17
49.380        10
49.400        17
49.420        13
49.440        23
49.460        13
49.480         7
49.500        17
49.520        13
49.540        23
49.560        10
49.580        13
49.600        20
49.620        13
49.640        17
49.660        17
49.680         3
49.700        27
49.720        23
49.740        37
49.760        13
49.780        13
49.800        23
49.820        13
49.840        27
49.860        20
49.880        20
49.900         7
49.920        37
49.940        10
49.960        20
49.980        17
50.000        43
50.020        13
50.040        23
50.060        10
50.080        13
50.100        17
50.120        20
50.140        20
50.160        30
50.180        17
50.200        13
50.220        10
50.240        30
50.260        37
50.280        30
50.300         7
50.320        10
50.340        20
50.360        20
50.380        10
50.400        20
50.420        27
50.440        13
50.460        13
50.480        20
50.500        13
50.520        30
50.540        13
50.560        17
50.580        27
50.600        13
50.620        23
50.640        10
50.660        20
50.680        13
50.700        23
50.720        10
50.740        23
50.760        17
50.780        17
50.800        17
50.820        20
50.840        17
50.860         7
50.880        17
50.900        17
50.920        13
50.940         7
50.960        30
50.980        13
51.000        13
51.020        13
51.040        20
51.060         7
51.080        10
51.100        23
51.120        20
51.140        17
51.160        10
51.180        23
51.200        17
51.220        13
51.240        17
51.260        27
51.280        10
51.300        10
51.320        23
51.340         0
51.360        17
51.380        10
51.400        23
51.420        23
51.440        17
51.460        20
51.480        27
51.500        23
51.520        10
51.540        13
51.560        13
51.580        10
51.600        20
51.620        20
51.640        10
51.660        10
51.680        10
51.700        10
51.720        23
51.740        23
51.760        23
51.780        30
51.800        27
51.820        17
51.840        20
51.860        13
51.880        13
51.900        30
51.920        27
51.940        40
51.960        10
51.980        27
52.000        30
52.020        40
52.040        23
52.060        20
52.080        37
52.100        60
52.120        50
52.140        40
52.160        43
52.180        60
52.200        30
52.220        40
52.240        27
52.260        33
52.280        20
52.300        17
52.320        37
52.340        30
52.360        20
52.380        27
52.400        10
52.420        17
52.440        20
52.460        20
52.480        30
52.500        20
52.520        20
52.540         7
52.560        27
52.580        20
52.600        27
52.620        33
52.640        33
52.660        30
52.680        33
52.700        37
52.720        37
52.740        23
52.760        20
52.780         7
52.800        30
52.820        43
52.840        27
52.860        10
52.880        20
52.900        33
52.920        17
52.940        33
52.960        17
52.980        17
53.000        17
53.020        13
53.040        37
53.060        10
53.080        23
53.100        23
53.120        20
53.140        13
53.160        27
53.180        23
53.200        20
53.220         3
53.240        30
53.260         7
53.280        10
53.300        20
53.320         7
53.340        20
53.360        17
53.380        20
53.400         3
53.420        27
53.440        13
53.460        30
53.480        27
53.500        10
53.520         0
53.540         7
53.560        10
53.580        10
53.600         3
53.620        20
53.640         7
53.660         7
53.680         7
53.700        20
53.720        17
53.740        13
53.760        30
53.780         7
53.800        13
53.820        23
53.840        30
53.860        10
53.880        37
53.900        30
53.920        20
53.940        20
53.960        20
53.980        23
54.000        17
54.020        27
54.040        17
54.060        23
54.080        20
54.100        23
54.120        20
54.140        17
54.160        17
54.180        13
54.200        27
54.220        23
54.240        20
54.260        13
54.280        37
54.300        10
54.320        27
54.340        13
54.360        20
54.380        23
54.400        23
54.420        23
54.440        13
54.460        27
54.480        27
54.500        23
54.520         7
54.540        27
54.560        20
54.580        20
54.600        30
54.620        17
54.640        27
54.660        30
54.680        10
54.700         0
54.720        17
54.740        10
54.760        10
54.780        20
54.800        13
54.820        17
54.840        20
54.860        27
54.880        20
54.900        23
54.920        10
54.940        20
54.960        27
54.980        17
55.000        27
55.020        10
55.040        17
55.060         3
55.080        27
55.100        17
55.120        20
55.140        13
55.160         7
55.180        13
55.200        23
55.220        30
55.240        13
55.260        20
55.280         7
55.300        23
55.320        20
55.340         7
55.360         7
55.380        37
55.400        17
55.420        13
55.440        13
55.460        20
55.480        10
55.500        20
55.520        10
55.540        33
55.560        17
55.580        37
55.600        30
55.620         7
55.640         3
55.660         7
55.680        17
55.700        13
55.720         7
55.740        17
55.760        10
55.780        17
55.800        13
55.820        27
55.840         7
55.860        17
55.880        30
55.900        13
55.920        10
55.940        20
55.960        13
55.980        20
56.000         7
56.020        13
56.040        33
56.060         7
56.080        17
56.100        10
56.120        13
56.140        30
56.160        10
56.180        40
56.200         3
56.220        17
56.240        10
56.260        33
56.280        17
56.300        17
56.320        13
56.340         3
56.360        17
56.380        20
56.400        17
56.420        10
56.440        10
56.460        20
56.480        27
56.500        20
56.520        17
56.540        13
56.560        23
56.580        23
56.600        20
56.620        23
56.640        23
56.660        10
56.680        37
56.700        13
56.720        10
56.740        17
56.760        20
56.780        23
56.800        10
56.820        17
56.840        10
56.860        10
56.880        20
56.900        23
56.920        17
56.940        20
56.960        30
56.980        17
57.000        27
57.020         7
57.040        13
57.060        33
57.080        27
57.100        17
57.120        10
57.140        10
57.160        23
57.180        17
57.200        23
57.220        27
57.240        37
57.260        27
57.280        27
57.300        17
57.320        23
57.340        27
57.360        17
57.380        20
57.400        20
57.420        23
57.440        27
57.460        23
57.480        17
57.500        37
57.520        27
57.540        87
57.560        40
57.580        67
57.600        73
57.620        73
57.640       123
57.660       163
57.680        87
57.700        93
57.720        60
57.740        33
57.760        50
57.780        70
57.800        57
57.820       113
57.840        63
57.860        40
57.880        23
57.900        20
57.920        13
57.940        27
57.960         7
57.980        20
58.000        20
58.020        30
58.040        17
58.060        20
58.080        13
58.100        33
58.120        20
58.140         7
58.160        13
58.180         7
58.200        33
58.220        23
58.240        20
58.260        10
58.280        13
58.300        27
58.320         3
58.340         7
58.360        13
58.380        13
58.400        23
58.420         7
58.440        27
58.460        17
58.480        27
58.500        20
58.520        10
58.540        30
58.560         0
58.580        23
58.600        17
58.620        27
58.640        10
58.660        30
58.680        23
58.700        20
58.720        23
58.740        23
58.760         7
58.780        17
58.800        17
58.820        17
58.840         7
58.860        10
58.880        10
58.900        20
58.920        13
58.940        17
58.960        23
58.980        17
59.000        20
59.020        10
59.040        20
59.060        10
59.080        10
59.100         7
59.120        10
59.140        13
59.160        27
59.180        10
59.200        17
59.220        27
59.240        10
59.260        13
59.280        10
59.300        17
59.320         7
59.340         7
59.360        37
59.380        10
59.400        13
59.420        17
59.440        17
59.460        17
59.480         7
59.500        23
59.520        40
59.540        17
59.560        10
59.580        30
59.600        30
59.620        37
59.640        17
59.660        17
59.680        30
59.700        27
59.720        33
59.740        27
59.760        47
59.780        17
59.800        27
59.820        10
59.840        20
59.860         7
59.880        17
59.900        13
59.920        13
59.940        27
59.960        10
59.980        40
60.000        33
