20.000        30
20.020        30
20.040        77
20.060        80
20.080        87
20.100        70
20.120        90
20.140        67
20.160        50
20.180        90
20.200        97
20.220        80
20.240        93
20.260       103
20.280       100
20.300        87
20.320        67
20.340        70
20.360        80
20.380        63
20.400       110
20.420        47
20.440        93
20.460        70
20.480        90
20.500        80
20.520        87
20.540        90
20.560       103
20.580       103
20.600        80
20.620        77
20.640       107
20.660        53
20.680       100
20.700       117
20.720        77
20.740        93
20.760        67
20.780        60
20.800        87
20.820        77
20.840        87
20.860        83
20.880        77
20.900        77
20.920       110
20.940       103
20.960        93
20.980       107
21.000       127
21.020        70
21.040       107
21.060        97
21.080        83
21.100        67
21.120        87
21.140        87
21.160        70
21.180       117
21.200        73
21.220       127
21.240        90
21.260        80
21.280       103
21.300       127
21.320        83
21.340        87
21.360        90
21.380       100
21.400        87
21.420        83
21.440        60
21.460       113
21.480        97
21.500        90
21.520       107
21.540        80
21.560        73
21.580       137
21.600       107
21.620        87
21.640       117
21.660       120
21.680        93
21.700       103
21.720        97
21.740        97
21.760       147
21.780        90
21.800       130
21.820        93
21.840       100
21.860        90
21.880       117
21.900       107
21.920       107
21.940       140
21.960       100
21.980        97
22.000       130
22.020       113
22.040       130
22.060        97
22.080       130
22.100       133
22.120       127
22.140       123
22.160       137
22.180        73
22.200       147
22.220       147
22.240       140
22.260       133
22.280       123
22.300       120
22.320       147
22.340       130
22.360       180
22.380       117
22.400       147
22.420       133
22.440       170
22.460       140
22.480       170
22.500       113
22.520       153
22.540       147
22.560       177
22.580       143
22.600       123
22.620       167
22.640       153
22.660       177
22.680       200
22.700       160
22.720       180
22.740       177
22.760       157
22.780       160
22.800       150
22.820       157
22.840       200
22.860       157
22.880       193
22.900       200
22.920       203
22.940       197
22.960       207
22.980       220
23.000       227
23.020       200
23.040       223
23.060       237
23.080       267
23.100       367
23.120       566
23.140       780
23.160       846
23.180       703
23.200       430
23.220       260
23.240       240
23.260       217
23.280       190
23.300       210
23.320       207
23.340       243
23.360       210
23.380       220
23.400       207
23.420       197
23.440       187
23.460       190
23.480       213
23.500       203
23.520       200
23.540       210
23.560       140
23.580       220
23.600       213
23.620       250
23.640       207
23.660       210
23.680       160
23.700       243
23.720       197
23.740       197
23.760       253
23.780       233
23.800       210
23.820       220
23.840       167
23.860       253
23.880       153
23.900       210
23.920       250
23.940       227
23.960       230
23.980       200
24.000       207
24.020       263
24.040       177
24.060       187
24.080       233
24.100       173
24.120       250
24.140       183
24.160       190
24.180       250
24.200       220
24.220       190
24.240       173
24.260       210
24.280       257
24.300       193
24.320       237
24.340       213
24.360       277
24.380       210
24.400       210
24.420       197
24.440       230
24.460       183
24.480       223
24.500       237
24.520       240
24.540       200
24.560       243
24.580       257
24.600       280
24.620       243
24.640       203
24.660       317
24.680       303
24.700       287
24.720       293
24.740       340
24.760       373
24.780       483
24.800       586
24.820       586
24.840       570
24.860       606
24.880       550
24.900       643
24.920       703
24.940       600
24.960       613
24.980       660
25.000       623
25.020       516
25.040       583
25.060       553
25.080       586
25.100       600
25.120       596
25.140       623
25.160       730
25.180       640
25.200       636
25.220       750
25.240       650
25.260       646
25.280       680
25.300       806
25.320       836
25.340      1060
25.360      1426
25.380      2122
25.400      2962
25.420      4162
25.440      5471
25.460      6524
25.480      7474
25.500      8363
25.520      9133
25.540      9703
25.560      9969
25.580     12505
25.600     21821
25.620     57350
25.640     96335
25.660    114094
25.680    115001
25.700     84876
25.720     65624
25.740     59476
25.760     34779
25.780     10049
25.800      4028
25.820      2862
25.840      1896
25.860      1626
25.880      1319
25.900      1279
25.920      1203
25.940      1016
25.960      1050
25.980      1043
26.000       843
26.020       773
26.040       826
26.060       756
26.080       696
26.100       633
26.120       720
26.140       730
26.160       703
26.180       590
26.200       756
26.220       690
26.240       643
26.260       640
26.280       666
26.300       676
26.320       610
26.340       560
26.360       576
26.380       643
26.400       660
26.420       653
26.440       566
26.460       570
26.480       540
26.500       633
26.520       573
26.540       606
26.560       620
26.580       593
26.600       573
26.620       596
26.640       493
26.660       640
26.680       560
26.700       553
26.720       550
26.740       556
26.760       553
26.780       546
26.800       550
26.820       526
26.840       566
26.860       540
26.880       526
26.900       500
26.920       616
26.940       573
26.960       573
26.980       526
27.000       553
27.020       610
27.040       496
27.060       580
27.080       553
27.100       486
27.120       460
27.140       503
27.160       576
27.180       543
27.200       543
27.220       530
27.240       510
27.260       536
27.280       543
27.300       580
27.320       560
27.340       506
27.360       520
27.380       470
27.400       483
27.420       460
27.440       500
27.460       523
27.480       543
27.500       493
27.520       483
27.540       486
27.560       460
27.580       436
27.600       496
27.620       530
27.640       446
27.660       503
27.680       446
27.700       430
27.720       463
27.740       456
27.760       466
27.780       546
27.800       510
27.820       456
27.840       530
27.860       500
27.880       460
27.900       446
27.920       500
27.940       456
27.960       476
27.980       466
28.000       506
28.020       470
28.040       426
28.060       533
28.080       417
28.100       530
28.120       523
28.140       387
28.160       543
28.180       513
28.200       530
28.220       443
28.240       450
28.260       420
28.280       433
28.300       466
28.320       483
28.340       490
28.360       440
28.380       520
28.400       446
28.420       403
28.440       440
28.460       520
28.480       480
28.500       460
28.520       380
28.540       503
28.560       450
28.580       446
28.600       483
28.620       503
28.640       367
28.660       417
28.680       470
28.700       470
28.720       426
28.740       526
28.760       436
28.780       476
28.800       453
28.820       436
28.840       496
28.860       490
28.880       426
28.900       417
28.920       470
28.940       383
28.960       453
28.980       526
29.000       476
29.020       490
29.040       476
29.060       653
29.080       596
29.100       586
29.120       576
29.140       530
29.160       533
29.180       523
29.200       513
29.220       513
29.240       440
29.260       483
29.280       483
29.300       480
29.320       483
29.340       403
29.360       433
29.380       483
29.400       380
29.420       490
29.440       463
29.460       377
29.480       397
29.500       436
29.520       387
29.540       433
29.560       387
29.580       483
29.600       453
29.620       433
29.640       466
29.660       483
29.680       440
29.700       523
29.720       500
29.740       433
29.760       483
29.780       456
29.800       490
29.820       397
29.840       420
29.860       450
29.880       483
29.900       367
29.920       413
29.940       383
29.960       410
29.980       310
30.000       360
30.020       373
30.040       397
30.060       343
30.080       353
30.100       370
30.120       367
30.140       343
30.160       387
30.180       367
30.200       327
30.220       353
30.240       370
30.260       337
30.280       400
30.300       333
30.320       390
30.340       413
30.360       493
30.380       303
30.400       300
30.420       367
30.440       403
30.460       310
30.480       433
30.500       330
30.520       333
30.540       407
30.560       403
30.580       337
30.600       350
30.620       423
30.640       380
30.660       363
30.680       436
30.700       320
30.720       327
30.740       353
30.760       340
30.780       390
30.800       307
30.820       360
30.840       360
30.860       370
30.880       337
30.900       330
30.920       360
30.940       327
30.960       390
30.980       340
31.000       320
31.020       310
31.040       300
31.060       410
31.080       310
31.100       317
31.120       293
31.140       337
31.160       267
31.180       370
31.200       350
31.220       337
31.240       273
31.260       320
31.280       307
31.300       307
31.320       327
31.340       323
31.360       317
31.380       307
31.400       303
31.420       263
31.440       270
31.460       333
31.480       287
31.500       287
31.520       270
31.540       337
31.560       300
31.580       287
31.600       303
31.620       293
31.640       327
31.660       387
31.680       257
31.700       280
31.720       293
31.740       280
31.760       227
31.780       283
31.800       327
31.820       303
31.840       323
31.860       280
31.880       260
31.900       223
31.920       277
31.940       267
31.960       280
31.980       280
32.000       253
32.020       317
32.040       283
32.060       317
32.080       203
32.100       287
32.120       303
32.140       243
32.160       270
32.180       277
32.200       260
32.220       307
32.240       310
32.260       380
32.280       347
32.300       297
32.320       330
32.340       323
32.360       267
32.380       243
32.400       270
32.420       327
32.440       273
32.460       253
32.480       193
32.500       227
32.520       280
32.540       227
32.560       267
32.580       257
32.600       257
32.620       270
32.640       293
32.660       327
32.680       277
32.700       277
32.720       293
32.740       350
32.760       293
32.780       277
32.800       257
32.820       257
32.840       200
32.860       220
32.880       220
32.900       243
32.920       217
32.940       243
32.960       207
32.980       170
33.000       197
33.020       283
33.040       247
33.060       237
33.080       253
33.100       277
33.120       223
33.140       160
33.160       207
33.180       210
33.200       193
33.220       243
33.240       227
33.260       227
33.280       210
33.300       223
33.320       223
33.340       217
33.360       223
33.380       240
33.400       167
33.420       310
33.440       223
33.460       233
33.480       267
33.500       213
33.520       197
33.540       207
33.560       210
33.580       213
33.600       220
33.620       160
33.640       213
33.660       240
33.680       163
33.700       193
33.720       143
33.740       193
33.760       197
33.780       250
33.800       193
33.820       190
33.840       167
33.860       207
33.880       210
33.900       177
33.920       187
33.940       200
33.960       187
33.980       157
34.000       197
34.020       260
34.040       183
34.060       213
34.080       173
34.100       193
34.120       240
34.140       167
34.160       133
34.180       193
34.200       170
34.220       173
34.240       193
34.260       180
34.280       160
34.300       183
34.320       157
34.340       210
34.360       220
34.380       180
34.400       203
34.420       143
34.440       210
34.460       177
34.480       187
34.500       173
34.520       183
34.540       160
34.560       173
34.580       173
34.600       157
34.620       190
34.640       160
34.660       180
34.680       213
34.700       157
34.720       177
34.740       197
34.760       137
34.780       190
34.800       163
34.820       153
34.840       140
34.860       143
34.880       150
34.900       150
34.920       160
34.940       200
34.960       183
34.980       133
35.000       157
35.020       167
35.040       163
35.060       133
35.080       163
35.100       200
35.120       193
35.140       130
35.160       137
35.180       113
35.200       157
35.220       143
35.240       137
35.260       143
35.280       210
35.300       153
35.320       143
35.340       187
35.360       147
35.380       167
35.400       153
35.420       150
35.440       173
35.460       140
35.480       123
35.500       133
35.520       107
35.540       147
35.560       153
35.580       153
35.600       173
35.620       117
35.640       160
35.660       117
35.680       123
35.700       200
35.720       140
35.740       137
35.760       153
35.780       113
35.800       160
35.820       147
35.840       170
35.860       150
35.880       140
35.900       127
35.920       100
35.940       127
35.960       117
35.980        93
36.000       137
36.020       140
36.040       123
36.060       120
36.080       160
36.100       140
36.120        93
36.140       157
36.160       170
36.180       130
36.200       170
36.220       120
36.240       147
36.260       183
36.280       137
36.300       140
36.320       163
36.340       123
36.360       163
36.380       117
36.400       137
36.420       170
36.440       180
36.460       147
36.480       123
36.500       143
36.520       150
36.540       160
36.560       120
36.580       147
36.600       100
36.620       123
36.640       103
36.660        90
36.680       133
36.700       127
36.720       110
36.740        93
36.760       137
36.780       113
36.800        77
36.820       113
36.840        77
36.860        90
36.880       140
36.900        90
36.920       113
36.940        97
36.960       133
36.980        90
37.000       140
37.020       103
37.040       160
37.060        97
37.080       120
37.100       110
37.120       127
37.140       107
37.160       123
37.180       120
37.200       123
37.220       133
37.240        67
37.260       123
37.280        67
37.300       100
37.320        83
37.340       117
37.360        97
37.380        73
37.400        80
37.420       117
37.440       133
37.460        70
37.480        90
37.500        93
37.520       107
37.540       123
37.560       100
37.580        90
37.600       103
37.620        97
37.640        90
37.660        90
37.680        70
37.700        90
37.720        57
37.740        77
37.760        90
37.780       120
37.800        97
37.820        97
37.840        87
37.860        87
37.880        97
37.900        83
37.920        87
37.940       110
37.960       107
37.980        77
38.000       107
38.020       133
38.040        70
38.060        80
38.080        80
38.100        77
38.120        90
38.140        77
38.160        70
38.180        87
38.200        83
38.220        70
38.240        97
38.260        60
38.280       113
38.300       103
38.320        60
38.340        70
38.360        53
38.380        63
38.400        83
38.420        73
38.440        83
38.460        70
38.480       100
38.500        77
38.520        73
38.540        50
38.560        83
38.580        57
38.600        57
38.620       103
38.640        63
38.660        60
38.680        90
38.700        77
38.720        73
38.740        93
38.760       100
38.780        77
38.800        83
38.820        87
38.840        90
38.860       107
38.880        60
38.900        70
38.920        60
38.940       110
38.960        97
38.980        93
39.000        47
39.020       117
39.040        73
39.060        50
39.080        90
39.100        77
39.120        50
39.140        70
39.160        93
39.180        77
39.200        53
39.220        93
39.240        60
39.260        80
39.280        83
39.300        90
39.320        57
39.340        90
39.360        50
39.380        63
39.400        50
39.420        73
39.440        63
39.460        70
39.480        53
39.500        90
39.520        73
39.540        43
39.560        83
39.580        53
39.600        83
39.620        83
39.640        60
39.660        43
39.680        50
39.700       100
39.720        73
39.740        93
39.760        43
39.780        63
39.800        87
39.820        80
39.840        53
39.860        90
39.880        87
39.900        60
39.920        50
39.940        77
39.960       100
39.980        67
40.000        30
40.020        70
40.040        50
40.060        77
40.080        67
40.100        63
40.120        80
40.140        33
40.160        57
40.180        53
40.200        73
40.220        63
40.240        70
40.260        30
40.280        97
40.300        70
40.320        70
40.340        73
40.360        53
40.380        53
40.400        53
40.420        87
40.440        73
40.460        73
40.480        57
40.500        30
40.520        63
40.540        67
40.560        63
40.580        50
40.600        57
40.620        73
40.640        57
40.660        27
40.680        70
40.700        73
40.720        63
40.740        53
40.760        57
40.780        37
40.800        57
40.820        43
40.840        53
40.860        67
40.880        57
40.900        30
40.920        50
40.940        83
40.960        37
40.980        53
41.000        57
41.020        53
41.040        60
41.060        50
41.080        77
41.100        50
41.120        53
41.140        43
41.160        67
41.180        57
41.200        70
41.220        67
41.240        33
41.260        70
41.280        47
41.300        43
41.320        47
41.340        40
41.360        57
41.380        47
41.400        30
41.420        43
41.440        33
41.460        43
41.480        53
41.500        73
41.520        53
41.540        50
41.560        40
41.580        60
41.600        27
41.620        40
41.640        70
41.660        63
41.680        43
41.700        43
41.720        40
41.740        53
41.760        37
41.780        73
41.800        37
41.820        43
41.840        33
41.860        87
41.880        60
41.900        43
41.920        53
41.940        43
41.960        37
41.980        23
42.000        63
42.020        43
42.040        30
42.060        53
42.080        50
42.100        73
42.120        70
42.140        47
42.160        37
42.180        40
42.200        33
42.220        43
42.240        43
42.260        50
42.280        57
42.300        60
42.320        43
42.340        40
42.360        57
42.380        33
42.400        60
42.420        47
42.440        27
42.460        83
42.480        50
42.500        87
42.520        83
42.540        63
42.560        57
42.580        97
42.600       100
42.620        33
42.640       100
42.660        57
42.680        20
42.700        70
42.720        57
42.740        50
42.760        47
42.780        43
42.800        47
42.820        53
42.840        43
42.860        60
42.880        67
42.900        30
42.920        43
42.940        43
42.960        43
42.980        33
43.000        30
43.020        37
43.040        37
43.060        43
43.080        57
43.100        37
43.120        27
43.140        43
43.160        37
43.180        33
43.200        30
43.220        50
43.240        50
43.260        30
43.280        37
43.300        20
43.320        43
43.340        30
43.360        33
43.380        43
43.400        27
43.420        47
43.440        37
43.460        43
43.480        37
43.500        47
43.520        23
43.540        30
43.560        30
43.580        43
43.600        50
43.620        70
43.640        57
43.660        33
43.680        63
43.700        33
43.720        60
43.740        40
43.760        27
43.780        50
43.800        50
43.820        47
43.840        53
43.860        40
43.880        40
43.900        60
43.920        23
43.940        23
43.960        23
43.980        57
44.000        27
44.020        33
44.040        30
44.060        37
44.080        37
44.100        37
44.120        37
44.140        27
44.160        37
44.180        43
44.200        37
44.220        47
44.240        60
44.260        57
44.280        63
44.300        47
44.320        77
44.340        40
44.360        63
44.380        60
44.400        77
44.420        63
44.440        50
44.460        73
44.480        53
44.500        70
44.520        57
44.540        47
44.560        67
44.580        57
44.600        53
44.620        50
44.640        33
44.660        33
44.680        43
44.700        27
44.720        43
44.740        50
44.760        43
44.780        43
44.800        23
44.820        50
44.840        47
44.860        37
44.880        30
44.900        30
44.920        33
44.940        37
44.960        23
44.980        30
45.000        33
45.020        40
45.040        50
45.060        53
45.080        47
45.100        40
45.120        40
45.140        40
45.160        33
45.180        33
45.200        27
45.220        33
45.240        40
45.260        47
45.280        50
45.300        37
45.320        40
45.340        37
45.360        30
45.380        50
45.400        33
45.420        40
45.440        23
45.460        23
45.480        37
45.500        47
45.520        30
45.540        30
45.560        30
45.580        27
45.600        50
45.620        23
45.640        57
45.660        17
45.680        37
45.700        40
45.720        47
45.740        40
45.760        30
45.780        17
45.800        30
45.820        43
45.840        43
45.860        40
45.880        23
45.900        27
45.920        53
45.940        47
45.960        43
45.980        40
46.000        30
46.020        57
46.040        93
46.060        53
46.080        50
46.100        47
46.120        33
46.140        50
46.160        43
46.180        40
46.200        70
46.220        53
46.240        60
46.260        47
46.280        50
46.300        70
46.320        43
46.340        53
46.360        43
46.380        70
46.400        37
46.420        43
46.440        43
46.460        43
46.480        50
46.500        37
46.520        53
46.540        47
46.560        13
46.580        30
46.600        53
46.620        33
46.640        37
46.660        50
46.680        37
46.700        33
46.720        47
46.740        27
46.760        43
46.780        57
46.800        70
46.820        47
46.840        87
46.860        67
46.880        87
46.900        83
46.920        90
46.940        77
46.960       130
46.980        90
47.000        50
47.020       103
47.040       103
47.060       113
47.080       137
47.100       203
47.120       133
47.140       157
47.160       147
47.180       270
47.200       307
47.220       483
47.240       873
47.260      1349
47.280      1893
47.300      2212
47.320      1536
47.340       926
47.360       553
47.380       300
47.400       197
47.420       137
47.440       120
47.460       117
47.480       120
47.500       120
47.520       107
47.540        67
47.560        60
47.580        77
47.600        57
47.620        83
47.640        57
47.660        67
47.680        77
47.700        83
47.720        70
47.740        40
47.760        83
47.780        57
47.800        77
47.820        63
47.840        67
47.860        97
47.880        67
47.900        70
47.920        63
47.940        40
47.960        57
47.980        63
48.000        70
48.020        30
48.040        37
48.060        47
48.080        27
48.100        53
48.120        60
48.140        60
48.160        47
48.180        37
48.200        43
48.220        50
48.240        47
48.260        57
48.280        47
48.300        60
48.320        73
48.340        50
48.360        37
48.380        47
48.400        47
48.420        53
48.440        47
48.460        30
48.480        43
48.500        37
48.520        43
48.540        40
48.560        47
48.580        47
48.600        43
48.620        70
48.640        40
48.660        57
48.680        53
48.700        50
48.720        70
48.740        53
48.760        53
48.780        30
48.800        43
48.820        43
48.840        53
48.860        57
48.880        47
48.900        57
48.920        60
48.940        43
48.960        30
48.980        37
49.000        47
49.020        47
49.040        60
49.060        53
49.080        33
49.100        60
49.120        37
49.140        60
49.160        60
49.180        57
49.200        40
49.220        50
49.240        30
49.260        60
49.280        77
49.300        60
49.320        77
49.340        53
49.360        57
49.380        43
49.400        40
49.420        37
49.440        30
49.460        37
49.480        70
49.500        43
49.520        40
49.540        40
49.560        37
49.580        53
49.600        37
49.620        43
49.640        53
49.660        53
49.680        37
49.700        63
49.720        23
49.740        50
49.760        47
49.780        60
49.800        63
49.820        60
49.840        57
49.860        53
49.880        57
49.900        27
49.920        53
49.940        50
49.960        50
49.980        40
50.000        63
50.020        67
50.040        67
50.060        57
50.080        47
50.100        63
50.120        57
50.140        67
50.160        27
50.180        47
50.200        60
50.220        20
50.240        60
50.260        47
50.280        87
50.300        43
50.320        70
50.340        53
50.360        53
50.380        63
50.400        37
50.420        27
50.440        33
50.460        60
50.480        53
50.500        57
50.520        43
50.540        33
50.560        37
50.580        57
50.600        33
50.620        77
50.640       100
50.660        43
50.680        77
50.700       107
50.720       103
50.740       113
50.760       247
50.780       343
50.800       417
50.820       456
50.840       423
50.860       570
50.880       496
50.900       530
50.920       573
50.940       530
50.960       480
50.980       466
51.000       533
51.020       476
51.040       580
51.060       580
51.080       503
51.100       490
51.120       510
51.140       446
51.160       540
51.180       523
51.200       546
51.220       623
51.240       530
51.260       453
51.280       563
51.300       560
51.320       540
51.340       570
51.360       490
51.380       573
51.400       543
51.420       550
51.440       536
51.460       593
51.480       570
51.500       536
51.520       573
51.540       576
51.560       506
51.580       466
51.600       520
51.620       580
51.640       643
51.660       526
51.680       543
51.700       576
51.720       613
51.740       490
51.760       646
51.780       560
51.800       646
51.820       566
51.840       563
51.860       633
51.880       583
51.900       710
51.920       633
51.940       743
51.960       610
51.980       700
52.000       650
52.020       616
52.040       710
52.060       723
52.080       696
52.100       766
52.120       793
52.140       866
52.160       890
52.180       856
52.200       943
52.220      1066
52.240      1050
52.260      1183
52.280      1110
52.300      1276
52.320      1453
52.340      1706
52.360      1883
52.380      2306
52.400      3122
52.420      4768
52.440      5948
52.460      7460
52.480      8826
52.500     10063
52.520     11222
52.540     13165
52.560     14468
52.580     16983
52.600     22321
52.620     36609
52.640     77975
52.660    150926
52.680    200933
52.700    215351
52.720    191204
52.740    122311
52.760     64311
52.780     58990
52.800     91277
52.820    121458
52.840    131807
52.860    112182
52.880     66470
52.900     29058
52.920     14134
52.940      8340
52.960      6104
52.980      4302
53.000      3459
53.020      2922
53.040      2649
53.060      2289
53.080      2146
53.100      1686
53.120      1686
53.140      1366
53.160      1403
53.180      1316
53.200      1133
53.220      1136
53.240      1000
53.260      1036
53.280       893
53.300       976
53.320       953
53.340       953
53.360       886
53.380       873
53.400       873
53.420       860
53.440       833
53.460       830
53.480       703
53.500       806
53.520       690
53.540       766
53.560       720
53.580       643
53.600       653
53.620       676
53.640       523
53.660       606
53.680       640
53.700       586
53.720       580
53.740       546
53.760       500
53.780       540
53.800       566
53.820       610
53.840       506
53.860       543
53.880       606
53.900       476
53.920       453
53.940       486
53.960       473
53.980       453
54.000       550
54.020       503
54.040       490
54.060       500
54.080       490
54.100       417
54.120       520
54.140       446
54.160       473
54.180       367
54.200       466
54.220       453
54.240       420
54.260       490
54.280       456
54.300       426
54.320       446
54.340       420
54.360       363
54.380       443
54.400       397
54.420       400
54.440       433
54.460       367
54.480       380
54.500       403
54.520       380
54.540       453
54.560       343
54.580       430
54.600       433
54.620       417
54.640       430
54.660       343
54.680       340
54.700       387
54.720       293
54.740       317
54.760       423
54.780       387
54.800       410
54.820       347
54.840       380
54.860       380
54.880       357
54.900       377
54.920       330
54.940       320
54.960       393
54.980       300
55.000       297
55.020       293
55.040       353
55.060       310
55.080       320
55.100       313
55.120       357
55.140       340
55.160       350
55.180       373
55.200       333
55.220       330
55.240       310
55.260       340
55.280       327
55.300       310
55.320       340
55.340       300
55.360       280
55.380       340
55.400       293
55.420       327
55.440       247
55.460       310
55.480       297
55.500       340
55.520       350
55.540       340
55.560       293
55.580       347
55.600       323
55.620       290
55.640       263
55.660       277
55.680       253
55.700       340
55.720       280
55.740       300
55.760       280
55.780       270
55.800       290
55.820       307
55.840       303
55.860       283
55.880       240
55.900       273
55.920       280
55.940       283
55.960       313
55.980       263
56.000       327
56.020       297
56.040       227
56.060       320
56.080       220
56.100       300
56.120       273
56.140       307
56.160       280
56.180       250
56.200       253
56.220       287
56.240       270
56.260       217
56.280       273
56.300       253
56.320       243
56.340       217
56.360       233
56.380       250
56.400       290
56.420       277
56.440       273
56.460       213
56.480       260
56.500       253
56.520       290
56.540       277
56.560       217
56.580       273
56.600       223
56.620       227
56.640       257
56.660       237
56.680       313
56.700       310
56.720       240
56.740       300
56.760       230
56.780       217
56.800       233
56.820       270
56.840       220
56.860       233
56.880       203
56.900       320
56.920       247
56.940       193
56.960       210
56.980       240
57.000       200
57.020       193
57.040       220
57.060       243
57.080       190
57.100       250
57.120       263
57.140       253
57.160       247
57.180       200
57.200       237
57.220       257
57.240       280
57.260       230
57.280       233
57.300       253
57.320       230
57.340       233
57.360       197
57.380       273
57.400       207
57.420       227
57.440       233
57.460       220
57.480       193
57.500       247
57.520       227
57.540       243
57.560       190
57.580       243
57.600       213
57.620       220
57.640       237
57.660       187
57.680       183
57.700       230
57.720       160
57.740       277
57.760       230
57.780       213
57.800       257
57.820       183
57.840       243
57.860       193
57.880       183
57.900       170
57.920       197
57.940       233
57.960       220
57.980       177
58.000       233
58.020       253
58.040       233
58.060       217
58.080       197
58.100       223
58.120       157
58.140       183
58.160       230
58.180       230
58.200       190
58.220       227
58.240       170
58.260       190
58.280       167
58.300       160
58.320       213
58.340       207
58.360       213
58.380       203
58.400       150
58.420       220
58.440       183
58.460       140
58.480       247
58.500       177
58.520       157
58.540       110
58.560       167
58.580       190
58.600       160
58.620       203
58.640       187
58.660       167
58.680       187
58.700       170
58.720       147
58.740       200
58.760       157
58.780       157
58.800       200
58.820       190
58.840       177
58.860       187
58.880       170
58.900       200
58.920       223
58.940       157
58.960       140
58.980       210
59.000       190
59.020       187
59.040       210
59.060       203
59.080       203
59.100       223
59.120       187
59.140       233
59.160       187
59.180       197
59.200       207
59.220       170
59.240       163
59.260       193
59.280       207
59.300       177
59.320       203
59.340       173
59.360       167
59.380       210
59.400       157
59.420       150
59.440       157
59.460       190
59.480       167
59.500       197
59.520       170
59.540       150
59.560       153
59.580       163
59.600       133
59.620       153
59.640       190
59.660       183
59.680       167
59.700       193
59.720       147
59.740       167
59.760       150
59.780       170
59.800       177
59.820       197
59.840       187
59.860       173
59.880       157
59.900       130
59.920       133
59.940       133
59.960       180
59.980       167
60.000       140
