20.000       373
20.020       373
20.040       666
20.060       673
20.080       600
20.100       696
20.120       636
20.140       616
20.160       546
20.180       596
20.200       600
20.220       610
20.240       636
20.260       663
20.280       650
20.300       573
20.320       600
20.340       640
20.360       590
20.380       530
20.400       620
20.420       630
20.440       530
20.460       600
20.480       596
20.500       500
20.520       563
20.540       546
20.560       560
20.580       683
20.600       540
20.620       683
20.640       623
20.660       690
20.680       550
20.700       666
20.720       470
20.740       576
20.760       533
20.780       543
20.800       676
20.820       543
20.840       566
20.860       616
20.880       573
20.900       546
20.920       546
20.940       606
20.960       593
20.980       520
21.000       493
21.020       576
21.040       610
21.060       580
21.080       560
21.100       526
21.120       596
21.140       593
21.160       540
21.180       560
21.200       556
21.220       573
21.240       516
21.260       600
21.280       510
21.300       540
21.320       473
21.340       566
21.360       573
21.380       533
21.400       503
21.420       506
21.440       573
21.460       533
21.480       540
21.500       493
21.520       533
21.540       546
21.560       483
21.580       593
21.600       556
21.620       506
21.640       486
21.660       526
21.680       446
21.700       536
21.720       510
21.740       616
21.760       513
21.780       533
21.800       453
21.820       563
21.840       463
21.860       616
21.880       450
21.900       596
21.920       453
21.940       530
21.960       533
21.980       560
22.000       536
22.020       520
22.040       470
22.060       633
22.080       630
22.100       593
22.120       626
22.140       710
22.160       656
22.180       686
22.200       670
22.220       696
22.240       833
22.260       826
22.280       743
22.300       900
22.320       886
22.340       966
22.360       883
22.380       780
22.400       876
22.420       790
22.440       706
22.460       660
22.480       616
22.500       513
22.520       616
22.540       556
22.560       460
22.580       546
22.600       520
22.620       523
22.640       490
22.660       466
22.680       450
22.700       576
22.720       450
22.740       500
22.760       536
22.780       513
22.800       417
22.820       476
22.840       393
22.860       473
22.880       496
22.900       493
22.920       550
22.940       453
22.960       393
22.980       506
23.000       463
23.020       433
23.040       417
23.060       417
23.080       450
23.100       553
23.120       407
23.140       410
23.160       440
23.180       397
23.200       436
23.220       377
23.240       456
23.260       407
23.280       430
23.300       407
23.320       436
23.340       367
23.360       410
23.380       446
23.400       446
23.420       400
23.440       466
23.460       400
23.480       456
23.500       353
23.520       453
23.540       473
23.560       436
23.580       566
23.600       450
23.620       493
23.640       390
23.660       486
23.680       367
23.700       410
23.720       327
23.740       453
23.760       370
23.780       390
23.800       347
23.820       373
23.840       380
23.860       347
23.880       433
23.900       373
23.920       367
23.940       413
23.960       367
23.980       357
24.000       420
24.020       347
24.040       420
24.060       313
24.080       350
24.100       367
24.120       300
24.140       340
24.160       353
24.180       400
24.200       363
24.220       390
24.240       320
24.260       383
24.280       340
24.300       363
24.320       393
24.340       343
24.360       436
24.380       353
24.400       333
24.420       357
24.440       373
24.460       307
24.480       293
24.500       367
24.520       377
24.540       357
24.560       357
24.580       340
24.600       287
24.620       310
24.640       310
24.660       283
24.680       353
24.700       340
24.720       290
24.740       310
24.760       290
24.780       367
24.800       300
24.820       317
24.840       357
24.860       327
24.880       323
24.900       307
24.920       283
24.940       337
24.960       300
24.980       313
25.000       290
25.020       323
25.040       320
25.060       273
25.080       263
25.100       283
25.120       367
25.140       310
25.160       283
25.180       277
25.200       253
25.220       237
25.240       310
25.260       280
25.280       277
25.300       363
25.320       313
25.340       293
25.360       293
25.380       267
25.400       277
25.420       273
25.440       250
25.460       250
25.480       317
25.500       253
25.520       317
25.540       260
25.560       270
25.580       257
25.600       270
25.620       183
25.640       237
25.660       233
25.680       213
25.700       277
25.720       240
25.740       223
25.760       260
25.780       223
25.800       260
25.820       233
25.840       170
25.860       157
25.880       157
25.900       213
25.920       167
25.940       273
25.960       133
25.980       233
26.000       203
26.020       153
26.040       210
26.060       210
26.080       153
26.100       203
26.120       180
26.140       173
26.160       200
26.180       180
26.200       213
26.220       193
26.240       160
26.260       143
26.280       160
26.300       193
26.320       137
26.340       210
26.360       140
26.380       183
26.400       140
26.420       127
26.440       140
26.460       177
26.480       200
26.500       170
26.520       143
26.540       150
26.560       150
26.580       113
26.600       133
26.620       173
26.640       153
26.660       150
26.680       173
26.700       167
26.720       143
26.740       193
26.760       167
26.780       150
26.800       163
26.820       140
26.840       173
26.860       200
26.880       180
26.900       147
26.920       153
26.940       137
26.960       150
26.980       123
27.000       153
27.020       107
27.040       150
27.060       143
27.080       153
27.100        90
27.120       170
27.140       147
27.160       137
27.180       130
27.200       137
27.220       120
27.240       153
27.260       160
27.280       103
27.300       123
27.320       157
27.340       150
27.360       143
27.380       113
27.400       143
27.420       120
27.440       130
27.460       150
27.480       127
27.500       120
27.520        83
27.540       123
27.560       137
27.580       147
27.600       117
27.620       120
27.640       123
27.660       167
27.680       123
27.700       103
27.720       130
27.740       143
27.760        90
27.780       107
27.800        97
27.820       130
27.840       120
27.860       150
27.880       107
27.900       120
27.920       137
27.940        93
27.960       110
27.980        80
28.000        93
28.020       117
28.040        90
28.060       117
28.080       107
28.100       127
28.120       137
28.140       107
28.160       133
28.180       113
28.200       127
28.220       100
28.240        77
28.260        90
28.280       120
28.300       123
28.320       100
28.340       123
28.360       110
28.380       127
28.400       123
28.420        97
28.440       103
28.460        90
28.480        70
28.500        87
28.520       107
28.540        97
28.560        60
28.580       163
28.600       107
28.620       117
28.640        87
28.660       100
28.680        67
28.700        70
28.720       120
28.740       110
28.760       117
28.780       120
28.800       143
28.820       127
28.840       107
28.860       100
28.880        80
28.900       103
28.920        87
28.940       117
28.960        67
28.980        73
29.000        87
29.020        80
29.040       113
29.060       110
29.080       113
29.100        80
29.120        87
29.140        93
29.160       127
29.180        87
29.200        77
29.220        83
29.240        80
29.260        67
29.280       107
29.300        83
29.320        70
29.340       117
29.360        77
29.380        93
29.400        90
29.420        90
29.440        87
29.460        80
29.480       130
29.500       120
29.520       127
29.540       140
29.560       173
29.580       153
29.600       167
29.620       153
29.640       113
29.660       133
29.680       103
29.700       117
29.720       127
29.740       110
29.760       113
29.780       113
29.800        63
29.820       110
29.840        77
29.860        83
29.880        63
29.900        87
29.920        93
29.940        63
29.960       100
29.980        90
30.000        77
30.020        90
30.040       107
30.060        77
30.080        67
30.100       103
30.120        97
30.140        70
30.160        83
30.180       117
30.200        67
30.220        73
30.240        70
30.260        67
30.280        97
30.300        83
30.320        87
30.340        73
30.360       103
30.380       117
30.400       123
30.420        90
30.440       110
30.460        93
30.480        80
30.500        77
30.520        90
30.540        97
30.560        87
30.580       120
30.600        90
30.620        97
30.640        90
30.660        93
30.680        77
30.700        93
30.720       100
30.740        93
30.760       110
30.780       100
30.800        83
30.820       127
30.840        90
30.860        70
30.880        83
30.900       133
30.920       117
30.940       103
30.960        90
30.980       120
31.000        80
31.020       127
31.040       113
31.060        97
31.080        93
31.100        97
31.120       110
31.140       113
31.160       127
31.180       120
31.200       117
31.220        97
31.240       137
31.260       110
31.280       140
31.300        80
31.320       120
31.340        97
31.360       103
31.380       163
31.400       143
31.420       157
31.440       140
31.460       163
31.480       150
31.500       150
31.520       157
31.540       163
31.560       223
31.580       260
31.600       247
31.620       243
31.640       257
31.660       290
31.680       300
31.700       370
31.720       377
31.740       373
31.760       496
31.780       433
31.800       370
31.820       513
31.840       450
31.860       440
31.880       473
31.900       433
31.920       453
31.940       473
31.960       426
31.980       476
32.000       413
32.020       426
32.040       397
32.060       596
32.080      1269
32.100      2672
32.120      3782
32.140      3918
32.160      3609
32.180      2166
32.200       813
32.220       543
32.240       413
32.260       277
32.280       293
32.300       333
32.320       277
32.340       247
32.360       210
32.380       247
32.400       210
32.420       210
32.440       197
32.460       197
32.480       223
32.500       210
32.520       207
32.540       140
32.560       200
32.580       173
32.600       207
32.620       153
32.640       157
32.660       140
32.680       177
32.700       140
32.720       170
32.740       197
32.760       203
32.780       157
32.800       167
32.820       150
32.840       160
32.860       157
32.880       163
32.900       133
32.920       163
32.940       160
32.960       153
32.980       130
33.000       137
33.020       143
33.040       113
33.060       157
33.080       167
33.100       167
33.120       140
33.140       130
33.160       177
33.180       133
33.200       140
33.220       123
33.240       107
33.260       133
33.280       117
33.300       133
33.320       137
33.340       130
33.360       110
33.380       117
33.400       140
33.420       170
33.440       110
33.460       137
33.480       163
33.500       107
33.520       170
33.540       160
33.560       117
33.580       130
33.600       143
33.620       123
33.640       147
33.660       117
33.680       120
33.700       113
33.720       127
33.740       117
33.760       123
33.780       170
33.800       100
33.820       113
33.840       173
33.860       113
33.880       113
33.900       117
33.920       153
33.940       147
33.960       113
33.980       170
34.000       153
34.020       147
34.040       117
34.060       107
34.080       127
34.100       183
34.120       147
34.140       140
34.160       143
34.180       137
34.200       133
34.220       160
34.240       127
34.260       147
34.280       170
34.300       180
34.320       257
34.340       220
34.360       273
34.380       460
34.400       676
34.420       960
34.440      1120
34.460      1210
34.480      1309
34.500      1279
34.520      1353
34.540      1233
34.560      1313
34.580      1326
34.600      1346
34.620      1443
34.640      1303
34.660      1396
34.680      1429
34.700      1449
34.720      1256
34.740      1293
34.760      1399
34.780      1486
34.800      1326
34.820      1393
34.840      1283
34.860      1349
34.880      1426
34.900      1379
34.920      1316
34.940      1433
34.960      1309
34.980      1409
35.000      1383
35.020      1469
35.040      1369
35.060      1636
35.080      1519
35.100      1579
35.120      1513
35.140      1609
35.160      1806
35.180      1696
35.200      1526
35.220      1836
35.240      1786
35.260      2006
35.280      2076
35.300      2156
35.320      2422
35.340      2382
35.360      2919
35.380      3848
35.400      5025
35.420      7444
35.440     10919
35.460     14721
35.480     19222
35.500     22518
35.520     24660
35.540     26793
35.560     30081
35.580     39737
35.600     77672
35.620    188371
35.640    266983
35.660    281721
35.680    274524
35.700    223647
35.720    187272
35.740    202412
35.760    204192
35.780    172501
35.800     92436
35.820     36479
35.840     18729
35.860     12458
35.880      8743
35.900      6494
35.920      5118
35.940      4358
35.960      3719
35.980      3522
36.000      2809
36.020      2869
36.040      2696
36.060      2449
36.080      2402
36.100      2302
36.120      2282
36.140      2016
36.160      1899
36.180      1839
36.200      1819
36.220      1649
36.240      1719
36.260      1563
36.280      1486
36.300      1606
36.320      1456
36.340      1496
36.360      1536
36.380      1483
36.400      1349
36.420      1253
36.440      1263
36.460      1240
36.480      1203
36.500      1153
36.520      1200
36.540      1256
36.560      1240
36.580      1176
36.600      1166
36.620      1266
36.640      1116
36.660      1013
36.680      1193
36.700      1123
36.720      1006
36.740       976
36.760      1063
36.780       966
36.800       966
36.820       996
36.840      1016
36.860       920
36.880      1010
36.900       873
36.920       960
36.940      1030
36.960       983
36.980       993
37.000       966
37.020       896
37.040       936
37.060       950
37.080       830
37.100       910
37.120       856
37.140       800
37.160       863
37.180       850
37.200       860
37.220       790
37.240       850
37.260       863
37.280       873
37.300       776
37.320       870
37.340       886
37.360       836
37.380       786
37.400       803
37.420       753
37.440       820
37.460       780
37.480       820
37.500       793
37.520       756
37.540       800
37.560       870
37.580       776
37.600       753
37.620       740
37.640       743
37.660       766
37.680       756
37.700       716
37.720       766
37.740       753
37.760       716
37.780       806
37.800       743
37.820       776
37.840       810
37.860       660
37.880       660
37.900       696
37.920       690
37.940       726
37.960       686
37.980       663
38.000       706
38.020       666
38.040       670
38.060       660
38.080       710
38.100       723
38.120       693
38.140       616
38.160       660
38.180       680
38.200       623
38.220       676
38.240       646
38.260       653
38.280       603
38.300       653
38.320       653
38.340       660
38.360       600
38.380       623
38.400       606
38.420       673
38.440       640
38.460       626
38.480       623
38.500       633
38.520       630
38.540       623
38.560       680
38.580       660
38.600       590
38.620       580
38.640       586
38.660       566
38.680       570
38.700       640
38.720       566
38.740       610
38.760       660
38.780       566
38.800       573
38.820       570
38.840       576
38.860       533
38.880       546
38.900       586
38.920       553
38.940       633
38.960       563
38.980       530
39.000       613
39.020       466
39.040       576
39.060       586
39.080       556
39.100       666
39.120       556
39.140       573
39.160       633
39.180       553
39.200       573
39.220       543
39.240       553
39.260       586
39.280       583
39.300       596
39.320       606
39.340       670
39.360       590
39.380       526
39.400       586
39.420       500
39.440       630
39.460       593
39.480       593
39.500       560
39.520       566
39.540       543
39.560       453
39.580       526
39.600       570
39.620       470
39.640       560
39.660       530
39.680       493
39.700       520
39.720       440
39.740       553
39.760       483
39.780       470
39.800       456
39.820       473
39.840       493
39.860       413
39.880       423
39.900       510
39.920       436
39.940       490
39.960       496
39.980       496
40.000       460
40.020       440
40.040       483
40.060       430
40.080       466
40.100       410
40.120       423
40.140       490
40.160       490
40.180       410
40.200       440
40.220       460
40.240       410
40.260       483
40.280       390
40.300       473
40.320       453
40.340       466
40.360       420
40.380       423
40.400       407
40.420       453
40.440       446
40.460       393
40.480       456
40.500       410
40.520       443
40.540       430
40.560       456
40.580       420
40.600       423
40.620       423
40.640       393
40.660       443
40.680       380
40.700       436
40.720       426
40.740       310
40.760       503
40.780       413
40.800       430
40.820       433
40.840       420
40.860       390
40.880       473
40.900       423
40.920       460
40.940       513
40.960       456
40.980       403
41.000       393
41.020       436
41.040       403
41.060       383
41.080       413
41.100       393
41.120       343
41.140       450
41.160       340
41.180       360
41.200       383
41.220       370
41.240       377
41.260       367
41.280       390
41.300       373
41.320       413
41.340       423
41.360       400
41.380       370
41.400       380
41.420       370
41.440       387
41.460       307
41.480       367
41.500       337
41.520       353
41.540       303
41.560       343
41.580       347
41.600       353
41.620       357
41.640       383
41.660       320
41.680       390
41.700       350
41.720       317
41.740       307
41.760       327
41.780       337
41.800       377
41.820       373
41.840       360
41.860       370
41.880       343
41.900       347
41.920       380
41.940       300
41.960       367
41.980       297
42.000       327
42.020       397
42.040       297
42.060       333
42.080       390
42.100       297
42.120       337
42.140       317
42.160       300
42.180       317
42.200       320
42.220       327
42.240       297
42.260       260
42.280       340
42.300       300
42.320       313
42.340       287
42.360       310
42.380       373
42.400       287
42.420       317
42.440       297
42.460       293
42.480       293
42.500       293
42.520       293
42.540       293
42.560       297
42.580       320
42.600       263
42.620       287
42.640       333
42.660       297
42.680       250
42.700       303
42.720       283
42.740       340
42.760       307
42.780       337
42.800       247
42.820       360
42.840       247
42.860       277
42.880       320
42.900       197
42.920       293
42.940       290
42.960       243
42.980       343
43.000       260
43.020       300
43.040       237
43.060       223
43.080       310
43.100       280
43.120       290
43.140       250
43.160       263
43.180       290
43.200       243
43.220       320
43.240       240
43.260       267
43.280       257
43.300       307
43.320       247
43.340       237
43.360       267
43.380       263
43.400       263
43.420       260
43.440       270
43.460       277
43.480       253
43.500       190
43.520       237
43.540       280
43.560       237
43.580       230
43.600       267
43.620       203
43.640       237
43.660       273
43.680       163
43.700       223
43.720       267
43.740       207
43.760       267
43.780       333
43.800       163
43.820       193
43.840       273
43.860       283
43.880       237
43.900       277
43.920       300
43.940       170
43.960       237
43.980       287
44.000       253
44.020       213
44.040       213
44.060       210
44.080       253
44.100       250
44.120       223
44.140       230
44.160       210
44.180       230
44.200       233
44.220       290
44.240       237
44.260       250
44.280       220
44.300       243
44.320       263
44.340       200
44.360       230
44.380       233
44.400       230
44.420       287
44.440       250
44.460       230
44.480       283
44.500       267
44.520       193
44.540       243
44.560       170
44.580       243
44.600       203
44.620       240
44.640       233
44.660       213
44.680       220
44.700       243
44.720       270
44.740       267
44.760       227
44.780       253
44.800       287
44.820       203
44.840       260
44.860       297
44.880       267
44.900       287
44.920       233
44.940       307
44.960       280
44.980       307
45.000       260
45.020       243
45.040       240
45.060       267
45.080       340
45.100       337
45.120       303
45.140       250
45.160       307
45.180       317
45.200       323
45.220       310
45.240       426
45.260       387
45.280       400
45.300       456
45.320       470
45.340       450
45.360       483
45.380       473
45.400       516
45.420       563
45.440       583
45.460       610
45.480       600
45.500       723
45.520       756
45.540       823
45.560       860
45.580       713
45.600       850
45.620       890
45.640       816
45.660       863
45.680       716
45.700       900
45.720       820
45.740       810
45.760       706
45.780       623
45.800       676
45.820       593
45.840       583
45.860       586
45.880       476
45.900       496
45.920       543
45.940       433
45.960       473
45.980       360
46.000       436
46.020       380
46.040       343
46.060       287
46.080       330
46.100       303
46.120       327
46.140       330
46.160       270
46.180       310
46.200       250
46.220       220
46.240       280
46.260       240
46.280       297
46.300       213
46.320       243
46.340       197
46.360       197
46.380       260
46.400       237
46.420       233
46.440       173
46.460       197
46.480       197
46.500       227
46.520       207
46.540       203
46.560       163
46.580       210
46.600       147
46.620       140
46.640       183
46.660       200
46.680       153
46.700       143
46.720       213
46.740       190
46.760       187
46.780       160
46.800       167
46.820       147
46.840       180
46.860       160
46.880       163
46.900       153
46.920       167
46.940       143
46.960       153
46.980       197
47.000       167
47.020       130
47.040       173
47.060       153
47.080       157
47.100       143
47.120       200
47.140       153
47.160       150
47.180       117
47.200       160
47.220       153
47.240       160
47.260       137
47.280       123
47.300       133
47.320       150
47.340       140
47.360       137
47.380       173
47.400       157
47.420       127
47.440       140
47.460       103
47.480        87
47.500       147
47.520       123
47.540       137
47.560        90
47.580       143
47.600       137
47.620       137
47.640       147
47.660       150
47.680       147
47.700       127
47.720       117
47.740       147
47.760       117
47.780       160
47.800       143
47.820       157
47.840        90
47.860       113
47.880       117
47.900       113
47.920       117
47.940        90
47.960        93
47.980       130
48.000       143
48.020       120
48.040       110
48.060       140
48.080       137
48.100       140
48.120       157
48.140       107
48.160       110
48.180       133
48.200       167
48.220       120
48.240       100
48.260       127
48.280        83
48.300       113
48.320       117
48.340       167
48.360       180
48.380       113
48.400       150
48.420       117
48.440       113
48.460       110
48.480       120
48.500        97
48.520       117
48.540       110
48.560       113
48.580       117
48.600        93
48.620       123
48.640       123
48.660        80
48.680       123
48.700        80
48.720       117
48.740        90
48.760       130
48.780        87
48.800       110
48.820       127
48.840        97
48.860       110
48.880       123
48.900       100
48.920        87
48.940       113
48.960       110
48.980       113
49.000        87
49.020        90
49.040       113
49.060       107
49.080       130
49.100        93
49.120       120
49.140        90
49.160        97
49.180        77
49.200        87
49.220        67
49.240       103
49.260       103
49.280       103
49.300       117
49.320        83
49.340        87
49.360        70
49.380        97
49.400        83
49.420       110
49.440        83
49.460       100
49.480       113
49.500       117
49.520        97
49.540       100
49.560       100
49.580        97
49.600        80
49.620       103
49.640        93
49.660       110
49.680       137
49.700        90
49.720       127
49.740        87
49.760        93
49.780        83
49.800        93
49.820       100
49.840        80
49.860       103
49.880       123
49.900       120
49.920        73
49.940        93
49.960        83
49.980        77
50.000       147
50.020        83
50.040       123
50.060       113
50.080        80
50.100        77
50.120       100
50.140       117
50.160        80
50.180        73
50.200        97
50.220        87
50.240        60
50.260        77
50.280        93
50.300       113
50.320        90
50.340        73
50.360        77
50.380       110
50.400        83
50.420        90
50.440        83
50.460        87
50.480       100
50.500        57
50.520        43
50.540        70
50.560        93
50.580        80
50.600        77
50.620        97
50.640        90
50.660        97
50.680        90
50.700       100
50.720        80
50.740        90
50.760        90
50.780        87
50.800       107
50.820        87
50.840       107
50.860        53
50.880        87
50.900        87
50.920        97
50.940        93
50.960        67
50.980        93
51.000        97
51.020        47
51.040       100
51.060        57
51.080        60
51.100        83
51.120        80
51.140        90
51.160        87
51.180        73
51.200        80
51.220        63
51.240        80
51.260        90
51.280        97
51.300        63
51.320        73
51.340        60
51.360        97
51.380        67
51.400        93
51.420        77
51.440        97
51.460        57
51.480        90
51.500        70
51.520        70
51.540       103
51.560        87
51.580        87
51.600        87
51.620        67
51.640        80
51.660        80
51.680        80
51.700        77
51.720        83
51.740        80
51.760        77
51.780        70
51.800        87
51.820        77
51.840       127
51.860        60
51.880       103
51.900        73
51.920       103
51.940        80
51.960        63
51.980        60
52.000        53
52.020        73
52.040        70
52.060        60
52.080        67
52.100        83
52.120        63
52.140        90
52.160        63
52.180        97
52.200        87
52.220        63
52.240        93
52.260        77
52.280        63
52.300        93
52.320        63
52.340        87
52.360        57
52.380        80
52.400        40
52.420        70
52.440        57
52.460        70
52.480        93
52.500        63
52.520        80
52.540        63
52.560        47
52.580        60
52.600        53
52.620        73
52.640        87
52.660        77
52.680        70
52.700        77
52.720        63
52.740        67
52.760        50
52.780        87
52.800        60
52.820        53
52.840        70
52.860        83
52.880        63
52.900        63
52.920        73
52.940        77
52.960        47
52.980        83
53.000        70
53.020        70
53.040        83
53.060        73
53.080        43
53.100        77
53.120        73
53.140        80
53.160        87
53.180        63
53.200        47
53.220        47
53.240        40
53.260        60
53.280        40
53.300        73
53.320        53
53.340        80
53.360        50
53.380        67
53.400        63
53.420        47
53.440        53
53.460        70
53.480        33
53.500        70
53.520        70
53.540        57
53.560        83
53.580        63
53.600        87
53.620        90
53.640        57
53.660        53
53.680        37
53.700        80
53.720        67
53.740        97
53.760        90
53.780        60
53.800        60
53.820        53
53.840        63
53.860        47
53.880        57
53.900        57
53.920        43
53.940        67
53.960        57
53.980        73
54.000        67
54.020        67
54.040        57
54.060        73
54.080        47
54.100        73
54.120        47
54.140        53
54.160        57
54.180        97
54.200        63
54.220        57
54.240        60
54.260        47
54.280        43
54.300        63
54.320        60
54.340        53
54.360        60
54.380        70
54.400        83
54.420        77
54.440        90
54.460        53
54.480        33
54.500        53
54.520        50
54.540        83
54.560        83
54.580        60
54.600        57
54.620        47
54.640        43
54.660        30
54.680        70
54.700        57
54.720        57
54.740        60
54.760        50
54.780        43
54.800        47
54.820        73
54.840        27
54.860        73
54.880        33
54.900        83
54.920        53
54.940        60
54.960        37
54.980        53
55.000        70
55.020        47
55.040        50
55.060        60
55.080        80
55.100        63
55.120        77
55.140        60
55.160        47
55.180        57
55.200        33
55.220        63
55.240        80
55.260        57
55.280        47
55.300        50
55.320        57
55.340        37
55.360        67
55.380        60
55.400        67
55.420        37
55.440        60
55.460        53
55.480        40
55.500        30
55.520        93
55.540        80
55.560        63
55.580        53
55.600        60
55.620        57
55.640        93
55.660        47
55.680        60
55.700        60
55.720        53
55.740        67
55.760        60
55.780        90
55.800        60
55.820        70
55.840        50
55.860        57
55.880        50
55.900        67
55.920        60
55.940        67
55.960        30
55.980        57
56.000        33
56.020        73
56.040        63
56.060        57
56.080        60
56.100        70
56.120        57
56.140        60
56.160        53
56.180        53
56.200        37
56.220        83
56.240        37
56.260        63
56.280        50
56.300        70
56.320        80
56.340        53
56.360        47
56.380        53
56.400        53
56.420        87
56.440        27
56.460        40
56.480        33
56.500       103
56.520        37
56.540        47
56.560        70
56.580        47
56.600        70
56.620        23
56.640        80
56.660        50
56.680        90
56.700        53
56.720        57
56.740        60
56.760        83
56.780        47
56.800        63
56.820        97
56.840        77
56.860        80
56.880        90
56.900       103
56.920        47
56.940        53
56.960        70
56.980        73
57.000        60
57.020        73
57.040        73
57.060        73
57.080        73
57.100        80
57.120        67
57.140        87
57.160        63
57.180        50
57.200        67
57.220        63
57.240        97
57.260        73
57.280        43
57.300        90
57.320        57
57.340        40
57.360        40
57.380        43
57.400        60
57.420        60
57.440        67
57.460        47
57.480        60
57.500        63
57.520        57
57.540        57
57.560        70
57.580        67
57.600        43
57.620        43
57.640        43
57.660        53
57.680        63
57.700        67
57.720        63
57.740        67
57.760        43
57.780        63
57.800        60
57.820        37
57.840        67
57.860        50
57.880        50
57.900        60
57.920        57
57.940        40
57.960        40
57.980        33
58.000        63
58.020        53
58.040        53
58.060        43
58.080        40
58.100        60
58.120        60
58.140        93
58.160        60
58.180        53
58.200        67
58.220        37
58.240        47
58.260        43
58.280        40
58.300        53
58.320        60
58.340        43
58.360        47
58.380        37
58.400        23
58.420        40
58.440        47
58.460        60
58.480        60
58.500        57
58.520        43
58.540        43
58.560        70
58.580        73
58.600        60
58.620        47
58.640        53
58.660        67
58.680        30
58.700        77
58.720        40
58.740        43
58.760        47
58.780        63
58.800        60
58.820        50
58.840        60
58.860        60
58.880        50
58.900        57
58.920        63
58.940        40
58.960        50
58.980        57
59.000        53
59.020        70
59.040        60
59.060        67
59.080        50
59.100        60
59.120        37
59.140        37
59.160        60
59.180        47
59.200        50
59.220        67
59.240        37
59.260        47
59.280        50
59.300        63
59.320        67
59.340        40
59.360        33
59.380        47
59.400        47
59.420        57
59.440        33
59.460        53
59.480        57
59.500        63
59.520        43
59.540        30
59.560        60
59.580        40
59.600        27
59.620        73
59.640        43
59.660        67
59.680        47
59.700        33
59.720        50
59.740        47
59.760        50
59.780        57
59.800        23
59.820        57
59.840        53
59.860        50
59.880        57
59.900        47
59.920        37
59.940        73
59.960        50
59.980        37
60.000        57
