20.000       520
20.010       573
20.020       640
20.030       706
20.040       746
20.050       593
20.060       606
20.070       653
20.080       493
20.090       606
20.100       493
20.110       540
20.120       446
20.130       533
20.140       680
20.150       553
20.160       660
20.170       586
20.180       533
20.190       666
20.200       606
20.210       533
20.220       713
20.230       526
20.240       553
20.250       613
20.260       506
20.270       633
20.280       520
20.290       533
20.300       573
20.310       586
20.320       633
20.330       606
20.340       480
20.350       580
20.360       673
20.370       613
20.380       546
20.390       466
20.400       506
20.410       713
20.420       626
20.430       573
20.440       640
20.450       586
20.460       673
20.470       506
20.480       506
20.490       553
20.500       500
20.510       673
20.520       600
20.530       573
20.540       466
20.550       546
20.560       513
20.570       553
20.580       473
20.590       566
20.600       513
20.610       520
20.620       460
20.630       506
20.640       593
20.650       640
20.660       573
20.670       486
20.680       573
20.690       593
20.700       546
20.710       633
20.720       526
20.730       593
20.740       553
20.750       560
20.760       593
20.770       573
20.780       473
20.790       533
20.800       513
20.810       646
20.820       706
20.830       500
20.840       466
20.850       546
20.860       606
20.870       520
20.880       566
20.890       500
20.900       506
20.910       646
20.920       480
20.930       407
20.940       533
20.950       433
20.960       553
20.970       573
20.980       506
20.990       453
21.000       613
21.010       560
21.020       513
21.030       553
21.040       460
21.050       533
21.060       473
21.070       433
21.080       553
21.090       413
21.100       613
21.110       586
21.120       407
21.130       393
21.140       440
21.150       466
21.160       493
21.170       473
21.180       540
21.190       493
21.200       526
21.210       580
21.220       526
21.230       387
21.240       473
21.250       506
21.260       560
21.270       446
21.280       500
21.290       320
21.300       446
21.310       466
21.320       473
21.330       533
21.340       446
21.350       500
21.360       513
21.370       480
21.380       580
21.390       453
21.400       486
21.410       460
21.420       473
21.430       413
21.440       513
21.450       380
21.460       453
21.470       420
21.480       566
21.490       413
21.500       440
21.510       426
21.520       373
21.530       480
21.540       533
21.550       520
21.560       493
21.570       460
21.580       446
21.590       446
21.600       560
21.610       407
21.620       500
21.630       500
21.640       420
21.650       387
21.660       486
21.670       526
21.680       513
21.690       413
21.700       480
21.710       500
21.720       440
21.730       413
21.740       420
21.750       460
21.760       446
21.770       533
21.780       387
21.790       380
21.800       373
21.810       426
21.820       393
21.830       433
21.840       473
21.850       413
21.860       420
21.870       426
21.880       440
21.890       407
21.900       446
21.910       387
21.920       367
21.930       393
21.940       373
21.950       353
21.960       347
21.970       440
21.980       420
21.990       347
22.000       393
22.010       466
22.020       380
22.030       300
22.040       380
22.050       333
22.060       433
22.070       320
22.080       400
22.090       446
22.100       420
22.110       460
22.120       400
22.130       446
22.140       440
22.150       460
22.160       426
22.170       333
22.180       493
22.190       480
22.200       400
22.210       473
22.220       566
22.230       473
22.240       373
22.250       480
22.260       500
22.270       513
22.280       533
22.290       506
22.300       533
22.310       520
22.320       546
22.330       480
22.340       533
22.350       586
22.360       680
22.370       646
22.380       646
22.390       600
22.400       660
22.410       613
22.420       760
22.430       673
22.440       666
22.450       713
22.460       680
22.470       833
22.480       686
22.490       773
22.500       613
22.510       780
22.520       866
22.530       706
22.540       593
22.550       500
22.560       686
22.570       646
22.580       586
22.590       593
22.600       533
22.610       533
22.620       420
22.630       486
22.640       506
22.650       440
22.660       413
22.670       446
22.680       440
22.690       520
22.700       367
22.710       506
22.720       480
22.730       473
22.740       380
22.750       466
22.760       340
22.770       327
22.780       353
22.790       360
22.800       320
22.810       460
22.820       420
22.830       426
22.840       440
22.850       327
22.860       413
22.870       453
22.880       360
22.890       347
22.900       407
22.910       473
22.920       327
22.930       367
22.940       353
22.950       327
22.960       333
22.970       426
22.980       400
22.990       313
23.000       486
23.010       380
23.020       353
23.030       347
23.040       380
23.050       320
23.060       347
23.070       440
23.080       300
23.090       247
23.100       387
23.110       327
23.120       200
23.130       280
23.140       360
23.150       453
23.160       367
23.170       460
23.180       327
23.190       300
23.200       373
23.210       380
23.220       393
23.230       340
23.240       393
23.250       313
23.260       333
23.270       500
23.280       400
23.290       313
23.300       400
23.310       240
23.320       380
23.330       387
23.340       307
23.350       333
23.360       407
23.370       420
23.380       300
23.390       380
23.400       320
23.410       313
23.420       380
23.430       367
23.440       407
23.450       353
23.460       393
23.470       380
23.480       327
23.490       240
23.500       420
23.510       360
23.520       373
23.530       400
23.540       340
23.550       373
23.560       340
23.570       473
23.580       367
23.590       387
23.600       400
23.610       313
23.620       347
23.630       327
23.640       413
23.650       340
23.660       393
23.670       333
23.680       360
23.690       247
23.700       320
23.710       380
23.720       300
23.730       307
23.740       367
23.750       287
23.760       367
23.770       267
23.780       227
23.790       287
23.800       287
23.810       387
23.820       300
23.830       413
23.840       253
23.850       320
23.860       327
23.870       380
23.880       353
23.890       247
23.900       373
23.910       393
23.920       353
23.930       347
23.940       347
23.950       360
23.960       260
23.970       260
23.980       453
23.990       333
24.000       167
24.010       400
24.020       420
24.030       273
24.040       327
24.050       380
24.060       320
24.070       307
24.080       293
24.090       333
24.100       373
24.110       327
24.120       267
24.130       300
24.140       333
24.150       353
24.160       360
24.170       373
24.180       393
24.190       347
24.200       327
24.210       347
24.220       287
24.230       240
24.240       320
24.250       273
24.260       300
24.270       300
24.280       267
24.290       293
24.300       293
24.310       300
24.320       327
24.330       327
24.340       313
24.350       267
24.360       300
24.370       280
24.380       340
24.390       273
24.400       307
24.410       287
24.420       307
24.430       327
24.440       307
24.450       307
24.460       240
24.470       247
24.480       287
24.490       293
24.500       253
24.510       280
24.520       340
24.530       307
24.540       287
24.550       333
24.560       267
24.570       393
24.580       327
24.590       240
24.600       240
24.610       247
24.620       333
24.630       260
24.640       267
24.650       353
24.660       240
24.670       407
24.680       267
24.690       233
24.700       307
24.710       380
24.720       253
24.730       293
24.740       260
24.750       287
24.760       280
24.770       320
24.780       327
24.790       253
24.800       233
24.810       287
24.820       380
24.830       280
24.840       207
24.850       320
24.860       333
24.870       380
24.880       300
24.890       287
24.900       320
24.910       340
24.920       287
24.930       287
24.940       307
24.950       267
24.960       220
24.970       327
24.980       273
24.990       247
25.000       293
25.010       220
25.020       213
25.030       220
25.040       300
25.050       320
25.060       253
25.070       173
25.080       253
25.090       293
25.100       273
25.110       347
25.120       220
25.130       287
25.140       287
25.150       213
25.160       280
25.170       347
25.180       240
25.190       233
25.200       227
25.210       253
25.220       273
25.230       247
25.240       240
25.250       240
25.260       300
25.270       307
25.280       207
25.290       267
25.300       213
25.310       273
25.320       280
25.330       233
25.340       347
25.350       220
25.360       287
25.370       273
25.380       173
25.390       253
25.400       287
25.410       180
25.420       227
25.430       233
25.440       260
25.450       260
25.460       213
25.470       213
25.480       293
25.490       253
25.500       287
25.510       260
25.520       247
25.530       260
25.540       293
25.550       207
25.560       280
25.570       213
25.580       240
25.590       227
25.600       333
25.610       287
25.620       207
25.630       180
25.640       213
25.650       220
25.660       260
25.670       140
25.680       200
25.690       167
25.700       227
25.710       120
25.720       233
25.730       127
25.740       207
25.750       107
25.760       180
25.770       173
25.780       147
25.790       187
25.800       193
25.810       200
25.820        73
25.830       120
25.840       147
25.850       187
25.860       167
25.870       153
25.880       207
25.890       160
25.900       173
25.910       187
25.920       193
25.930       187
25.940       100
25.950       193
25.960       220
25.970       160
25.980       193
25.990       187
26.000       100
26.010       160
26.020       133
26.030       133
26.040       140
26.050       133
26.060       133
26.070       133
26.080       140
26.090       127
26.100       160
26.110        73
26.120       160
26.130       113
26.140       133
26.150       113
26.160       147
26.170       147
26.180       127
26.190       147
26.200       173
26.210       133
26.220       173
26.230       120
26.240       120
26.250       153
26.260       187
26.270       213
26.280       147
26.290       127
26.300       147
26.310       107
26.320       127
26.330       167
26.340       107
26.350       133
26.360       147
26.370       120
26.380       140
26.390       120
26.400       127
26.410       233
26.420       120
26.430       147
26.440       100
26.450       113
26.460       153
26.470       127
26.480       133
26.490       133
26.500       120
26.510        87
26.520       120
26.530       113
26.540       147
26.550       140
26.560       113
26.570       133
26.580       153
26.590       120
26.600       113
26.610       133
26.620       120
26.630       120
26.640       147
26.650       133
26.660       120
26.670       107
26.680       180
26.690       113
26.700       140
26.710        67
26.720       147
26.730       173
26.740       160
26.750       113
26.760       153
26.770       100
26.780       140
26.790       107
26.800       173
26.810       187
26.820       107
26.830       200
26.840       107
26.850       127
26.860       127
26.870       133
26.880       133
26.890       107
26.900       127
26.910       160
26.920       133
26.930       133
26.940       127
26.950        93
26.960       100
26.970       127
26.980        87
26.990       160
27.000       127
27.010       107
27.020       120
27.030       140
27.040       133
27.050       120
27.060       127
27.070       127
27.080        80
27.090        53
27.100       133
27.110       120
27.120       153
27.130        80
27.140       160
27.150        93
27.160       147
27.170       100
27.180       147
27.190       153
27.200       153
27.210       113
27.220       133
27.230       147
27.240        93
27.250       100
27.260       120
27.270       100
27.280       113
27.290       127
27.300        87
27.310       100
27.320       140
27.330       153
27.340       113
27.350       127
27.360       160
27.370        80
27.380       133
27.390       120
27.400       153
27.410       113
27.420       100
27.430       127
27.440       160
27.450        67
27.460       113
27.470        87
27.480       133
27.490       100
27.500        87
27.510       140
27.520       153
27.530       167
27.540       160
27.550       127
27.560        80
27.570        80
27.580       113
27.590       133
27.600       133
27.610       113
27.620       133
27.630       127
27.640       167
27.650        87
27.660       100
27.670        93
27.680        73
27.690        53
27.700        60
27.710       120
27.720        80
27.730       100
27.740       107
27.750       113
27.760        93
27.770       167
27.780       140
27.790       120
27.800        87
27.810       120
27.820       127
27.830       173
27.840        80
27.850        93
27.860        93
27.870        87
27.880       120
27.890       100
27.900        87
27.910       107
27.920        47
27.930       100
27.940        93
27.950       127
27.960       100
27.970        80
27.980        93
27.990       173
28.000        87
28.010       100
28.020       113
28.030        67
28.040       107
28.050        93
28.060        60
28.070       120
28.080        80
28.090       127
28.100       147
28.110       113
28.120       167
28.130       100
28.140        87
28.150        93
28.160        93
28.170       140
28.180        40
28.190        53
28.200       100
28.210       147
28.220       167
28.230       160
28.240       113
28.250        60
28.260        53
28.270       113
28.280       127
28.290       107
28.300       107
28.310        67
28.320        87
28.330        80
28.340       100
28.350        80
28.360       100
28.370       133
28.380       173
28.390       120
28.400       113
28.410       153
28.420       133
28.430       120
28.440        87
28.450        80
28.460       120
28.470        87
28.480       147
28.490       107
28.500       147
28.510       127
28.520       100
28.530        87
28.540       147
28.550       167
28.560        73
28.570        93
28.580        93
28.590       107
28.600       140
28.610       107
28.620       100
28.630       100
28.640       107
28.650        67
28.660       100
28.670       140
28.680        87
28.690        80
28.700       100
28.710       133
28.720       113
28.730       113
28.740       100
28.750        73
28.760       133
28.770       127
28.780       113
28.790        87
28.800       107
28.810        73
28.820       107
28.830        87
28.840       153
28.850       127
28.860       107
28.870        87
28.880        93
28.890       100
28.900       140
28.910       107
28.920       120
28.930       107
28.940       100
28.950        93
28.960       120
28.970        80
28.980       133
28.990        93
29.000        93
29.010       107
29.020        93
29.030        73
29.040       120
29.050        93
29.060       107
29.070       127
29.080        80
29.090       107
29.100        87
29.110       113
29.120       113
29.130       120
29.140       147
29.150       120
29.160       160
29.170       120
29.180        73
29.190       127
29.200        80
29.210       100
29.220       133
29.230       113
29.240       140
29.250       107
29.260       100
29.270       100
29.280       127
29.290       133
29.300       173
29.310        80
29.320       120
29.330       147
29.340        87
29.350        60
29.360       113
29.370       107
29.380        60
29.390        67
29.400        67
29.410        60
29.420       100
29.430       107
29.440       193
29.450       140
29.460       113
29.470       100
29.480       107
29.490        93
29.500        73
29.510        87
29.520       100
29.530       100
29.540        87
29.550        87
29.560       100
29.570       113
29.580       153
29.590       120
29.600       120
29.610        87
29.620        80
29.630       120
29.640       127
29.650       173
29.660        73
29.670       140
29.680       133
29.690       113
29.700        87
29.710        87
29.720        93
29.730        80
29.740       107
29.750        87
29.760       127
29.770       100
29.780       133
29.790        67
29.800        87
29.810        93
29.820       133
29.830        87
29.840        73
29.850        80
29.860        80
29.870        87
29.880       107
29.890       113
29.900       100
29.910       107
29.920        87
29.930        93
29.940       147
29.950        93
29.960        93
29.970        93
29.980       107
29.990        73
30.000       113
30.010       173
30.020       127
30.030       173
30.040       187
30.050       113
30.060        53
30.070       133
30.080        87
30.090       140
30.100        93
30.110       107
30.120       113
30.130       100
30.140       107
30.150        67
30.160       120
30.170        80
30.180       120
30.190       113
30.200       100
30.210        93
30.220        53
30.230        87
30.240       120
30.250       147
30.260       100
30.270        73
30.280        53
30.290        87
30.300       100
30.310       100
30.320       113
30.330        67
30.340        93
30.350       107
30.360       120
30.370        87
30.380       100
30.390       133
30.400       100
30.410       100
30.420        80
30.430        93
30.440       127
30.450       113
30.460        93
30.470       120
30.480       133
30.490       193
30.500       107
30.510       120
30.520       120
30.530        87
30.540        87
30.550       120
30.560       100
30.570       133
30.580        60
30.590        67
30.600       100
30.610       180
30.620        80
30.630       127
30.640       167
30.650       120
30.660       167
30.670        93
30.680       160
30.690       100
30.700       120
30.710        93
30.720        93
30.730       133
30.740        73
30.750       107
30.760       167
30.770       120
30.780       140
30.790       120
30.800       153
30.810       113
30.820       120
30.830       140
30.840       140
30.850       100
30.860       120
30.870        93
30.880        47
30.890       120
30.900       100
30.910       153
30.920       147
30.930       100
30.940       153
30.950       173
30.960       100
30.970       113
30.980       120
30.990       153
31.000       133
31.010        73
31.020        80
31.030       120
31.040        87
31.050       167
31.060       153
31.070       140
31.080       113
31.090       133
31.100        93
31.110       147
31.120       133
31.130       160
31.140       160
31.150       147
31.160       153
31.170       127
31.180       173
31.190       167
31.200       120
31.210       167
31.220        93
31.230        73
31.240       133
31.250       100
31.260       140
31.270       160
31.280       107
31.290       133
31.300       160
31.310       120
31.320       120
31.330       193
31.340       107
31.350       107
31.360       160
31.370       100
31.380        67
31.390       133
31.400       160
31.410       173
31.420       207
31.430       167
31.440       120
31.450       113
31.460        93
31.470       113
31.480       120
31.490       113
31.500       160
31.510       147
31.520       173
31.530       147
31.540       147
31.550       127
31.560       153
31.570       160
31.580       220
31.590       153
31.600       180
31.610       187
31.620       153
31.630       167
31.640       160
31.650       107
31.660       187
31.670       187
31.680       180
31.690       200
31.700       207
31.710       220
31.720       200
31.730       167
31.740       267
31.750       153
31.760       160
31.770       227
31.780       220
31.790       193
31.800       227
31.810       193
31.820       153
31.830       293
31.840       280
31.850       387
31.860       313
31.870       373
31.880       247
31.890       400
31.900       367
31.910       347
31.920       367
31.930       367
31.940       367
31.950       433
31.960       400
31.970       360
31.980       480
31.990       293
32.000       533
32.010       520
32.020       606
32.030       493
32.040       646
32.050       893
32.060      1319
32.070      1726
32.080      2312
32.090      2506
32.100      2812
32.110      2812
32.120      2912
32.130      2532
32.140      1979
32.150      1659
32.160      1166
32.170       646
32.180       673
32.190       513
32.200       453
32.210       280
32.220       506
32.230       360
32.240       340
32.250       313
32.260       333
32.270       300
32.280       307
32.290       280
32.300       187
32.310       213
32.320       207
32.330       193
32.340       193
32.350       253
32.360       180
32.370       307
32.380       187
32.390       180
32.400       207
32.410       140
32.420       260
32.430       173
32.440       220
32.450       207
32.460       240
32.470       173
32.480       240
32.490       180
32.500       127
32.510       273
32.520       207
32.530       267
32.540       180
32.550       240
32.560       260
32.570       200
32.580       187
32.590       180
32.600       147
32.610       180
32.620       233
32.630       167
32.640       160
32.650       133
32.660       247
32.670       153
32.680       153
32.690       213
32.700       180
32.710       133
32.720       207
32.730       173
32.740       113
32.750       200
32.760       247
32.770       220
32.780       187
32.790       227
32.800       160
32.810       127
32.820       193
32.830       173
32.840       187
32.850       167
32.860       113
32.870       160
32.880       180
32.890       173
32.900       140
32.910       167
32.920       160
32.930       147
32.940       193
32.950       120
32.960       167
32.970       253
32.980       113
32.990       213
33.000       200
33.010       147
33.020       140
33.030       180
33.040       140
33.050       113
33.060       193
33.070       160
33.080       200
33.090       167
33.100       140
33.110       180
33.120       147
33.130       180
33.140       167
33.150       200
33.160       227
33.170       153
33.180       233
33.190       120
33.200       147
33.210       133
33.220       113
33.230       147
33.240       200
33.250       100
33.260       227
33.270       193
33.280       180
33.290       127
33.300       213
33.310       180
33.320       173
33.330       133
33.340       213
33.350       167
33.360       187
33.370       213
33.380       153
33.390       147
33.400       207
33.410       180
33.420       173
33.430       207
33.440       213
33.450       113
33.460       153
33.470       133
33.480       153
33.490       153
33.500       133
33.510       187
33.520       133
33.530       147
33.540       113
33.550       133
33.560       153
33.570       167
33.580       160
33.590       167
33.600       100
33.610       180
33.620       173
33.630       160
33.640       160
33.650       187
33.660       120
33.670       193
33.680       140
33.690       147
33.700       160
33.710       153
33.720       120
33.730       207
33.740       167
33.750       187
33.760       187
33.770       120
33.780       173
33.790       207
33.800       173
33.810       260
33.820       153
33.830       107
33.840       160
33.850       173
33.860       213
33.870       147
33.880       213
33.890       193
33.900       120
33.910       153
33.920       193
33.930        93
33.940       127
33.950       140
33.960       180
33.970       247
33.980       167
33.990       160
34.000       113
34.010       147
34.020       147
34.030       160
34.040       167
34.050       153
34.060       200
34.070       207
34.080       253
34.090       167
34.100       213
34.110       200
34.120       127
34.130       160
34.140       153
34.150       220
34.160       113
34.170       160
34.180       167
34.190       193
34.200       133
34.210       160
34.220       167
34.230       193
34.240       140
34.250       167
34.260       160
34.270       213
34.280       160
34.290       220
34.300       187
34.310       207
34.320       240
34.330       340
34.340       253
34.350       333
34.360       267
34.370       480
34.380       520
34.390       680
34.400       713
34.410       866
34.420       906
34.430       813
34.440       933
34.450      1080
34.460       946
34.470       953
34.480       960
34.490       780
34.500       980
34.510       860
34.520      1040
34.530       973
34.540       980
34.550       853
34.560       913
34.570       906
34.580      1026
34.590       986
34.600       973
34.610       920
34.620      1000
34.630       913
34.640       920
34.650       833
34.660       940
34.670      1013
34.680       946
34.690      1080
34.700       826
34.710       920
34.720       926
34.730       926
34.740       966
34.750      1093
34.760      1040
34.770       906
34.780       893
34.790       966
34.800      1026
34.810      1066
34.820       940
34.830       893
34.840       913
34.850       966
34.860       766
34.870      1040
34.880       966
34.890      1053
34.900      1133
34.910      1160
34.920      1020
34.930      1073
34.940       926
34.950      1073
34.960      1053
34.970      1040
34.980       893
34.990      1013
35.000       966
35.010       953
35.020       966
35.030      1046
35.040      1026
35.050      1060
35.060      1120
35.070      1073
35.080       986
35.090      1233
35.100      1186
35.110      1066
35.120      1146
35.130      1073
35.140      1086
35.150      1146
35.160      1173
35.170      1160
35.180      1366
35.190      1133
35.200      1200
35.210      1213
35.220      1220
35.230      1313
35.240      1279
35.250      1373
35.260      1306
35.270      1379
35.280      1626
35.290      1679
35.300      1579
35.310      1526
35.320      1726
35.330      1759
35.340      1979
35.350      1819
35.360      2066
35.370      2352
35.380      2619
35.390      3139
35.400      3765
35.410      4851
35.420      5724
35.430      7637
35.440      9363
35.450     10602
35.460     12222
35.470     13361
35.480     14674
35.490     15820
35.500     16347
35.510     16947
35.520     17646
35.530     19259
35.540     21371
35.550     24090
35.560     30388
35.570     41843
35.580     69919
35.590    118426
35.600    172564
35.610    209929
35.620    227316
35.630    233053
35.640    233500
35.650    230115
35.660    212848
35.670    181734
35.680    146228
35.690    133027
35.700    141430
35.710    150353
35.720    154805
35.730    154578
35.740    150327
35.750    136405
35.760    108690
35.770     76396
35.780     45182
35.790     27556
35.800     19552
35.810     16047
35.820     13261
35.830     11769
35.840      9789
35.850      8690
35.860      7690
35.870      6897
35.880      5691
35.890      5205
35.900      4225
35.910      3619
35.920      3325
35.930      2899
35.940      2512
35.950      2366
35.960      2326
35.970      2172
35.980      2033
35.990      1873
36.000      1919
36.010      1859
36.020      1719
36.030      1939
36.040      1713
36.050      1879
36.060      1819
36.070      1539
36.080      1399
36.090      1493
36.100      1553
36.110      1573
36.120      1220
36.130      1346
36.140      1226
36.150      1273
36.160      1373
36.170      1466
36.180      1286
36.190      1186
36.200      1133
36.210      1206
36.220      1206
36.230      1306
36.240      1013
36.250      1153
36.260      1100
36.270      1100
36.280       906
36.290      1060
36.300       906
36.310      1160
36.320      1086
36.330       946
36.340       953
36.350       953
36.360       940
36.370       820
36.380       933
36.390       993
36.400       913
36.410       960
36.420       953
36.430       780
36.440       960
36.450       966
36.460       906
36.470       786
36.480       726
36.490       786
36.500       833
36.510       960
36.520       886
36.530       820
36.540       800
36.550       873
36.560       953
36.570       866
36.580       866
36.590       900
36.600       846
36.610       833
36.620       920
36.630       773
36.640       706
36.650       826
36.660       753
36.670       600
36.680       686
36.690       686
36.700       653
36.710       813
36.720       713
36.730       686
36.740       853
36.750       686
36.760       680
36.770       820
36.780       706
36.790       700
36.800       746
36.810       673
36.820       700
36.830       706
36.840       746
36.850       820
36.860       633
36.870       740
36.880       746
36.890       733
36.900       653
36.910       713
36.920       586
36.930       626
36.940       800
36.950       640
36.960       746
36.970       680
36.980       646
36.990       673
37.000       673
37.010       686
37.020       653
37.030       593
37.040       673
37.050       566
37.060       706
37.070       746
37.080       620
37.090       680
37.100       720
37.110       520
37.120       680
37.130       653
37.140       653
37.150       613
37.160       600
37.170       646
37.180       486
37.190       640
37.200       573
37.210       673
37.220       660
37.230       680
37.240       600
37.250       560
37.260       733
37.270       553
37.280       646
37.290       666
37.300       620
37.310       566
37.320       613
37.330       446
37.340       613
37.350       613
37.360       553
37.370       513
37.380       666
37.390       513
37.400       593
37.410       513
37.420       540
37.430       560
37.440       640
37.450       493
37.460       520
37.470       606
37.480       533
37.490       640
37.500       560
37.510       673
37.520       586
37.530       573
37.540       560
37.550       580
37.560       560
37.570       513
37.580       573
37.590       506
37.600       626
37.610       573
37.620       600
37.630       493
37.640       586
37.650       473
37.660       613
37.670       506
37.680       560
37.690       580
37.700       526
37.710       533
37.720       546
37.730       486
37.740       626
37.750       533
37.760       546
37.770       466
37.780       580
37.790       580
37.800       646
37.810       480
37.820       593
37.830       453
37.840       506
37.850       560
37.860       640
37.870       606
37.880       526
37.890       466
37.900       513
37.910       533
37.920       433
37.930       573
37.940       566
37.950       560
37.960       520
37.970       586
37.980       606
37.990       493
38.000       506
38.010       540
38.020       560
38.030       466
38.040       540
38.050       526
38.060       606
38.070       586
38.080       586
38.090       653
38.100       446
38.110       573
38.120       473
38.130       493
38.140       586
38.150       420
38.160       446
38.170       586
38.180       387
38.190       473
38.200       426
38.210       540
38.220       460
38.230       500
38.240       440
38.250       593
38.260       486
38.270       493
38.280       500
38.290       446
38.300       580
38.310       613
38.320       466
38.330       460
38.340       580
38.350       520
38.360       473
38.370       400
38.380       433
38.390       320
38.400       486
38.410       546
38.420       433
38.430       540
38.440       493
38.450       486
38.460       446
38.470       413
38.480       446
38.490       393
38.500       473
38.510       480
38.520       387
38.530       486
38.540       413
38.550       400
38.560       407
38.570       486
38.580       453
38.590       400
38.600       466
38.610       493
38.620       553
38.630       393
38.640       453
38.650       493
38.660       486
38.670       420
38.680       446
38.690       453
38.700       400
38.710       426
38.720       373
38.730       360
38.740       420
38.750       393
38.760       486
38.770       546
38.780       453
38.790       426
38.800       460
38.810       460
38.820       433
38.830       433
38.840       500
38.850       420
38.860       480
38.870       493
38.880       473
38.890       373
38.900       486
38.910       393
38.920       353
38.930       633
38.940       460
38.950       400
38.960       367
38.970       420
38.980       533
38.990       407
39.000       426
39.010       466
39.020       360
39.030       513
39.040       466
39.050       333
39.060       486
39.070       347
39.080       446
39.090       506
39.100       526
39.110       400
39.120       407
39.130       420
39.140       426
39.150       446
39.160       327
39.170       433
39.180       453
39.190       373
39.200       367
39.210       520
39.220       333
39.230       400
39.240       426
39.250       526
39.260       387
39.270       420
39.280       460
39.290       380
39.300       426
39.310       433
39.320       426
39.330       420
39.340       553
39.350       420
39.360       453
39.370       506
39.380       380
39.390       426
39.400       380
39.410       546
39.420       393
39.430       446
39.440       566
39.450       486
39.460       440
39.470       400
39.480       526
39.490       540
39.500       493
39.510       580
39.520       473
39.530       573
39.540       533
39.550       593
39.560       433
39.570       573
39.580       520
39.590       506
39.600       440
39.610       480
39.620       460
39.630       313
39.640       460
39.650       460
39.660       486
39.670       473
39.680       373
39.690       367
39.700       413
39.710       380
39.720       320
39.730       466
39.740       460
39.750       327
39.760       453
39.770       353
39.780       293
39.790       367
39.800       400
39.810       400
39.820       347
39.830       493
39.840       413
39.850       353
39.860       380
39.870       373
39.880       373
39.890       373
39.900       473
39.910       333
39.920       453
39.930       373
39.940       380
39.950       367
39.960       380
39.970       273
39.980       420
39.990       313
40.000       360
40.010       393
40.020       320
40.030       327
40.040       413
40.050       307
40.060       360
40.070       353
40.080       287
40.090       400
40.100       327
40.110       400
40.120       347
40.130       353
40.140       353
40.150       380
40.160       320
40.170       313
40.180       360
40.190       360
40.200       300
40.210       267
40.220       273
40.230       387
40.240       327
40.250       347
40.260       327
40.270       327
40.280       360
40.290       360
40.300       413
40.310       373
40.320       360
40.330       367
40.340       426
40.350       320
40.360       280
40.370       293
40.380       280
40.390       333
40.400       320
40.410       320
40.420       373
40.430       320
40.440       353
40.450       360
40.460       307
40.470       387
40.480       313
40.490       367
40.500       327
40.510       327
40.520       353
40.530       327
40.540       360
40.550       313
40.560       327
40.570       373
40.580       287
40.590       273
40.600       400
40.610       300
40.620       407
40.630       307
40.640       340
40.650       273
40.660       380
40.670       300
40.680       347
40.690       340
40.700       347
40.710       367
40.720       300
40.730       307
40.740       373
40.750       380
40.760       333
40.770       400
40.780       340
40.790       293
40.800       327
40.810       327
40.820       260
40.830       293
40.840       340
40.850       333
40.860       313
40.870       273
40.880       333
40.890       307
40.900       320
40.910       293
40.920       347
40.930       300
40.940       340
40.950       347
40.960       307
40.970       273
40.980       466
40.990       373
41.000       287
41.010       353
41.020       373
41.030       380
41.040       307
41.050       360
41.060       340
41.070       213
41.080       193
41.090       367
41.100       327
41.110       287
41.120       287
41.130       400
41.140       293
41.150       240
41.160       320
41.170       227
41.180       327
41.190       300
41.200       380
41.210       293
41.220       307
41.230       307
41.240       253
41.250       353
41.260       373
41.270       253
41.280       293
41.290       293
41.300       380
41.310       293
41.320       327
41.330       353
41.340       227
41.350       287
41.360       280
41.370       293
41.380       367
41.390       380
41.400       327
41.410       240
41.420       307
41.430       280
41.440       307
41.450       267
41.460       300
41.470       327
41.480       260
41.490       253
41.500       220
41.510       300
41.520       273
41.530       280
41.540       260
41.550       253
41.560       287
41.570       320
41.580       320
41.590       207
41.600       267
41.610       313
41.620       280
41.630       207
41.640       233
41.650       227
41.660       247
41.670       227
41.680       293
41.690       333
41.700       233
41.710       300
41.720       187
41.730       213
41.740       260
41.750       307
41.760       320
41.770       273
41.780       213
41.790       287
41.800       327
41.810       253
41.820       253
41.830       307
41.840       327
41.850       273
41.860       160
41.870       280
41.880       313
41.890       280
41.900       267
41.910       273
41.920       300
41.930       347
41.940       233
41.950       227
41.960       260
41.970       327
41.980       253
41.990       227
42.000       327
42.010       180
42.020       293
42.030       267
42.040       307
42.050       273
42.060       260
42.070       207
42.080       260
42.090       280
42.100       267
42.110       293
42.120       247
42.130       207
42.140       293
42.150       240
42.160       227
42.170       360
42.180       220
42.190       247
42.200       233
42.210       240
42.220       280
42.230       193
42.240       207
42.250       247
42.260       273
42.270       253
42.280       233
42.290       287
42.300       300
42.310       233
42.320       287
42.330       367
42.340       247
42.350       247
42.360       280
42.370       267
42.380       327
42.390       240
42.400       280
42.410       307
42.420       293
42.430       200
42.440       247
42.450       227
42.460       253
42.470       293
42.480       200
42.490       220
42.500       240
42.510       193
42.520       160
42.530       240
42.540       200
42.550       193
42.560       240
42.570       247
42.580       233
42.590       233
42.600       360
42.610       333
42.620       287
42.630       233
42.640       247
42.650       253
42.660       253
42.670       280
42.680       260
42.690       207
42.700       247
42.710       220
42.720       227
42.730       287
42.740       213
42.750       180
42.760       227
42.770       267
42.780       300
42.790       287
42.800       253
42.810       207
42.820       273
42.830       253
42.840       247
42.850       233
42.860       213
42.870       253
42.880       167
42.890       273
42.900       227
42.910       240
42.920       247
42.930       227
42.940       193
42.950       193
42.960       233
42.970       240
42.980       160
42.990       227
43.000       233
43.010       253
43.020       247
43.030       207
43.040       260
43.050       207
43.060       200
43.070       200
43.080       220
43.090       253
43.100       167
43.110       200
43.120       200
43.130       153
43.140       213
43.150       187
43.160       187
43.170       253
43.180       220
43.190       213
43.200       213
43.210       240
43.220       227
43.230       180
43.240       267
43.250       140
43.260       200
43.270       207
43.280       240
43.290       253
43.300       193
43.310       153
43.320       273
43.330       207
43.340       193
43.350       273
43.360       247
43.370       207
43.380       247
43.390       307
43.400       173
43.410       167
43.420       193
43.430       153
43.440       260
43.450       220
43.460       233
43.470       200
43.480       247
43.490       160
43.500       193
43.510       247
43.520       200
43.530       187
43.540       207
43.550       200
43.560       207
43.570       273
43.580       167
43.590       233
43.600       200
43.610       200
43.620       200
43.630       160
43.640       220
43.650       187
43.660       253
43.670       120
43.680       227
43.690       260
43.700       220
43.710       227
43.720       180
43.730       193
43.740       173
43.750       240
43.760       193
43.770       253
43.780       167
43.790       213
43.800       200
43.810       247
43.820       213
43.830       173
43.840       187
43.850       160
43.860       133
43.870       213
43.880       207
43.890       233
43.900       220
43.910       207
43.920       180
43.930       260
43.940       173
43.950       100
43.960       167
43.970       213
43.980       260
43.990       180
44.000       193
44.010       213
44.020       173
44.030       167
44.040       133
44.050       260
44.060       227
44.070       247
44.080       180
44.090       220
44.100       173
44.110       173
44.120       180
44.130       187
44.140       260
44.150       167
44.160       233
44.170       173
44.180       173
44.190       213
44.200       180
44.210       187
44.220       160
44.230       147
44.240       260
44.250       167
44.260       107
44.270       220
44.280       153
44.290       193
44.300       133
44.310       200
44.320       233
44.330       187
44.340       127
44.350       180
44.360       147
44.370       153
44.380       213
44.390       227
44.400       153
44.410       227
44.420       180
44.430       253
44.440       180
44.450       187
44.460       140
44.470       213
44.480       113
44.490       167
44.500       200
44.510       207
44.520       153
44.530       193
44.540       147
44.550       220
44.560       220
44.570       193
44.580       273
44.590       127
44.600       153
44.610       140
44.620       160
44.630       187
44.640       187
44.650       167
44.660       160
44.670       180
44.680       180
44.690       180
44.700       233
44.710       240
44.720       153
44.730       160
44.740       160
44.750       173
44.760       180
44.770       187
44.780       160
44.790       180
44.800       167
44.810       207
44.820       147
44.830       180
44.840       200
44.850       200
44.860       100
44.870       233
44.880       120
44.890       167
44.900       167
44.910       267
44.920       113
44.930       200
44.940       180
44.950       153
44.960       187
44.970       133
44.980       180
44.990       180
45.000       180
45.010       260
45.020       207
45.030       193
45.040       167
45.050       187
45.060       207
45.070       193
45.080       213
45.090       193
45.100       233
45.110       227
45.120       193
45.130       200
45.140       187
45.150       220
45.160       173
45.170       153
45.180       113
45.190       187
45.200       233
45.210       227
45.220       300
45.230       233
45.240       147
45.250       207
45.260       227
45.270       167
45.280       147
45.290       247
45.300       220
45.310       253
45.320       220
45.330       287
45.340       247
45.350       307
45.360       220
45.370       247
45.380       233
45.390       293
45.400       307
45.410       287
45.420       273
45.430       333
45.440       247
45.450       320
45.460       333
45.470       293
45.480       287
45.490       347
45.500       426
45.510       333
45.520       500
45.530       446
45.540       347
45.550       433
45.560       373
45.570       400
45.580       466
45.590       367
45.600       546
45.610       726
45.620       500
45.630       546
45.640       586
45.650       606
45.660       593
45.670       693
45.680       746
45.690       893
45.700       886
45.710       760
45.720       920
45.730       900
45.740       800
45.750       820
45.760       973
45.770      1006
45.780       920
45.790      1033
45.800      1046
45.810      1040
45.820      1013
45.830      1020
45.840      1259
45.850      1053
45.860      1186
45.870      1113
45.880      1153
45.890      1299
45.900      1120
45.910      1100
45.920      1180
45.930      1093
45.940      1106
45.950       960
45.960      1053
45.970      1086
45.980      1040
45.990       993
46.000       953
46.010      1040
46.020       760
46.030       786
46.040       773
46.050       840
46.060       773
46.070       646
46.080       620
46.090       586
46.100       513
46.110       733
46.120       613
46.130       480
46.140       526
46.150       466
46.160       606
46.170       446
46.180       506
46.190       413
46.200       353
46.210       407
46.220       433
46.230       407
46.240       347
46.250       373
46.260       287
46.270       253
46.280       327
46.290       307
46.300       280
46.310       220
46.320       393
46.330       207
46.340       173
46.350       333
46.360       187
46.370       227
46.380       207
46.390       327
46.400       233
46.410       207
46.420       253
46.430       200
46.440       220
46.450       240
46.460       293
46.470       207
46.480       273
46.490       180
46.500       273
46.510       167
46.520       193
46.530       173
46.540       220
46.550       140
46.560       247
46.570       220
46.580       220
46.590       240
46.600       227
46.610       207
46.620       173
46.630       153
46.640       207
46.650       173
46.660       167
46.670       207
46.680       133
46.690       173
46.700       127
46.710       133
46.720       153
46.730       153
46.740       153
46.750       140
46.760       187
46.770       180
46.780       140
46.790       207
46.800       120
46.810       227
46.820       207
46.830       147
46.840       147
46.850       127
46.860       173
46.870       167
46.880       167
46.890       213
46.900       193
46.910       160
46.920       140
46.930       160
46.940       160
46.950       140
46.960       133
46.970       147
46.980       107
46.990       160
47.000       207
47.010       187
47.020       127
47.030       100
47.040       180
47.050       167
47.060       113
47.070       180
47.080       120
47.090       127
47.100       107
47.110       147
47.120       113
47.130       147
47.140       220
47.150       107
47.160       133
47.170       140
47.180       147
47.190       153
47.200       147
47.210       100
47.220       133
47.230       180
47.240       113
47.250       147
47.260       147
47.270       133
47.280       107
47.290       107
47.300       153
47.310       147
47.320        87
47.330       213
47.340        60
47.350       140
47.360       133
47.370       133
47.380       133
47.390       187
47.400       133
47.410       140
47.420       140
47.430       133
47.440       167
47.450       127
47.460       147
47.470       133
47.480       120
47.490       160
47.500       113
47.510       140
47.520       120
47.530       113
47.540       153
47.550       147
47.560       153
47.570       100
47.580       100
47.590       120
47.600       113
47.610       133
47.620        93
47.630       180
47.640       173
47.650       140
47.660       113
47.670       127
47.680       127
47.690       153
47.700       120
47.710       127
47.720        60
47.730       140
47.740       113
47.750        80
47.760       100
47.770       167
47.780        80
47.790       140
47.800       100
47.810        93
47.820       133
47.830       127
47.840       127
47.850       107
47.860       113
47.870       133
47.880        80
47.890       120
47.900       113
47.910        93
47.920        93
47.930        93
47.940       140
47.950        60
47.960       140
47.970        93
47.980       147
47.990       107
48.000       107
48.010       107
48.020       100
48.030       100
48.040        93
48.050        73
48.060       127
48.070       160
48.080       113
48.090       153
48.100       127
48.110       153
48.120       167
48.130       113
48.140       153
48.150       147
48.160       127
48.170       153
48.180        87
48.190       140
48.200        93
48.210       133
48.220       100
48.230       167
48.240        87
48.250       120
48.260       127
48.270       107
48.280       107
48.290       140
48.300       147
48.310        93
48.320       107
48.330        73
48.340        87
48.350       153
48.360        93
48.370       100
48.380        93
48.390        60
48.400        73
48.410        73
48.420       140
48.430        93
48.440        87
48.450       107
48.460        67
48.470       127
48.480       100
48.490       133
48.500        93
48.510       120
48.520       120
48.530        93
48.540        53
48.550       187
48.560       127
48.570        80
48.580        80
48.590       107
48.600       107
48.610       133
48.620        93
48.630       147
48.640       107
48.650       113
48.660       113
48.670        67
48.680        87
48.690       107
48.700       147
48.710        87
48.720       100
48.730       140
48.740        87
48.750       120
48.760        87
48.770       113
48.780        93
48.790       113
48.800       127
48.810       107
48.820        93
48.830        73
48.840       153
48.850       113
48.860        87
48.870       127
48.880       113
48.890       133
48.900        93
48.910       100
48.920       100
48.930       127
48.940        93
48.950        80
48.960       133
48.970       100
48.980       120
48.990        73
49.000        80
49.010        93
49.020       120
49.030        93
49.040        80
49.050        80
49.060        53
49.070        80
49.080        93
49.090        53
49.100       107
49.110       100
49.120       100
49.130       120
49.140        60
49.150        87
49.160       100
49.170        93
49.180        87
49.190        93
49.200       113
49.210        87
49.220       140
49.230       140
49.240        87
49.250        93
49.260        87
49.270        93
49.280       140
49.290       120
49.300       173
49.310       113
49.320        87
49.330       133
49.340        73
49.350        87
49.360       140
49.370        87
49.380       107
49.390       140
49.400        87
49.410       107
49.420        93
49.430       107
49.440        93
49.450       113
49.460        53
49.470       133
49.480       167
49.490        73
49.500       120
49.510        67
49.520       140
49.530       113
49.540        73
49.550       133
49.560        93
49.570       147
49.580        53
49.590        47
49.600       127
49.610       100
49.620        80
49.630       127
49.640        73
49.650        93
49.660       147
49.670       100
49.680        87
49.690        73
49.700       133
49.710        53
49.720        93
49.730       113
49.740        87
49.750        47
49.760       133
49.770        73
49.780       113
49.790       107
49.800        73
49.810        93
49.820       107
49.830       133
49.840       100
49.850        80
49.860        87
49.870       113
49.880        87
49.890        93
49.900       107
49.910        60
49.920        60
49.930        87
49.940       107
49.950        53
49.960       100
49.970        67
49.980       113
49.990        80
50.000       120
50.010        93
50.020       120
50.030        87
50.040       127
50.050       133
50.060       113
50.070        73
50.080        80
50.090        93
50.100        73
50.110        87
50.120       127
50.130        93
50.140        93
50.150       113
50.160       107
50.170        93
50.180        67
50.190       100
50.200        93
50.210       133
50.220       100
50.230        93
50.240        87
50.250        73
50.260       113
50.270        67
50.280        73
50.290        87
50.300        93
50.310       107
50.320        87
50.330        67
50.340       113
50.350       127
50.360       100
50.370       107
50.380       127
50.390       120
50.400       127
50.410        53
50.420        73
50.430       113
50.440        73
50.450        53
50.460        80
50.470        93
50.480       107
50.490        60
50.500        87
50.510       127
50.520       113
50.530       107
50.540        53
50.550       120
50.560        60
50.570        67
50.580       113
50.590        87
50.600        67
50.610        67
50.620        93
50.630       100
50.640        40
50.650        93
50.660        93
50.670       120
50.680        93
50.690        67
50.700       100
50.710        93
50.720       113
50.730       133
50.740        87
50.750        93
50.760        73
50.770        53
50.780       107
50.790       107
50.800       100
50.810        60
50.820        80
50.830        47
50.840        67
50.850       153
50.860        60
50.870       100
50.880       100
50.890        80
50.900       100
50.910        93
50.920        40
50.930       100
50.940       140
50.950       120
50.960        73
50.970        73
50.980        87
50.990        93
51.000        80
51.010        73
51.020       120
51.030        80
51.040        93
51.050        93
51.060        73
51.070        93
51.080        67
51.090       127
51.100        87
51.110        67
51.120       100
51.130       120
51.140        67
51.150        67
51.160       140
51.170        33
51.180        40
51.190       107
51.200       127
51.210        60
51.220        67
51.230        80
51.240        93
51.250       107
51.260        73
51.270        73
51.280        87
51.290        73
51.300        80
51.310        93
51.320        80
51.330       120
51.340       107
51.350        33
51.360        60
51.370        67
51.380        47
51.390        60
51.400       107
51.410        67
51.420        73
51.430       100
51.440        87
51.450       120
51.460        93
51.470        67
51.480        67
51.490        87
51.500        87
51.510        87
51.520        93
51.530       120
51.540        87
51.550        53
51.560        33
51.570        80
51.580       133
51.590        47
51.600        47
51.610        47
51.620       113
51.630        80
51.640        80
51.650        93
51.660        87
51.670        60
51.680       100
51.690        73
51.700        80
51.710        67
51.720        73
51.730        60
51.740        53
51.750        93
51.760        67
51.770        67
51.780        60
51.790        60
51.800        47
51.810        60
51.820        40
51.830       120
51.840       113
51.850        93
51.860        73
51.870        80
51.880        53
51.890       107
51.900        60
51.910        87
51.920        93
51.930        60
51.940        80
51.950        47
51.960       127
51.970        53
51.980       113
51.990        73
52.000        73
52.010        73
52.020        60
52.030        73
52.040        53
52.050        67
52.060        67
52.070        27
52.080       113
52.090        40
52.100       100
52.110        67
52.120        80
52.130       113
52.140        47
52.150        40
52.160        93
52.170       120
52.180        27
52.190        67
52.200       107
52.210        73
52.220       100
52.230        47
52.240       100
52.250        33
52.260        80
52.270        67
52.280       113
52.290        40
52.300        93
52.310        80
52.320        93
52.330        87
52.340        40
52.350       147
52.360       113
52.370       113
52.380        27
52.390        67
52.400        67
52.410       100
52.420       100
52.430        93
52.440        67
52.450        47
52.460        73
52.470       100
52.480        80
52.490       107
52.500        80
52.510        73
52.520        93
52.530        53
52.540        93
52.550        53
52.560        67
52.570        67
52.580        80
52.590        80
52.600        67
52.610        20
52.620       100
52.630       107
52.640        60
52.650       100
52.660       113
52.670        93
52.680        73
52.690        73
52.700       120
52.710        60
52.720        40
52.730       120
52.740        87
52.750        67
52.760        80
52.770       113
52.780        33
52.790        80
52.800       100
52.810        80
52.820        87
52.830        80
52.840       100
52.850       113
52.860        73
52.870        87
52.880        60
52.890        80
52.900        87
52.910       100
52.920        80
52.930        67
52.940        47
52.950       100
52.960        87
52.970       100
52.980        80
52.990        87
53.000        53
53.010        80
53.020        73
53.030        67
53.040        60
53.050        60
53.060        87
53.070       100
53.080        73
53.090        73
53.100        80
53.110        67
53.120        73
53.130        53
53.140        80
53.150        67
53.160        47
53.170        60
53.180       100
53.190        53
53.200        67
53.210        47
53.220        40
53.230        33
53.240       113
53.250        47
53.260        93
53.270        80
53.280       100
53.290        87
53.300        87
53.310        73
53.320        47
53.330        60
53.340        67
53.350       100
53.360        93
53.370       100
53.380       127
53.390        47
53.400        67
53.410       113
53.420        60
53.430        67
53.440       107
53.450        87
53.460        80
53.470        60
53.480        60
53.490       100
53.500        93
53.510        93
53.520        73
53.530        93
53.540        60
53.550        80
53.560        53
53.570        47
53.580        67
53.590        73
53.600       107
53.610        60
53.620        73
53.630       100
53.640        80
53.650        80
53.660        73
53.670        40
53.680        87
53.690       113
53.700       113
53.710        40
53.720        93
53.730        67
53.740        53
53.750        73
53.760        93
53.770        93
53.780        73
53.790        67
53.800        93
53.810        67
53.820        93
53.830        80
53.840        47
53.850        67
53.860        87
53.870        67
53.880        40
53.890        53
53.900        67
53.910        67
53.920        80
53.930        60
53.940        53
53.950        53
53.960        67
53.970       113
53.980        87
53.990        87
54.000        33
54.010       100
54.020       107
54.030        60
54.040        33
54.050        87
54.060        53
54.070        67
54.080        53
54.090        67
54.100        53
54.110        40
54.120        87
54.130        80
54.140        60
54.150        67
54.160        47
54.170       120
54.180        20
54.190        87
54.200       100
54.210        87
54.220        87
54.230        67
54.240        60
54.250        60
54.260        93
54.270        80
54.280        40
54.290        73
54.300        60
54.310        87
54.320        87
54.330        80
54.340       140
54.350        67
54.360       113
54.370        53
54.380        73
54.390        60
54.400        33
54.410        47
54.420        27
54.430        67
54.440        67
54.450        93
54.460       107
54.470        67
54.480        67
54.490       107
54.500       100
54.510        73
54.520        47
54.530        60
54.540        80
54.550        60
54.560       100
54.570        60
54.580       113
54.590        80
54.600        87
54.610        87
54.620        87
54.630        87
54.640        60
54.650        40
54.660        80
54.670        80
54.680        73
54.690        13
54.700        33
54.710        67
54.720        80
54.730        40
54.740        67
54.750       100
54.760       120
54.770        47
54.780        47
54.790        87
54.800        53
54.810        53
54.820        67
54.830        60
54.840        87
54.850        87
54.860        60
54.870        40
54.880       113
54.890        80
54.900        47
54.910        67
54.920        87
54.930        80
54.940        53
54.950        47
54.960        40
54.970        53
54.980        73
54.990       100
55.000        73
55.010        27
55.020        67
55.030        80
55.040        80
55.050        53
55.060        87
55.070        53
55.080        47
55.090        40
55.100       100
55.110        73
55.120        67
55.130        73
55.140        33
55.150        80
55.160        80
55.170        87
55.180        87
55.190        80
55.200        73
55.210        93
55.220       120
55.230        87
55.240        67
55.250        60
55.260        67
55.270        67
55.280        60
55.290        67
55.300        80
55.310        80
55.320        73
55.330        87
55.340        87
55.350        47
55.360        53
55.370       113
55.380        60
55.390        53
55.400        33
55.410        67
55.420        67
55.430        80
55.440        87
55.450        47
55.460        60
55.470        87
55.480        80
55.490        80
55.500        60
55.510        73
55.520        53
55.530        40
55.540       113
55.550        53
55.560        33
55.570        33
55.580        67
55.590        80
55.600       107
55.610       140
55.620        67
55.630        87
55.640        67
55.650        27
55.660        73
55.670        67
55.680        53
55.690        73
55.700        93
55.710        93
55.720        47
55.730        60
55.740        67
55.750        40
55.760        87
55.770        47
55.780        60
55.790        60
55.800        47
55.810       113
55.820        60
55.830        80
55.840        60
55.850        27
55.860        53
55.870        60
55.880        53
55.890        47
55.900        87
55.910        40
55.920        47
55.930        93
55.940        47
55.950        53
55.960        60
55.970        47
55.980        47
55.990       100
56.000        53
56.010        47
56.020       120
56.030        40
56.040        47
56.050        67
56.060        80
56.070        60
56.080        93
56.090        73
56.100        67
56.110        73
56.120        73
56.130        93
56.140        33
56.150        60
56.160        67
56.170        73
56.180        47
56.190        33
56.200        47
56.210        33
56.220        27
56.230       113
56.240        73
56.250        33
56.260        53
56.270        93
56.280        53
56.290        93
56.300        47
56.310        47
56.320        47
56.330        60
56.340        33
56.350        73
56.360        80
56.370        93
56.380        53
56.390        67
56.400        40
56.410        73
56.420        67
56.430        53
56.440        53
56.450        80
56.460        60
56.470        53
56.480        67
56.490        33
56.500        60
56.510        87
56.520        27
56.530        80
56.540        60
56.550        73
56.560        87
56.570        67
56.580        13
56.590        40
56.600        80
56.610       107
56.620        47
56.630        53
56.640        73
56.650        47
56.660        33
56.670        67
56.680        60
56.690        93
56.700        67
56.710        27
56.720        67
56.730        60
56.740        73
56.750        67
56.760        80
56.770        53
56.780        40
56.790        87
56.800        67
56.810        60
56.820        73
56.830        53
56.840        47
56.850        80
56.860        87
56.870        73
56.880        53
56.890        53
56.900       100
56.910       113
56.920        67
56.930        80
56.940       100
56.950        73
56.960        80
56.970        27
56.980        93
56.990       100
57.000       113
57.010        67
57.020        40
57.030        60
57.040        87
57.050       100
57.060        87
57.070       107
57.080        73
57.090        60
57.100        93
57.110       120
57.120        80
57.130       100
57.140        93
57.150       113
57.160        87
57.170       167
57.180        60
57.190        87
57.200        60
57.210       173
57.220        33
57.230       120
57.240        73
57.250        53
57.260       100
57.270        27
57.280        60
57.290        73
57.300       100
57.310        67
57.320       107
57.330        73
57.340        67
57.350        87
57.360        53
57.370        60
57.380        60
57.390        67
57.400        87
57.410        80
57.420        73
57.430        60
57.440        80
57.450        60
57.460        60
57.470        67
57.480        80
57.490        67
57.500        67
57.510        47
57.520        60
57.530        53
57.540       100
57.550        20
57.560        47
57.570        80
57.580        80
57.590        47
57.600       113
57.610        67
57.620        60
57.630        80
57.640        67
57.650        27
57.660        80
57.670        73
57.680        33
57.690        67
57.700        93
57.710        73
57.720        73
57.730        60
57.740        80
57.750       100
57.760        73
57.770        93
57.780        40
57.790        40
57.800        47
57.810        87
57.820        73
57.830        87
57.840        20
57.850        60
57.860        27
57.870        93
57.880        47
57.890        33
57.900        80
57.910        53
57.920        73
57.930        67
57.940        73
57.950        73
57.960        27
57.970        60
57.980        53
57.990        53
58.000       107
58.010        60
58.020        73
58.030        60
58.040        73
58.050        53
58.060        53
58.070        80
58.080        47
58.090        80
58.100        60
58.110        67
58.120        47
58.130        67
58.140        53
58.150        67
58.160        33
58.170        53
58.180        73
58.190        40
58.200        60
58.210        53
58.220        73
58.230        53
58.240        73
58.250        73
58.260       100
58.270        53
58.280        87
58.290        53
58.300        67
58.310        47
58.320        73
58.330        47
58.340        67
58.350        80
58.360        87
58.370        67
58.380        87
58.390        73
58.400        67
58.410        33
58.420        20
58.430        67
58.440        40
58.450        53
58.460        53
58.470        60
58.480        67
58.490        80
58.500        53
58.510        53
58.520        93
58.530        67
58.540        33
58.550        53
58.560        60
58.570        73
58.580        40
58.590        53
58.600        53
58.610        47
58.620        47
58.630        60
58.640        47
58.650        87
58.660        47
58.670        33
58.680        87
58.690        67
58.700        47
58.710        40
58.720       113
58.730        67
58.740        53
58.750        67
58.760        33
58.770        80
58.780        53
58.790        27
58.800        67
58.810        73
58.820        33
58.830        47
58.840        53
58.850        80
58.860       100
58.870        60
58.880        53
58.890        67
58.900        60
58.910        67
58.920        40
58.930        73
58.940        67
58.950        47
58.960        67
58.970        47
58.980        80
58.990        67
59.000        80
59.010        53
59.020        87
59.030        80
59.040        27
59.050        60
59.060        40
59.070        67
59.080        40
59.090        80
59.100        47
59.110        33
59.120        80
59.130        47
59.140        60
59.150        87
59.160        73
59.170        80
59.180        40
59.190        40
59.200        40
59.210        53
59.220        80
59.230        80
59.240        67
59.250        67
59.260        40
59.270        47
59.280        67
59.290        67
59.300        53
59.310        93
59.320        33
59.330        33
59.340        47
59.350        87
59.360        40
59.370        73
59.380        73
59.390        40
59.400        87
59.410        67
59.420        60
59.430        73
59.440        53
59.450        87
59.460        73
59.470        60
59.480        80
59.490        60
59.500        13
59.510        20
59.520        93
59.530        73
59.540       100
59.550        53
59.560        67
59.570        27
59.580        27
59.590        33
59.600        80
59.610        60
59.620        73
59.630        47
59.640        60
59.650        67
59.660       107
59.670        47
59.680       107
59.690        73
59.700        40
59.710        13
59.720        67
59.730        60
59.740        47
59.750        80
59.760        33
59.770        73
59.780        53
59.790        80
59.800        47
59.810        53
59.820        73
59.830        60
59.840        67
59.850        73
59.860        53
59.870       127
59.880        87
59.890        80
59.900        33
59.910        73
59.920        47
59.930        47
59.940        60
59.950        33
59.960        53
59.970        73
59.980        73
59.990        13
60.000        13
