20.000       533
20.010       340
20.020       446
20.030       580
20.040       473
20.050       440
20.060       533
20.070       526
20.080       440
20.090       573
20.100       426
20.110       546
20.120       480
20.130       407
20.140       506
20.150       453
20.160       426
20.170       426
20.180       460
20.190       493
20.200       440
20.210       466
20.220       400
20.230       453
20.240       493
20.250       440
20.260       466
20.270       466
20.280       493
20.290       453
20.300       560
20.310       493
20.320       446
20.330       420
20.340       453
20.350       460
20.360       440
20.370       520
20.380       600
20.390       466
20.400       480
20.410       506
20.420       446
20.430       413
20.440       553
20.450       500
20.460       433
20.470       546
20.480       420
20.490       473
20.500       387
20.510       400
20.520       486
20.530       533
20.540       573
20.550       573
20.560       440
20.570       400
20.580       446
20.590       440
20.600       520
20.610       453
20.620       553
20.630       453
20.640       520
20.650       473
20.660       440
20.670       513
20.680       506
20.690       466
20.700       446
20.710       493
20.720       353
20.730       446
20.740       426
20.750       420
20.760       460
20.770       553
20.780       373
20.790       380
20.800       540
20.810       407
20.820       453
20.830       453
20.840       393
20.850       413
20.860       460
20.870       453
20.880       400
20.890       367
20.900       560
20.910       446
20.920       473
20.930       420
20.940       440
20.950       420
20.960       407
20.970       340
20.980       420
20.990       420
21.000       393
21.010       580
21.020       387
21.030       393
21.040       446
21.050       440
21.060       460
21.070       400
21.080       466
21.090       380
21.100       466
21.110       466
21.120       373
21.130       407
21.140       440
21.150       446
21.160       387
21.170       393
21.180       360
21.190       426
21.200       340
21.210       307
21.220       380
21.230       373
21.240       433
21.250       407
21.260       400
21.270       506
21.280       420
21.290       387
21.300       373
21.310       293
21.320       520
21.330       440
21.340       426
21.350       333
21.360       420
21.370       407
21.380       400
21.390       420
21.400       433
21.410       466
21.420       340
21.430       440
21.440       307
21.450       453
21.460       426
21.470       413
21.480       380
21.490       506
21.500       347
21.510       393
21.520       333
21.530       367
21.540       373
21.550       460
21.560       466
21.570       340
21.580       387
21.590       360
21.600       433
21.610       460
21.620       347
21.630       360
21.640       433
21.650       387
21.660       347
21.670       420
21.680       380
21.690       453
21.700       373
21.710       446
21.720       400
21.730       347
21.740       480
21.750       473
21.760       407
21.770       426
21.780       420
21.790       453
21.800       460
21.810       393
21.820       420
21.830       433
21.840       387
21.850       420
21.860       473
21.870       393
21.880       373
21.890       360
21.900       500
21.910       380
21.920       413
21.930       340
21.940       393
21.950       433
21.960       400
21.970       413
21.980       347
21.990       393
22.000       313
22.010       367
22.020       407
22.030       420
22.040       313
22.050       307
22.060       393
22.070       453
22.080       380
22.090       400
22.100       353
22.110       327
22.120       413
22.130       347
22.140       373
22.150       360
22.160       373
22.170       460
22.180       320
22.190       420
22.200       327
22.210       340
22.220       420
22.230       300
22.240       426
22.250       353
22.260       426
22.270       420
22.280       426
22.290       340
22.300       327
22.310       347
22.320       407
22.330       367
22.340       426
22.350       340
22.360       347
22.370       393
22.380       353
22.390       440
22.400       400
22.410       473
22.420       373
22.430       433
22.440       307
22.450       446
22.460       440
22.470       367
22.480       573
22.490       440
22.500       446
22.510       413
22.520       407
22.530       407
22.540       393
22.550       387
22.560       453
22.570       407
22.580       446
22.590       393
22.600       433
22.610       407
22.620       353
22.630       347
22.640       393
22.650       380
22.660       440
22.670       307
22.680       360
22.690       400
22.700       466
22.710       407
22.720       367
22.730       333
22.740       240
22.750       387
22.760       400
22.770       240
22.780       433
22.790       387
22.800       347
22.810       373
22.820       353
22.830       426
22.840       260
22.850       393
22.860       347
22.870       387
22.880       313
22.890       293
22.900       353
22.910       367
22.920       333
22.930       353
22.940       393
22.950       340
22.960       420
22.970       360
22.980       340
22.990       313
23.000       320
23.010       280
23.020       413
23.030       273
23.040       280
23.050       340
23.060       347
23.070       426
23.080       420
23.090       380
23.100       373
23.110       253
23.120       307
23.130       426
23.140       333
23.150       287
23.160       253
23.170       300
23.180       313
23.190       347
23.200       380
23.210       360
23.220       267
23.230       267
23.240       367
23.250       367
23.260       280
23.270       340
23.280       307
23.290       327
23.300       353
23.310       273
23.320       327
23.330       273
23.340       373
23.350       387
23.360       287
23.370       280
23.380       393
23.390       340
23.400       420
23.410       260
23.420       333
23.430       387
23.440       227
23.450       307
23.460       360
23.470       347
23.480       293
23.490       260
23.500       367
23.510       413
23.520       393
23.530       407
23.540       347
23.550       426
23.560       367
23.570       453
23.580       480
23.590       493
23.600       353
23.610       307
23.620       273
23.630       320
23.640       280
23.650       287
23.660       253
23.670       327
23.680       293
23.690       293
23.700       347
23.710       300
23.720       373
23.730       293
23.740       273
23.750       347
23.760       333
23.770       347
23.780       293
23.790       253
23.800       367
23.810       267
23.820       340
23.830       373
23.840       327
23.850       347
23.860       247
23.870       307
23.880       313
23.890       327
23.900       300
23.910       320
23.920       293
23.930       280
23.940       367
23.950       300
23.960       293
23.970       347
23.980       253
23.990       273
24.000       360
24.010       260
24.020       273
24.030       280
24.040       273
24.050       353
24.060       233
24.070       313
24.080       327
24.090       353
24.100       247
24.110       300
24.120       340
24.130       280
24.140       240
24.150       347
24.160       273
24.170       240
24.180       360
24.190       313
24.200       207
24.210       373
24.220       253
24.230       327
24.240       233
24.250       360
24.260       273
24.270       320
24.280       313
24.290       360
24.300       327
24.310       253
24.320       340
24.330       333
24.340       213
24.350       300
24.360       287
24.370       200
24.380       387
24.390       280
24.400       220
24.410       260
24.420       280
24.430       307
24.440       253
24.450       227
24.460       247
24.470       273
24.480       273
24.490       247
24.500       247
24.510       240
24.520       293
24.530       340
24.540       313
24.550       247
24.560       253
24.570       320
24.580       313
24.590       293
24.600       313
24.610       320
24.620       253
24.630       313
24.640       280
24.650       280
24.660       300
24.670       267
24.680       360
24.690       227
24.700       280
24.710       333
24.720       267
24.730       340
24.740       267
24.750       373
24.760       287
24.770       320
24.780       280
24.790       320
24.800       247
24.810       313
24.820       240
24.830       207
24.840       247
24.850       247
24.860       213
24.870       273
24.880       260
24.890       247
24.900       233
24.910       260
24.920       247
24.930       313
24.940       313
24.950       233
24.960       240
24.970       260
24.980       273
24.990       213
25.000       287
25.010       300
25.020       213
25.030       267
25.040       280
25.050       327
25.060       220
25.070       200
25.080       267
25.090       260
25.100       280
25.110       267
25.120       287
25.130       353
25.140       193
25.150       267
25.160       233
25.170       300
25.180       267
25.190       147
25.200       247
25.210       220
25.220       267
25.230       300
25.240       267
25.250       307
25.260       233
25.270       253
25.280       227
25.290       213
25.300       213
25.310       273
25.320       213
25.330       213
25.340       213
25.350       293
25.360       213
25.370       300
25.380       253
25.390       287
25.400       320
25.410       220
25.420       200
25.430       247
25.440       253
25.450       160
25.460       193
25.470       247
25.480       180
25.490       167
25.500       160
25.510       133
25.520       200
25.530       260
25.540       227
25.550       273
25.560       233
25.570       180
25.580       227
25.590       200
25.600       160
25.610       253
25.620       213
25.630       107
25.640       253
25.650       247
25.660       193
25.670       200
25.680       213
25.690       160
25.700       153
25.710       113
25.720       200
25.730       207
25.740       213
25.750       220
25.760       220
25.770       187
25.780       213
25.790       187
25.800       107
25.810       153
25.820       153
25.830       180
25.840       100
25.850       113
25.860       207
25.870       127
25.880       113
25.890       173
25.900        80
25.910       120
25.920       180
25.930       113
25.940       153
25.950       140
25.960       180
25.970       173
25.980       100
25.990       147
26.000       173
26.010       140
26.020       147
26.030       133
26.040       153
26.050        87
26.060       120
26.070       100
26.080       100
26.090       100
26.100       153
26.110       167
26.120       240
26.130       153
26.140       133
26.150       120
26.160       160
26.170       140
26.180       127
26.190       113
26.200       173
26.210        93
26.220       167
26.230       120
26.240       160
26.250        93
26.260       133
26.270        87
26.280       127
26.290       113
26.300       127
26.310       113
26.320       160
26.330       113
26.340       153
26.350       193
26.360       113
26.370       167
26.380       140
26.390       187
26.400       127
26.410       140
26.420       167
26.430       140
26.440       153
26.450       133
26.460        93
26.470       233
26.480        87
26.490       127
26.500       113
26.510       173
26.520       120
26.530       107
26.540       160
26.550       153
26.560       167
26.570       140
26.580       173
26.590       140
26.600       187
26.610       140
26.620       140
26.630       127
26.640       107
26.650        87
26.660       140
26.670       153
26.680       127
26.690       147
26.700        93
26.710        93
26.720       133
26.730       153
26.740       107
26.750       160
26.760       153
26.770       107
26.780       160
26.790        80
26.800        80
26.810       113
26.820       113
26.830        93
26.840        93
26.850       113
26.860       140
26.870       153
26.880       120
26.890       120
26.900       107
26.910       120
26.920       100
26.930       160
26.940        80
26.950       147
26.960       100
26.970       133
26.980       133
26.990        73
27.000        93
27.010       167
27.020        73
27.030       100
27.040       147
27.050       133
27.060       147
27.070       107
27.080        80
27.090       147
27.100       113
27.110       120
27.120        80
27.130       113
27.140       140
27.150       133
27.160       113
27.170       100
27.180       113
27.190        60
27.200        67
27.210       193
27.220        87
27.230       120
27.240        67
27.250        80
27.260       127
27.270        87
27.280        60
27.290        67
27.300        80
27.310        80
27.320       100
27.330       100
27.340       147
27.350       167
27.360        80
27.370        93
27.380       113
27.390        53
27.400       100
27.410        87
27.420       140
27.430        80
27.440       107
27.450       100
27.460       147
27.470        93
27.480        73
27.490       153
27.500       153
27.510       120
27.520       100
27.530       153
27.540        80
27.550       107
27.560       120
27.570        47
27.580       140
27.590       113
27.600       147
27.610        67
27.620       133
27.630       133
27.640        80
27.650        87
27.660        53
27.670        67
27.680        80
27.690       100
27.700       113
27.710        80
27.720       147
27.730        87
27.740        93
27.750        87
27.760       173
27.770       100
27.780        67
27.790       100
27.800        47
27.810        87
27.820       173
27.830        47
27.840       147
27.850        80
27.860        73
27.870       100
27.880        93
27.890        73
27.900        87
27.910       100
27.920        93
27.930       100
27.940        80
27.950        80
27.960       100
27.970        93
27.980        67
27.990        47
28.000       127
28.010        53
28.020       100
28.030        80
28.040        67
28.050       100
28.060        93
28.070       100
28.080        73
28.090       127
28.100       200
28.110        87
28.120        40
28.130       133
28.140       113
28.150       127
28.160        87
28.170        60
28.180       113
28.190       107
28.200       100
28.210        53
28.220        93
28.230       113
28.240       107
28.250        60
28.260        47
28.270        87
28.280        60
28.290        73
28.300       100
28.310       107
28.320       153
28.330       100
28.340        80
28.350       140
28.360        73
28.370        80
28.380       100
28.390       107
28.400       127
28.410        87
28.420       113
28.430       100
28.440        53
28.450        80
28.460        60
28.470        73
28.480        80
28.490        80
28.500        73
28.510       127
28.520        87
28.530       107
28.540        80
28.550        87
28.560       113
28.570        87
28.580        47
28.590       127
28.600        73
28.610        73
28.620       133
28.630        53
28.640        67
28.650       100
28.660        67
28.670       100
28.680        80
28.690        93
28.700        60
28.710       127
28.720        73
28.730        87
28.740        53
28.750       100
28.760        73
28.770        60
28.780       133
28.790       100
28.800       113
28.810        67
28.820        53
28.830        80
28.840       107
28.850        80
28.860        67
28.870        80
28.880        73
28.890        80
28.900        67
28.910        87
28.920       107
28.930        87
28.940        60
28.950       113
28.960        80
28.970        40
28.980        53
28.990        80
29.000        73
29.010       120
29.020        60
29.030        73
29.040        87
29.050        53
29.060        47
29.070       140
29.080        67
29.090        73
29.100        60
29.110       100
29.120        73
29.130        87
29.140        67
29.150        87
29.160       120
29.170        93
29.180        47
29.190        80
29.200        53
29.210        20
29.220        80
29.230        87
29.240        93
29.250       100
29.260       100
29.270       100
29.280        73
29.290        93
29.300       147
29.310        87
29.320       107
29.330       100
29.340        73
29.350       100
29.360       100
29.370       100
29.380       107
29.390        60
29.400        87
29.410       107
29.420        87
29.430       107
29.440       100
29.450        53
29.460        80
29.470        40
29.480        73
29.490       120
29.500       107
29.510       113
29.520       187
29.530       160
29.540       113
29.550       153
29.560       127
29.570       160
29.580       113
29.590       153
29.600       140
29.610       167
29.620       153
29.630       133
29.640       153
29.650       140
29.660       147
29.670       133
29.680       113
29.690        87
29.700        40
29.710       100
29.720        87
29.730        87
29.740        80
29.750       120
29.760        80
29.770        67
29.780       107
29.790        80
29.800        93
29.810        87
29.820        80
29.830       107
29.840        60
29.850        80
29.860        93
29.870        67
29.880        73
29.890        87
29.900        47
29.910        73
29.920        80
29.930        67
29.940       100
29.950        73
29.960        60
29.970        67
29.980       127
29.990       113
30.000        60
30.010       100
30.020        80
30.030        93
30.040       107
30.050       100
30.060        60
30.070        67
30.080        80
30.090       107
30.100        33
30.110        87
30.120        73
30.130       147
30.140       113
30.150        40
30.160        93
30.170        73
30.180        53
30.190        73
30.200        53
30.210        40
30.220        47
30.230        60
30.240       140
30.250        87
30.260        33
30.270       120
30.280        87
30.290       107
30.300        33
30.310        73
30.320        73
30.330        80
30.340       100
30.350        73
30.360       100
30.370        73
30.380        60
30.390        40
30.400        67
30.410       107
30.420       113
30.430        87
30.440        80
30.450       107
30.460        60
30.470        93
30.480        73
30.490        73
30.500        73
30.510        60
30.520       100
30.530        93
30.540        60
30.550        93
30.560       133
30.570        73
30.580        53
30.590       140
30.600        93
30.610       120
30.620        67
30.630       100
30.640       120
30.650       100
30.660        60
30.670        67
30.680        80
30.690        87
30.700        93
30.710        93
30.720        87
30.730        53
30.740       100
30.750        87
30.760        60
30.770        73
30.780       107
30.790        87
30.800        93
30.810        87
30.820       113
30.830       107
30.840        60
30.850        80
30.860        80
30.870        93
30.880        80
30.890        60
30.900       133
30.910        87
30.920       133
30.930       133
30.940       100
30.950        67
30.960       107
30.970       120
30.980        53
30.990       133
31.000        93
31.010        73
31.020       113
31.030        60
31.040        73
31.050        93
31.060        93
31.070        93
31.080       100
31.090       100
31.100        80
31.110        73
31.120        80
31.130       113
31.140        47
31.150       107
31.160       120
31.170       120
31.180       107
31.190        53
31.200       127
31.210       100
31.220        73
31.230        93
31.240        93
31.250        80
31.260       107
31.270       140
31.280        80
31.290       127
31.300       127
31.310        73
31.320       127
31.330       107
31.340       167
31.350       127
31.360        87
31.370       133
31.380       113
31.390       147
31.400       133
31.410        87
31.420       107
31.430       147
31.440       107
31.450       100
31.460        67
31.470       113
31.480        80
31.490        73
31.500       100
31.510        60
31.520       113
31.530        67
31.540       160
31.550        33
31.560        73
31.570        87
31.580       120
31.590       140
31.600       100
31.610       147
31.620        93
31.630       107
31.640       127
31.650       167
31.660       160
31.670       120
31.680       133
31.690       160
31.700        93
31.710       140
31.720       120
31.730       113
31.740       107
31.750       173
31.760       133
31.770       160
31.780       113
31.790       227
31.800       193
31.810       200
31.820       180
31.830       173
31.840       253
31.850       213
31.860       233
31.870       287
31.880       307
31.890       340
31.900       267
31.910       327
31.920       253
31.930       340
31.940       327
31.950       373
31.960       380
31.970       420
31.980       300
31.990       393
32.000       293
32.010       426
32.020       466
32.030       380
32.040       533
32.050       600
32.060       760
32.070      1379
32.080      2039
32.090      2352
32.100      2979
32.110      3205
32.120      3525
32.130      3539
32.140      2985
32.150      2572
32.160      1713
32.170      1333
32.180       760
32.190       606
32.200       473
32.210       373
32.220       426
32.230       300
32.240       426
32.250       347
32.260       320
32.270       280
32.280       367
32.290       320
32.300       193
32.310       273
32.320       267
32.330       213
32.340       260
32.350       207
32.360       193
32.370       180
32.380       187
32.390       187
32.400       120
32.410       167
32.420       180
32.430       260
32.440       147
32.450       247
32.460       133
32.470       140
32.480       140
32.490       200
32.500       227
32.510       233
32.520       147
32.530       173
32.540       187
32.550       153
32.560       153
32.570       187
32.580       227
32.590       220
32.600       180
32.610       247
32.620       153
32.630       227
32.640       160
32.650       160
32.660       160
32.670       153
32.680       153
32.690       187
32.700       133
32.710       153
32.720       193
32.730       180
32.740       113
32.750       107
32.760       133
32.770       140
32.780       173
32.790        93
32.800       153
32.810       153
32.820       140
32.830       120
32.840       147
32.850       133
32.860       127
32.870       173
32.880       173
32.890       173
32.900       153
32.910       160
32.920       213
32.930       160
32.940       173
32.950       153
32.960       167
32.970       160
32.980       153
32.990       180
33.000        93
33.010       180
33.020        93
33.030       160
33.040       153
33.050       107
33.060        73
33.070       120
33.080       147
33.090       153
33.100       100
33.110       140
33.120       113
33.130       113
33.140       153
33.150       127
33.160       107
33.170       207
33.180        67
33.190       167
33.200       133
33.210       127
33.220       173
33.230       133
33.240       200
33.250       113
33.260       153
33.270       147
33.280       133
33.290       160
33.300       193
33.310       140
33.320       153
33.330        93
33.340       140
33.350       140
33.360       213
33.370       133
33.380       127
33.390        93
33.400       140
33.410       160
33.420       107
33.430       213
33.440        87
33.450       133
33.460       140
33.470       107
33.480       107
33.490       100
33.500       113
33.510       160
33.520       153
33.530       133
33.540       127
33.550       107
33.560       127
33.570       147
33.580       120
33.590       107
33.600       127
33.610       153
33.620       147
33.630       120
33.640       100
33.650       160
33.660       180
33.670       193
33.680       127
33.690       173
33.700        87
33.710       113
33.720       127
33.730       187
33.740       133
33.750       113
33.760       147
33.770       133
33.780       100
33.790       173
33.800        93
33.810       107
33.820       180
33.830       100
33.840       160
33.850       133
33.860       140
33.870       127
33.880       120
33.890       127
33.900        93
33.910        80
33.920       207
33.930       147
33.940       127
33.950       107
33.960       107
33.970       147
33.980       147
33.990       153
34.000       133
34.010        80
34.020       133
34.030       160
34.040       147
34.050       173
34.060       180
34.070       167
34.080       180
34.090       100
34.100       167
34.110       153
34.120       147
34.130       173
34.140       160
34.150       140
34.160       120
34.170       113
34.180       147
34.190       140
34.200       107
34.210        93
34.220       193
34.230       147
34.240       187
34.250       133
34.260       160
34.270       153
34.280       193
34.290       167
34.300       187
34.310       220
34.320       113
34.330       167
34.340       260
34.350       300
34.360       307
34.370       380
34.380       566
34.390       653
34.400       760
34.410       860
34.420       980
34.430      1020
34.440      1026
34.450       933
34.460      1073
34.470      1146
34.480      1126
34.490      1073
34.500       980
34.510      1126
34.520      1060
34.530      1153
34.540      1093
34.550      1093
34.560      1060
34.570      1066
34.580      1126
34.590      1046
34.600      1086
34.610      1153
34.620      1040
34.630      1226
34.640      1160
34.650      1113
34.660      1113
34.670      1060
34.680      1166
34.690      1053
34.700      1240
34.710      1226
34.720      1080
34.730      1046
34.740      1166
34.750      1273
34.760      1226
34.770      1200
34.780      1166
34.790      1013
34.800       933
34.810      1000
34.820      1173
34.830      1120
34.840      1373
34.850      1173
34.860      1146
34.870      1066
34.880      1180
34.890      1233
34.900      1240
34.910      1253
34.920      1253
34.930      1193
34.940      1339
34.950      1346
34.960      1040
34.970      1200
34.980      1093
34.990      1146
35.000      1253
35.010      1206
35.020      1306
35.030      1060
35.040      1246
35.050      1286
35.060      1313
35.070      1379
35.080      1240
35.090      1253
35.100      1479
35.110      1386
35.120      1226
35.130      1259
35.140      1286
35.150      1366
35.160      1439
35.170      1519
35.180      1313
35.190      1346
35.200      1386
35.210      1659
35.220      1453
35.230      1459
35.240      1639
35.250      1659
35.260      1679
35.270      1766
35.280      1673
35.290      1959
35.300      1846
35.310      2026
35.320      2053
35.330      2219
35.340      2312
35.350      2139
35.360      2492
35.370      2626
35.380      3045
35.390      3119
35.400       440
35.410      4705
35.420      5791
35.430      8010
35.440      9809
35.450     12442
35.460     13848
35.470     16280
35.480     18346
35.490     19492
35.500     20818
35.510     21825
35.520     23131
35.530     23491
35.540     24823
35.550     27509
35.560     31474
35.570     38538
35.580     50940
35.590     88391
35.600    146948
35.610    204185
35.620    238565
35.630    254771
35.640    260802
35.650    264854
35.660    259676
35.670    239511
35.680    204618
35.690    168453
35.700    157904
35.710    165867
35.720    177249
35.730    183780
35.740    182047
35.750    176016
35.760    162575
35.770    129661
35.780     88385
35.790     54631
35.800     34553
35.810     25063
35.820     20272
35.830     16893
35.840     14647
35.850     12282
35.860     11309
35.870      9976
35.880      8697
35.890      7904
35.900      6724
35.910      5864
35.920      5098
35.930      4218
35.940      3712
35.950      3199
35.960      3185
35.970      2759
35.980      2592
35.990      2446
36.000      2406
36.010      2439
36.020      2386
36.030      1873
36.040      1999
36.050      1859
36.060      2046
36.070      1973
36.080      1886
36.090      1766
36.100      1739
36.110      1853
36.120      1793
36.130      1953
36.140      1773
36.150      1593
36.160      1559
36.170      1653
36.180      1586
36.190      1653
36.200      1359
36.210      1293
36.220      1586
36.230      1419
36.240      1473
36.250      1479
36.260      1299
36.270      1486
36.280      1359
36.290      1319
36.300      1326
36.310      1133
36.320      1246
36.330      1093
36.340      1313
36.350      1086
36.360      1173
36.370      1193
36.380      1120
36.390      1160
36.400      1060
36.410      1053
36.420      1173
36.430      1173
36.440      1233
36.450      1153
36.460      1020
36.470      1073
36.480       946
36.490      1240
36.500      1146
36.510      1080
36.520       973
36.530      1046
36.540       966
36.550       966
36.560      1026
36.570       960
36.580      1026
36.590       946
36.600       993
36.610       860
36.620      1086
36.630       900
36.640       900
36.650       893
36.660       706
36.670       933
36.680       913
36.690       920
36.700       940
36.710       886
36.720       986
36.730       893
36.740       813
36.750       886
36.760       946
36.770       840
36.780       920
36.790       873
36.800       766
36.810       793
36.820       840
36.830       840
36.840       713
36.850       740
36.860       866
36.870       933
36.880       833
36.890       753
36.900       860
36.910       886
36.920       926
36.930       920
36.940       820
36.950       773
36.960       773
36.970       693
36.980       800
36.990       753
37.000       860
37.010       766
37.020       933
37.030       726
37.040       753
37.050       866
37.060       886
37.070       906
37.080       753
37.090       713
37.100       720
37.110       760
37.120       746
37.130       733
37.140       846
37.150       740
37.160       793
37.170       893
37.180       773
37.190       753
37.200       666
37.210       746
37.220       766
37.230       806
37.240       693
37.250       666
37.260       793
37.270       773
37.280       686
37.290       800
37.300       706
37.310       873
37.320       720
37.330       640
37.340       826
37.350       680
37.360       786
37.370       720
37.380       753
37.390       720
37.400       620
37.410       680
37.420       753
37.430       793
37.440       660
37.450       753
37.460       740
37.470       860
37.480       766
37.490       680
37.500       653
37.510       780
37.520       720
37.530       820
37.540       726
37.550       720
37.560       586
37.570       613
37.580       613
37.590       633
37.600       826
37.610       706
37.620       646
37.630       526
37.640       706
37.650       546
37.660       673
37.670       626
37.680       580
37.690       613
37.700       646
37.710       606
37.720       573
37.730       573
37.740       773
37.750       606
37.760       520
37.770       513
37.780       673
37.790       640
37.800       633
37.810       520
37.820       573
37.830       553
37.840       613
37.850       600
37.860       606
37.870       486
37.880       626
37.890       746
37.900       586
37.910       553
37.920       646
37.930       620
37.940       733
37.950       553
37.960       706
37.970       566
37.980       560
37.990       526
38.000       620
38.010       660
38.020       580
38.030       586
38.040       586
38.050       506
38.060       500
38.070       666
38.080       526
38.090       720
38.100       560
38.110       613
38.120       606
38.130       500
38.140       633
38.150       620
38.160       586
38.170       600
38.180       573
38.190       533
38.200       646
38.210       653
38.220       560
38.230       586
38.240       560
38.250       580
38.260       593
38.270       580
38.280       573
38.290       540
38.300       573
38.310       533
38.320       466
38.330       606
38.340       400
38.350       560
38.360       446
38.370       553
38.380       546
38.390       593
38.400       546
38.410       473
38.420       460
38.430       680
38.440       553
38.450       500
38.460       573
38.470       453
38.480       620
38.490       446
38.500       553
38.510       540
38.520       560
38.530       526
38.540       620
38.550       573
38.560       520
38.570       513
38.580       440
38.590       560
38.600       473
38.610       533
38.620       586
38.630       480
38.640       513
38.650       546
38.660       506
38.670       473
38.680       560
38.690       580
38.700       520
38.710       526
38.720       513
38.730       540
38.740       413
38.750       573
38.760       426
38.770       586
38.780       573
38.790       586
38.800       486
38.810       546
38.820       493
38.830       426
38.840       473
38.850       486
38.860       493
38.870       426
38.880       480
38.890       533
38.900       500
38.910       540
38.920       526
38.930       600
38.940       433
38.950       520
38.960       526
38.970       400
38.980       506
38.990       473
39.000       453
39.010       513
39.020       533
39.030       480
39.040       446
39.050       473
39.060       466
39.070       453
39.080       506
39.090       400
39.100       493
39.110       426
39.120       553
39.130       520
39.140       533
39.150       433
39.160       420
39.170       560
39.180       440
39.190       453
39.200       480
39.210       440
39.220       506
39.230       426
39.240       486
39.250       540
39.260       466
39.270       466
39.280       480
39.290       520
39.300       506
39.310       466
39.320       540
39.330       546
39.340       506
39.350       466
39.360       407
39.370       526
39.380       500
39.390       506
39.400       500
39.410       486
39.420       426
39.430       520
39.440       466
39.450       620
39.460       540
39.470       526
39.480       466
39.490       513
39.500       500
39.510       586
39.520       520
39.530       506
39.540       460
39.550       453
39.560       526
39.570       387
39.580       526
39.590       506
39.600       420
39.610       526
39.620       453
39.630       353
39.640       553
39.650       393
39.660       486
39.670       526
39.680       486
39.690       506
39.700       393
39.710       433
39.720       500
39.730       400
39.740       546
39.750       393
39.760       440
39.770       466
39.780       500
39.790       387
39.800       373
39.810       380
39.820       426
39.830       373
39.840       413
39.850       420
39.860       446
39.870       380
39.880       393
39.890       440
39.900       387
39.910       380
39.920       400
39.930       506
39.940       413
39.950       353
39.960       320
39.970       533
39.980       367
39.990       387
40.000       267
40.010       407
40.020       506
40.030       420
40.040       433
40.050       460
40.060       413
40.070       420
40.080       407
40.090       426
40.100       387
40.110       426
40.120       293
40.130       327
40.140       367
40.150       433
40.160       333
40.170       380
40.180       426
40.190       333
40.200       380
40.210       353
40.220       360
40.230       353
40.240       300
40.250       353
40.260       400
40.270       413
40.280       513
40.290       373
40.300       426
40.310       453
40.320       307
40.330       373
40.340       367
40.350       420
40.360       367
40.370       440
40.380       340
40.390       373
40.400       373
40.410       360
40.420       360
40.430       313
40.440       380
40.450       353
40.460       460
40.470       380
40.480       387
40.490       453
40.500       393
40.510       347
40.520       380
40.530       413
40.540       367
40.550       327
40.560       360
40.570       387
40.580       400
40.590       387
40.600       440
40.610       506
40.620       327
40.630       340
40.640       433
40.650       407
40.660       333
40.670       347
40.680       387
40.690       327
40.700       387
40.710       380
40.720       353
40.730       466
40.740       387
40.750       273
40.760       313
40.770       426
40.780       307
40.790       466
40.800       353
40.810       360
40.820       367
40.830       347
40.840       313
40.850       380
40.860       380
40.870       380
40.880       320
40.890       407
40.900       433
40.910       373
40.920       440
40.930       327
40.940       393
40.950       320
40.960       400
40.970       380
40.980       273
40.990       367
41.000       420
41.010       307
41.020       353
41.030       360
41.040       293
41.050       313
41.060       426
41.070       433
41.080       340
41.090       367
41.100       387
41.110       307
41.120       307
41.130       333
41.140       347
41.150       380
41.160       353
41.170       273
41.180       300
41.190       313
41.200       413
41.210       267
41.220       347
41.230       253
41.240       273
41.250       300
41.260       367
41.270       320
41.280       367
41.290       267
41.300       360
41.310       287
41.320       380
41.330       387
41.340       353
41.350       413
41.360       380
41.370       293
41.380       300
41.390       393
41.400       353
41.410       287
41.420       313
41.430       340
41.440       273
41.450       367
41.460       373
41.470       320
41.480       420
41.490       287
41.500       373
41.510       333
41.520       380
41.530       280
41.540       407
41.550       340
41.560       313
41.570       347
41.580       380
41.590       320
41.600       280
41.610       280
41.620       193
41.630       327
41.640       360
41.650       273
41.660       347
41.670       333
41.680       300
41.690       293
41.700       327
41.710       420
41.720       340
41.730       307
41.740       373
41.750       307
41.760       373
41.770       293
41.780       340
41.790       347
41.800       373
41.810       360
41.820       400
41.830       407
41.840       307
41.850       353
41.860       393
41.870       380
41.880       227
41.890       293
41.900       420
41.910       293
41.920       300
41.930       387
41.940       387
41.950       387
41.960       280
41.970       247
41.980       320
41.990       340
42.000       247
42.010       353
42.020       267
42.030       313
42.040       347
42.050       353
42.060       333
42.070       307
42.080       273
42.090       293
42.100       247
42.110       287
42.120       287
42.130       360
42.140       293
42.150       340
42.160       273
42.170       413
42.180       327
42.190       220
42.200       313
42.210       233
42.220       287
42.230       260
42.240       320
42.250       300
42.260       300
42.270       240
42.280       193
42.290       287
42.300       353
42.310       300
42.320       280
42.330       240
42.340       213
42.350       140
42.360       333
42.370       227
42.380       240
42.390       287
42.400       287
42.410       313
42.420       380
42.430       287
42.440       260
42.450       273
42.460       267
42.470       300
42.480       380
42.490       360
42.500       333
42.510       267
42.520       253
42.530       307
42.540       253
42.550       253
42.560       227
42.570       260
42.580       267
42.590       273
42.600       220
42.610       333
42.620       320
42.630       280
42.640       200
42.650       273
42.660       260
42.670       300
42.680       360
42.690       280
42.700       320
42.710       253
42.720       207
42.730       280
42.740       247
42.750       220
42.760       273
42.770       273
42.780       227
42.790       240
42.800       233
42.810       293
42.820       247
42.830       267
42.840       320
42.850       293
42.860       313
42.870       220
42.880       293
42.890       340
42.900       333
42.910       300
42.920       240
42.930       320
42.940       233
42.950       273
42.960       273
42.970       200
42.980       293
42.990       247
43.000       213
43.010       280
43.020       253
43.030       253
43.040       280
43.050       247
43.060       247
43.070       327
43.080       247
43.090       347
43.100       273
43.110       227
43.120       193
43.130       313
43.140       213
43.150       227
43.160       260
43.170       240
43.180       213
43.190       240
43.200       180
43.210       273
43.220       180
43.230       307
43.240       213
43.250       220
43.260       173
43.270       267
43.280       227
43.290       253
43.300       267
43.310       213
43.320       233
43.330       207
43.340       287
43.350       227
43.360       233
43.370       300
43.380       227
43.390       287
43.400       233
43.410       247
43.420       193
43.430       247
43.440       260
43.450       220
43.460       187
43.470       207
43.480       213
43.490       187
43.500       300
43.510       240
43.520       193
43.530       247
43.540       220
43.550       247
43.560       220
43.570       180
43.580       267
43.590       240
43.600       260
43.610       340
43.620       273
43.630       287
43.640       187
43.650       233
43.660       213
43.670       260
43.680       213
43.690       187
43.700       240
43.710       253
43.720       273
43.730       233
43.740       233
43.750       193
43.760       240
43.770       287
43.780       233
43.790       267
43.800       153
43.810       240
43.820       267
43.830       240
43.840       200
43.850       233
43.860       193
43.870       240
43.880       273
43.890       167
43.900       227
43.910       187
43.920       273
43.930       213
43.940       173
43.950       187
43.960       293
43.970       247
43.980       247
43.990       227
44.000       193
44.010       287
44.020       187
44.030       220
44.040       187
44.050       220
44.060       200
44.070       240
44.080       240
44.090       200
44.100       173
44.110       207
44.120       213
44.130       207
44.140       220
44.150       167
44.160       140
44.170       200
44.180       160
44.190       207
44.200       213
44.210       180
44.220       200
44.230       180
44.240       220
44.250       207
44.260       200
44.270       240
44.280       207
44.290       187
44.300       140
44.310       253
44.320       247
44.330       200
44.340       227
44.350       200
44.360       133
44.370       193
44.380       233
44.390       187
44.400       227
44.410       193
44.420       240
44.430       207
44.440       200
44.450       207
44.460       140
44.470       160
44.480       220
44.490       160
44.500       207
44.510       153
44.520       180
44.530       200
44.540       187
44.550       193
44.560       200
44.570       213
44.580       207
44.590       220
44.600       173
44.610       140
44.620       220
44.630       200
44.640       220
44.650       180
44.660       227
44.670       140
44.680       240
44.690       187
44.700       187
44.710       233
44.720       193
44.730       227
44.740       287
44.750       253
44.760       207
44.770       147
44.780       173
44.790       173
44.800       180
44.810       247
44.820       220
44.830       147
44.840       180
44.850       180
44.860       213
44.870       153
44.880       213
44.890       200
44.900       153
44.910       247
44.920       207
44.930       260
44.940       200
44.950       213
44.960       153
44.970       247
44.980       213
44.990       200
45.000       233
45.010       233
45.020       147
45.030       240
45.040       213
45.050       173
45.060       200
45.070       207
45.080       247
45.090       220
45.100       167
45.110       233
45.120       273
45.130       213
45.140       213
45.150       227
45.160       233
45.170       240
45.180       173
45.190       253
45.200       193
45.210       240
45.220       247
45.230       187
45.240       260
45.250       207
45.260       240
45.270       213
45.280       193
45.290       200
45.300       227
45.310       227
45.320       227
45.330       147
45.340       253
45.350       167
45.360       233
45.370       167
45.380       193
45.390       180
45.400       193
45.410       253
45.420       180
45.430       180
45.440       187
45.450       227
45.460       200
45.470       287
45.480       233
45.490       200
45.500       260
45.510       280
45.520       313
45.530       213
45.540       227
45.550       240
45.560       340
45.570       240
45.580       260
45.590       260
45.600       287
45.610       267
45.620       307
45.630       247
45.640       327
45.650       313
45.660       293
45.670       393
45.680       360
45.690       320
45.700       327
45.710       287
45.720       307
45.730       433
45.740       426
45.750       393
45.760       400
45.770       340
45.780       433
45.790       333
45.800       327
45.810       433
45.820       453
45.830       453
45.840       480
45.850       413
45.860       526
45.870       380
45.880       440
45.890       513
45.900       493
45.910       387
45.920       513
45.930       460
45.940       433
45.950       493
45.960       426
45.970       460
45.980       433
45.990       433
46.000       433
46.010       400
46.020       393
46.030       420
46.040       433
46.050       367
46.060       413
46.070       307
46.080       280
46.090       347
46.100       353
46.110       313
46.120       313
46.130       327
46.140       260
46.150       233
46.160       340
46.170       407
46.180       233
46.190       293
46.200       213
46.210       293
46.220       220
46.230       267
46.240       260
46.250       233
46.260       273
46.270       200
46.280       213
46.290       273
46.300       200
46.310       240
46.320       213
46.330       200
46.340       153
46.350       253
46.360       193
46.370       133
46.380       120
46.390       227
46.400       253
46.410       187
46.420       200
46.430       167
46.440       160
46.450       160
46.460       153
46.470       213
46.480       187
46.490       120
46.500       167
46.510       213
46.520       187
46.530       153
46.540       153
46.550       173
46.560       187
46.570       167
46.580       167
46.590       133
46.600       160
46.610       167
46.620       193
46.630       193
46.640       200
46.650       140
46.660       133
46.670       160
46.680       147
46.690       233
46.700       133
46.710       160
46.720       167
46.730       187
46.740       180
46.750       147
46.760       160
46.770       127
46.780       133
46.790       147
46.800       180
46.810       200
46.820       120
46.830       173
46.840       187
46.850       180
46.860       153
46.870       120
46.880       153
46.890       113
46.900       133
46.910       140
46.920       147
46.930       153
46.940       127
46.950       153
46.960       173
46.970       100
46.980       160
46.990       120
47.000       140
47.010       147
47.020        93
47.030       180
47.040       120
47.050       147
47.060       100
47.070       113
47.080       180
47.090       160
47.100       200
47.110       127
47.120       187
47.130       100
47.140       153
47.150       140
47.160       100
47.170       140
47.180       220
47.190       180
47.200        80
47.210       187
47.220       100
47.230       133
47.240       100
47.250       133
47.260       133
47.270       160
47.280       133
47.290       133
47.300       113
47.310        87
47.320        93
47.330       140
47.340       147
47.350       187
47.360       113
47.370       140
47.380       140
47.390       133
47.400       133
47.410       147
47.420       113
47.430        80
47.440       107
47.450       100
47.460       120
47.470       133
47.480       107
47.490       100
47.500        80
47.510       100
47.520       153
47.530       100
47.540       127
47.550       147
47.560       107
47.570       127
47.580       173
47.590       127
47.600       127
47.610       167
47.620       133
47.630       147
47.640        80
47.650       127
47.660        93
47.670       113
47.680        93
47.690       187
47.700       187
47.710       107
47.720       100
47.730       120
47.740       127
47.750       107
47.760       120
47.770       133
47.780       133
47.790       100
47.800       133
47.810       113
47.820        87
47.830       120
47.840       213
47.850        60
47.860       113
47.870        93
47.880       127
47.890       133
47.900       173
47.910       153
47.920        87
47.930       140
47.940       127
47.950       120
47.960       147
47.970        93
47.980       133
47.990       133
48.000       120
48.010       147
48.020       120
48.030        87
48.040       113
48.050       107
48.060       127
48.070        93
48.080       133
48.090       133
48.100       153
48.110       173
48.120       107
48.130       160
48.140       147
48.150       100
48.160        87
48.170       153
48.180       167
48.190       147
48.200       207
48.210       127
48.220        80
48.230        80
48.240        60
48.250        53
48.260        80
48.270       147
48.280       113
48.290       167
48.300       133
48.310       160
48.320        80
48.330       133
48.340        93
48.350        93
48.360       107
48.370        60
48.380        80
48.390        93
48.400        53
48.410       133
48.420       120
48.430       120
48.440       100
48.450       133
48.460       107
48.470       127
48.480       113
48.490        93
48.500       120
48.510       120
48.520       107
48.530       133
48.540        87
48.550       100
48.560       167
48.570        80
48.580        73
48.590       120
48.600       133
48.610       107
48.620       133
48.630        93
48.640        73
48.650       107
48.660        60
48.670       167
48.680       127
48.690        87
48.700        93
48.710       100
48.720       120
48.730       120
48.740       127
48.750        60
48.760       133
48.770        67
48.780        80
48.790       107
48.800       127
48.810        93
48.820        67
48.830        80
48.840        80
48.850       100
48.860       147
48.870       107
48.880        93
48.890        73
48.900       120
48.910        80
48.920        87
48.930       113
48.940       107
48.950        47
48.960        93
48.970       127
48.980       100
48.990       107
49.000       147
49.010       100
49.020        93
49.030        93
49.040       127
49.050        87
49.060       120
49.070       133
49.080       127
49.090       120
49.100       107
49.110        73
49.120       147
49.130       113
49.140        87
49.150        67
49.160        73
49.170        87
49.180       133
49.190        80
49.200       207
49.210       120
49.220        73
49.230        93
49.240       113
49.250        73
49.260       120
49.270        47
49.280       120
49.290        67
49.300        60
49.310       120
49.320       140
49.330        47
49.340       153
49.350        73
49.360       100
49.370       100
49.380       107
49.390        93
49.400       127
49.410        80
49.420       133
49.430       127
49.440       127
49.450       160
49.460       160
49.470       127
49.480        93
49.490       100
49.500        93
49.510       100
49.520        93
49.530       120
49.540       160
49.550        87
49.560        93
49.570       100
49.580       113
49.590        87
49.600       100
49.610       113
49.620       107
49.630       100
49.640       127
49.650        93
49.660        80
49.670       120
49.680       147
49.690        87
49.700       100
49.710        80
49.720        67
49.730        67
49.740        93
49.750       113
49.760       120
49.770        87
49.780       140
49.790       120
49.800        60
49.810       140
49.820        93
49.830       127
49.840       100
49.850       107
49.860        73
49.870        67
49.880        60
49.890        60
49.900        87
49.910        47
49.920       133
49.930       113
49.940       160
49.950       100
49.960        87
49.970        93
49.980       113
49.990        93
50.000       100
50.010        53
50.020       140
50.030        67
50.040       120
50.050       100
50.060        80
50.070        93
50.080        87
50.090        80
50.100       100
50.110       127
50.120        60
50.130        80
50.140        73
50.150        47
50.160        73
50.170       120
50.180       140
50.190        73
50.200       100
50.210       133
50.220        87
50.230        80
50.240        93
50.250        47
50.260        87
50.270       100
50.280        73
50.290       113
50.300        73
50.310        80
50.320       100
50.330        73
50.340       100
50.350        60
50.360       100
50.370       100
50.380        80
50.390        87
50.400       100
50.410       113
50.420       100
50.430       127
50.440        73
50.450       107
50.460       120
50.470        93
50.480        80
50.490        53
50.500        73
50.510        60
50.520        67
50.530       107
50.540       113
50.550       107
50.560       167
50.570        60
50.580        87
50.590        80
50.600        87
50.610        53
50.620        93
50.630        80
50.640        87
50.650        80
50.660        93
50.670        60
50.680        93
50.690       107
50.700        67
50.710       100
50.720        87
50.730       120
50.740        87
50.750       113
50.760        47
50.770        87
50.780       120
50.790        73
50.800       107
50.810       113
50.820       107
50.830       100
50.840        80
50.850       107
50.860       113
50.870       113
50.880        73
50.890        47
50.900        53
50.910        93
50.920       127
50.930       107
50.940       120
50.950        53
50.960       100
50.970        53
50.980       120
50.990       100
51.000       113
51.010        93
51.020       127
51.030        33
51.040        80
51.050        67
51.060        80
51.070        60
51.080       107
51.090       120
51.100        33
51.110        93
51.120        87
51.130        73
51.140       100
51.150        80
51.160        47
51.170       107
51.180        60
51.190        67
51.200        87
51.210        80
51.220        73
51.230       120
51.240        80
51.250       133
51.260       120
51.270        47
51.280        67
51.290       120
51.300        93
51.310        87
51.320        87
51.330        93
51.340        67
51.350       107
51.360       100
51.370        73
51.380       107
51.390        80
51.400        60
51.410        67
51.420        53
51.430        80
51.440       133
51.450        73
51.460        60
51.470        40
51.480        67
51.490        93
51.500        40
51.510       107
51.520        73
51.530        67
51.540        87
51.550        67
51.560        73
51.570       133
51.580        87
51.590       100
51.600       127
51.610        73
51.620        53
51.630        93
51.640        80
51.650        40
51.660        87
51.670        87
51.680        27
51.690        67
51.700        93
51.710        93
51.720        80
51.730        93
51.740        93
51.750        73
51.760       113
51.770        80
51.780        73
51.790        93
51.800        60
51.810        87
51.820        67
51.830        53
51.840        87
51.850        93
51.860        40
51.870        67
51.880        80
51.890       127
51.900        73
51.910        87
51.920       107
51.930        87
51.940        80
51.950        60
51.960       100
51.970        53
51.980        87
51.990       107
52.000        73
52.010       100
52.020        80
52.030        60
52.040        87
52.050        67
52.060        47
52.070        80
52.080        60
52.090       120
52.100        87
52.110       107
52.120        47
52.130        93
52.140        67
52.150        53
52.160        73
52.170       107
52.180        67
52.190        87
52.200        67
52.210        80
52.220       113
52.230        53
52.240        93
52.250        40
52.260        40
52.270        73
52.280        93
52.290        47
52.300        47
52.310        80
52.320        87
52.330        67
52.340        87
52.350       147
52.360        53
52.370        93
52.380       100
52.390        80
52.400       107
52.410        40
52.420        67
52.430        80
52.440        73
52.450        67
52.460        67
52.470        80
52.480        47
52.490        93
52.500        87
52.510        40
52.520       107
52.530       120
52.540        67
52.550        93
52.560        80
52.570        73
52.580        53
52.590       133
52.600       127
52.610       107
52.620       100
52.630        47
52.640        33
52.650        87
52.660        93
52.670        53
52.680       113
52.690        40
52.700       100
52.710        87
52.720       100
52.730        93
52.740        73
52.750        80
52.760        80
52.770        40
52.780        67
52.790       107
52.800       107
52.810        80
52.820        67
52.830       100
52.840        33
52.850        67
52.860        80
52.870        53
52.880        47
52.890        40
52.900       107
52.910        53
52.920        80
52.930       100
52.940        47
52.950        53
52.960        73
52.970        67
52.980       100
52.990       113
53.000        73
53.010        40
53.020        53
53.030       127
53.040       100
53.050        53
53.060       107
53.070        87
53.080        87
53.090       107
53.100        67
53.110        67
53.120        80
53.130        60
53.140       100
53.150        87
53.160        20
53.170        60
53.180        47
53.190        67
53.200        40
53.210        47
53.220        60
53.230       107
53.240        80
53.250       100
53.260       113
53.270        67
53.280        80
53.290        60
53.300        67
53.310        87
53.320        93
53.330        60
53.340        80
53.350        47
53.360        80
53.370        67
53.380        87
53.390        40
53.400        60
53.410        47
53.420        47
53.430        80
53.440        67
53.450        80
53.460       100
53.470       100
53.480        80
53.490        40
53.500        73
53.510        73
53.520        47
53.530        33
53.540        87
53.550        40
53.560        80
53.570        67
53.580        53
53.590        67
53.600        40
53.610        93
53.620        60
53.630        60
53.640        93
53.650       100
53.660        67
53.670        60
53.680        73
53.690        93
53.700        53
53.710        40
53.720        47
53.730        40
53.740        80
53.750        53
53.760        40
53.770        53
53.780        93
53.790        67
53.800        47
53.810        67
53.820       100
53.830        67
53.840        73
53.850        60
53.860        73
53.870        67
53.880        73
53.890        40
53.900        93
53.910        47
53.920        80
53.930        80
53.940       100
53.950        73
53.960        87
53.970        87
53.980        73
53.990        67
54.000        33
54.010        60
54.020        53
54.030        40
54.040        60
54.050        40
54.060        53
54.070        13
54.080        80
54.090        80
54.100        47
54.110        53
54.120        87
54.130        47
54.140        60
54.150        53
54.160        93
54.170        73
54.180        73
54.190       100
54.200        87
54.210        67
54.220        53
54.230       120
54.240        53
54.250        47
54.260        53
54.270        80
54.280        67
54.290        80
54.300        47
54.310        60
54.320        93
54.330        60
54.340        60
54.350       100
54.360        53
54.370        67
54.380        53
54.390        47
54.400        47
54.410        87
54.420        27
54.430        73
54.440       100
54.450        60
54.460        47
54.470       113
54.480        47
54.490        73
54.500        47
54.510        47
54.520        73
54.530        53
54.540        60
54.550        67
54.560        47
54.570        53
54.580        80
54.590        73
54.600       120
54.610       100
54.620        80
54.630        73
54.640       107
54.650        67
54.660        60
54.670        67
54.680        53
54.690        53
54.700        80
54.710        47
54.720        87
54.730        60
54.740       100
54.750        33
54.760        87
54.770        53
54.780        47
54.790        80
54.800        53
54.810        33
54.820        53
54.830        67
54.840        20
54.850        87
54.860        73
54.870        73
54.880        53
54.890        40
54.900        60
54.910        47
54.920        80
54.930        67
54.940        53
54.950        53
54.960        93
54.970        47
54.980        80
54.990        80
55.000        73
55.010        73
55.020        60
55.030        60
55.040        60
55.050        47
55.060        87
55.070        27
55.080        47
55.090        73
55.100        80
55.110        47
55.120        53
55.130        73
55.140        53
55.150        53
55.160        73
55.170        80
55.180       113
55.190        60
55.200        33
55.210        60
55.220        33
55.230        80
55.240        40
55.250        47
55.260        47
55.270        47
55.280       107
55.290        40
55.300        93
55.310        67
55.320        33
55.330        67
55.340        53
55.350        67
55.360        60
55.370        40
55.380        47
55.390        60
55.400        33
55.410        47
55.420        67
55.430       107
55.440        27
55.450        60
55.460        53
55.470        87
55.480        60
55.490        27
55.500        33
55.510        67
55.520        40
55.530        27
55.540        80
55.550        53
55.560        73
55.570        33
55.580        87
55.590        53
55.600        33
55.610        60
55.620        60
55.630        93
55.640        67
55.650        60
55.660        73
55.670        60
55.680        47
55.690       113
55.700        60
55.710        60
55.720        67
55.730        73
55.740        53
55.750        87
55.760        73
55.770        53
55.780        67
55.790        67
55.800        67
55.810        53
55.820        60
55.830       100
55.840        47
55.850        53
55.860        60
55.870        33
55.880        47
55.890        40
55.900        67
55.910        53
55.920        47
55.930        53
55.940        53
55.950        60
55.960        13
55.970        87
55.980        93
55.990       100
56.000        73
56.010        20
56.020        93
56.030        47
56.040        47
56.050        67
56.060        27
56.070        80
56.080        47
56.090        67
56.100        27
56.110        87
56.120        73
56.130        53
56.140        73
56.150        40
56.160       153
56.170        33
56.180        60
56.190        73
56.200        40
56.210        47
56.220        67
56.230        53
56.240        33
56.250        33
56.260        53
56.270        67
56.280        40
56.290        60
56.300        47
56.310        87
56.320        33
56.330        40
56.340        27
56.350        73
56.360        33
56.370        53
56.380        60
56.390        40
56.400        47
56.410        40
56.420       100
56.430        93
56.440        73
56.450        93
56.460        47
56.470        27
56.480        33
56.490        60
56.500        40
56.510        73
56.520        47
56.530        87
56.540        73
56.550        87
56.560        40
56.570        53
56.580        93
56.590        53
56.600        47
56.610        73
56.620        67
56.630        33
56.640        87
56.650        53
56.660        67
56.670        53
56.680        87
56.690        80
56.700        33
56.710        73
56.720        47
56.730       107
56.740        67
56.750        73
56.760        53
56.770       100
56.780        87
56.790        60
56.800        80
56.810        47
56.820        40
56.830        40
56.840        53
56.850        53
56.860        13
56.870        60
56.880        33
56.890        80
56.900        80
56.910        47
56.920        80
56.930        67
56.940        87
56.950        53
56.960        73
56.970        73
56.980        60
56.990        80
57.000        60
57.010        80
57.020        67
57.030        80
57.040        53
57.050        40
57.060        33
57.070        67
57.080        53
57.090        47
57.100        60
57.110        87
57.120        87
57.130        60
57.140       100
57.150        80
57.160       100
57.170        87
57.180       113
57.190        67
57.200        80
57.210        47
57.220       107
57.230        73
57.240        67
57.250       113
57.260        60
57.270        53
57.280        47
57.290        53
57.300        47
57.310        60
57.320        73
57.330        93
57.340       107
57.350        60
57.360        80
57.370        60
57.380        87
57.390        73
57.400        40
57.410        47
57.420        47
57.430        73
57.440        53
57.450        33
57.460       107
57.470        53
57.480        67
57.490        53
57.500        93
57.510        47
57.520        33
57.530        73
57.540        73
57.550        80
57.560        80
57.570        60
57.580        73
57.590        53
57.600        53
57.610        67
57.620        80
57.630        67
57.640        87
57.650        73
57.660        47
57.670        33
57.680        53
57.690        67
57.700        40
57.710        53
57.720        67
57.730        40
57.740        13
57.750        33
57.760        47
57.770        73
57.780        47
57.790        87
57.800        40
57.810        60
57.820        67
57.830        40
57.840        87
57.850        73
57.860        53
57.870        80
57.880       100
57.890        47
57.900        53
57.910        27
57.920        33
57.930        67
57.940        33
57.950        60
57.960        47
57.970        87
57.980        80
57.990        93
58.000        53
58.010        47
58.020        53
58.030        47
58.040        73
58.050        53
58.060        40
58.070        87
58.080        47
58.090        47
58.100        93
58.110        87
58.120        40
58.130        60
58.140        67
58.150        33
58.160        67
58.170        40
58.180        93
58.190        53
58.200        87
58.210        67
58.220        53
58.230        60
58.240        80
58.250        73
58.260       100
58.270        47
58.280        53
58.290        47
58.300        73
58.310        80
58.320        60
58.330        47
58.340        40
58.350        53
58.360        20
58.370        80
58.380       113
58.390        67
58.400        67
58.410        67
58.420        73
58.430        33
58.440        53
58.450        87
58.460        53
58.470        73
58.480        40
58.490        67
58.500        60
58.510        67
58.520        40
58.530        40
58.540        73
58.550        60
58.560        67
58.570        60
58.580        53
58.590        67
58.600        73
58.610        33
58.620        60
58.630        47
58.640        40
58.650        40
58.660        53
58.670        47
58.680        40
58.690        73
58.700        47
58.710       100
58.720        33
58.730        87
58.740        80
58.750        40
58.760        47
58.770        53
58.780        60
58.790        60
58.800        80
58.810        93
58.820        40
58.830        93
58.840        80
58.850        60
58.860        40
58.870        53
58.880        60
58.890        73
58.900        60
58.910        67
58.920        40
58.930        20
58.940        73
58.950        47
58.960        67
58.970        60
58.980       100
58.990        40
59.000        40
59.010        40
59.020        73
59.030        33
59.040        33
59.050        80
59.060        67
59.070        40
59.080        20
59.090        67
59.100        87
59.110        60
59.120        73
59.130       113
59.140        60
59.150        80
59.160        67
59.170        67
59.180        40
59.190        53
59.200        47
59.210        53
59.220        60
59.230        40
59.240        33
59.250        47
59.260        67
59.270        13
59.280        67
59.290        40
59.300        47
59.310        33
59.320        47
59.330        73
59.340        27
59.350        80
59.360        53
59.370        67
59.380        80
59.390        53
59.400        47
59.410        40
59.420        47
59.430        40
59.440        47
59.450        53
59.460        47
59.470        20
59.480        80
59.490        40
59.500        53
59.510        80
59.520        40
59.530        47
59.540        47
59.550        73
59.560        67
59.570        53
59.580        40
59.590        73
59.600        33
59.610        20
59.620        27
59.630        60
59.640        67
59.650        67
59.660        47
59.670        80
59.680        47
59.690        40
59.700        47
59.710        73
59.720        53
59.730        53
59.740        53
59.750        27
59.760        87
59.770        47
59.780        80
59.790        40
59.800        60
59.810        33
59.820        47
59.830        40
59.840        67
59.850        60
59.860        67
59.870        53
59.880        73
59.890        40
59.900        40
59.910        67
59.920        27
59.930        73
59.940        60
59.950        27
59.960        53
59.970        27
59.980        80
59.990         7
60.000         7
