20.000        37
20.020        30
20.040        57
20.060        27
20.080        47
20.100        43
20.120        47
20.140        63
20.160        20
20.180        57
20.200        53
20.220        43
20.240        47
20.260        27
20.280        60
20.300        57
20.320        23
20.340        30
20.360        47
20.380        50
20.400        43
20.420        43
20.440        27
20.460        30
20.480        33
20.500        20
20.520        27
20.540        20
20.560        60
20.580        40
20.600        33
20.620        30
20.640        33
20.660        40
20.680        23
20.700        40
20.720        30
20.740        47
20.760        30
20.780        37
20.800        37
20.820        27
20.840        67
20.860        53
20.880        30
20.900        40
20.920        53
20.940        30
20.960        47
20.980        30
21.000        30
21.020        37
21.040        47
21.060        43
21.080        53
21.100        60
21.120        53
21.140        33
21.160        43
21.180        63
21.200        43
21.220        40
21.240        37
21.260        53
21.280        23
21.300        27
21.320        33
21.340        50
21.360        30
21.380        30
21.400        30
21.420        43
21.440        50
21.460        57
21.480        37
21.500        40
21.520        50
21.540        53
21.560        40
21.580        53
21.600        40
21.620        30
21.640        40
21.660        53
21.680        23
21.700        40
21.720        40
21.740        33
21.760        30
21.780        20
21.800        33
21.820        67
21.840        47
21.860        47
21.880        40
21.900        50
21.920        60
21.940        63
21.960        77
21.980        73
22.000        60
22.020        50
22.040        80
22.060        43
22.080        70
22.100        67
22.120        60
22.140        67
22.160        43
22.180        47
22.200        80
22.220       100
22.240        53
22.260        47
22.280        43
22.300        67
22.320        70
22.340        77
22.360        43
22.380        77
22.400        43
22.420        63
22.440        47
22.460        47
22.480        53
22.500        47
22.520        37
22.540        63
22.560        40
22.580        53
22.600        57
22.620        50
22.640        43
22.660        37
22.680        43
22.700        60
22.720        40
22.740        57
22.760        67
22.780        70
22.800        47
22.820        27
22.840        57
22.860        37
22.880        63
22.900        60
22.920        47
22.940        53
22.960        33
22.980        33
23.000        37
23.020        57
23.040        57
23.060        20
23.080        30
23.100        37
23.120        53
23.140        40
23.160        40
23.180        33
23.200        63
23.220        63
23.240        37
23.260        60
23.280        27
23.300        63
23.320        27
23.340        30
23.360        37
23.380        40
23.400        40
23.420        53
23.440        40
23.460        43
23.480        40
23.500        40
23.520        27
23.540        23
23.560        43
23.580        47
23.600        37
23.620        43
23.640        33
23.660        43
23.680        23
23.700        27
23.720        53
23.740        57
23.760        40
23.780        37
23.800        30
23.820        33
23.840        57
23.860        53
23.880        17
23.900        20
23.920        37
23.940        47
23.960        27
23.980        33
24.000        43
24.020        33
24.040        47
24.060        20
24.080        33
24.100        27
24.120        17
24.140        43
24.160        17
24.180        43
24.200        57
24.220        27
24.240        53
24.260        30
24.280        40
24.300        30
24.320        17
24.340        17
24.360        27
24.380        20
24.400        47
24.420        37
24.440        37
24.460        40
24.480        57
24.500        20
24.520        33
24.540        47
24.560        27
24.580        43
24.600        60
24.620        37
24.640        47
24.660        40
24.680        63
24.700        50
24.720        37
24.740        57
24.760        40
24.780        20
24.800        53
24.820        53
24.840        40
24.860        20
24.880        23
24.900        57
24.920        57
24.940        50
24.960        67
24.980        27
25.000        43
25.020        67
25.040        40
25.060        50
25.080        50
25.100        67
25.120        37
25.140        57
25.160        40
25.180        23
25.200        47
25.220        53
25.240        43
25.260        43
25.280        33
25.300        57
25.320        63
25.340        50
25.360        80
25.380        50
25.400        73
25.420        67
25.440        83
25.460        83
25.480        83
25.500        63
25.520        83
25.540       113
25.560       203
25.580       407
25.600       623
25.620       836
25.640       806
25.660      1043
25.680      1409
25.700      1896
25.720      2552
25.740      3045
25.760      3065
25.780      2532
25.800      1956
25.820      1286
25.840      1016
25.860       556
25.880       173
25.900       123
25.920        87
25.940       107
25.960        73
25.980        67
26.000        63
26.020        57
26.040        50
26.060        60
26.080        43
26.100        60
26.120        33
26.140        50
26.160        30
26.180        40
26.200        27
26.220        57
26.240        63
26.260        57
26.280        50
26.300        63
26.320        53
26.340        43
26.360        63
26.380        47
26.400        43
26.420        53
26.440        33
26.460        47
26.480        33
26.500        60
26.520        43
26.540        47
26.560        40
26.580        47
26.600        67
26.620        50
26.640        50
26.660        30
26.680        40
26.700        30
26.720        43
26.740        10
26.760        47
26.780        23
26.800        37
26.820        37
26.840        37
26.860        27
26.880        47
26.900        40
26.920        70
26.940        13
26.960        50
26.980        60
27.000        23
27.020        50
27.040        17
27.060        40
27.080        33
27.100        57
27.120        37
27.140        57
27.160        67
27.180        70
27.200        43
27.220        43
27.240        60
27.260        30
27.280        37
27.300        37
27.320        43
27.340        33
27.360        50
27.380        30
27.400        27
27.420        30
27.440        43
27.460        37
27.480        57
27.500        37
27.520        47
27.540        43
27.560        40
27.580        23
27.600        23
27.620        53
27.640        30
27.660        30
27.680        10
27.700        43
27.720        27
27.740        37
27.760        63
27.780        40
27.800        40
27.820        40
27.840        23
27.860        50
27.880        57
27.900        33
27.920        97
27.940        17
27.960        47
27.980        47
28.000        50
28.020        37
28.040        17
28.060        70
28.080        13
28.100        57
28.120        23
28.140        37
28.160        50
28.180        43
28.200        57
28.220        20
28.240        27
28.260        23
28.280        40
28.300        33
28.320        27
28.340        40
28.360        30
28.380        23
28.400        57
28.420        33
28.440        43
28.460        27
28.480        40
28.500        43
28.520        47
28.540        30
28.560        17
28.580        30
28.600        37
28.620        50
28.640        33
28.660        27
28.680        27
28.700        30
28.720        43
28.740        40
28.760        43
28.780        47
28.800        30
28.820        13
28.840        37
28.860        33
28.880        33
28.900        57
28.920        47
28.940        60
28.960        50
28.980        40
29.000        37
29.020        40
29.040        63
29.060        37
29.080        53
29.100        57
29.120        30
29.140        43
29.160        30
29.180        37
29.200        47
29.220        70
29.240        50
29.260        50
29.280        27
29.300        33
29.320        67
29.340        47
29.360        30
29.380        57
29.400        37
29.420        23
29.440        33
29.460        60
29.480        43
29.500        27
29.520        67
29.540        53
29.560        30
29.580        37
29.600        50
29.620        40
29.640        63
29.660        40
29.680        27
29.700        47
29.720        50
29.740        47
29.760        33
29.780        30
29.800        33
29.820        50
29.840        30
29.860        60
29.880        57
29.900        57
29.920        33
29.940        70
29.960        57
29.980        53
30.000        77
30.020        53
30.040        33
30.060        53
30.080        37
30.100        50
30.120        30
30.140        40
30.160        80
30.180        53
30.200        47
30.220        33
30.240        40
30.260        57
30.280        47
30.300        30
30.320        77
30.340        50
30.360        47
30.380        33
30.400        30
30.420        50
30.440        67
30.460        53
30.480        77
30.500        83
30.520        57
30.540        57
30.560        50
30.580        47
30.600        57
30.620        87
30.640        57
30.660        80
30.680        70
30.700        70
30.720        63
30.740        43
30.760        57
30.780        50
30.800       103
30.820        50
30.840        63
30.860        97
30.880        73
30.900        43
30.920        80
30.940        57
30.960        63
30.980        67
31.000        60
31.020        63
31.040        73
31.060        57
31.080        67
31.100        63
31.120        67
31.140        70
31.160        67
31.180        87
31.200        70
31.220        67
31.240        87
31.260        73
31.280        60
31.300       103
31.320       113
31.340       100
31.360        83
31.380        73
31.400        77
31.420       127
31.440        83
31.460        93
31.480        90
31.500        70
31.520       117
31.540       103
31.560       117
31.580        77
31.600       117
31.620       113
31.640       103
31.660       100
31.680        87
31.700       100
31.720       103
31.740       107
31.760       117
31.780        93
31.800       133
31.820       103
31.840        93
31.860        77
31.880        93
31.900        97
31.920       103
31.940       133
31.960        73
31.980        87
32.000       110
32.020        77
32.040        80
32.060        77
32.080        73
32.100        70
32.120        77
32.140        93
32.160        93
32.180        97
32.200        83
32.220        87
32.240        97
32.260        90
32.280        60
32.300       103
32.320        60
32.340        87
32.360        53
32.380        57
32.400       100
32.420        73
32.440        77
32.460        87
32.480        70
32.500        67
32.520       110
32.540        87
32.560        63
32.580       130
32.600        77
32.620        57
32.640        83
32.660        63
32.680       110
32.700        87
32.720        73
32.740        70
32.760       103
32.780        87
32.800        93
32.820        80
32.840        87
32.860        73
32.880        70
32.900        93
32.920        80
32.940        87
32.960        83
32.980        70
33.000        77
33.020        77
33.040        67
33.060        53
33.080        93
33.100        73
33.120        90
33.140       100
33.160        93
33.180        77
33.200        73
33.220        60
33.240        97
33.260        70
33.280        87
33.300        93
33.320        43
33.340        90
33.360        83
33.380        90
33.400        90
33.420        70
33.440        77
33.460       103
33.480       107
33.500        77
33.520        70
33.540        80
33.560        83
33.580        83
33.600        83
33.620        83
33.640        47
33.660        73
33.680       100
33.700        70
33.720        90
33.740        63
33.760        77
33.780        60
33.800        80
33.820        87
33.840        93
33.860       107
33.880        77
33.900       100
33.920        77
33.940        97
33.960        77
33.980        77
34.000        80
34.020        73
34.040        83
34.060        87
34.080        93
34.100       107
34.120        90
34.140       100
34.160        87
34.180        90
34.200       100
34.220        73
34.240        67
34.260        77
34.280        73
34.300        93
34.320       100
34.340        67
34.360       100
34.380        80
34.400        60
34.420        77
34.440        87
34.460        97
34.480        60
34.500        93
34.520        77
34.540        70
34.560        73
34.580        90
34.600        73
34.620        60
34.640       110
34.660        93
34.680       120
34.700       100
34.720        80
34.740        57
34.760        70
34.780       113
34.800        83
34.820        80
34.840        70
34.860        63
34.880        97
34.900        93
34.920        53
34.940        87
34.960        83
34.980        80
35.000        70
35.020        97
35.040        93
35.060        70
35.080        77
35.100        83
35.120        77
35.140        87
35.160        93
35.180        63
35.200        43
35.220        87
35.240        73
35.260        57
35.280        77
35.300        90
35.320        97
35.340        77
35.360       110
35.380        80
35.400       100
35.420        93
35.440        57
35.460        70
35.480       117
35.500        90
35.520       117
35.540        90
35.560        60
35.580        83
35.600        73
35.620        87
35.640        90
35.660        60
35.680        57
35.700       100
35.720        90
35.740        63
35.760        83
35.780        67
35.800        97
35.820        70
35.840        70
35.860        80
35.880        70
35.900        77
35.920        97
35.940        67
35.960        57
35.980        93
36.000        60
36.020        67
36.040        87
36.060        83
36.080        60
36.100        73
36.120        73
36.140        53
36.160        73
36.180        77
36.200        87
36.220        80
36.240        73
36.260        57
36.280       113
36.300        43
36.320        77
36.340        63
36.360        57
36.380        57
36.400        57
36.420        63
36.440        80
36.460        70
36.480        60
36.500        53
36.520        77
36.540        57
36.560       103
36.580        90
36.600        67
36.620        53
36.640        70
36.660        40
36.680        53
36.700        83
36.720        60
36.740        63
36.760        47
36.780        43
36.800        50
36.820        83
36.840        63
36.860        57
36.880        53
36.900        57
36.920        63
36.940        27
36.960        83
36.980        53
37.000        37
37.020        80
37.040        40
37.060        70
37.080        47
37.100        57
37.120        77
37.140        53
37.160        70
37.180        47
37.200        67
37.220        40
37.240        43
37.260        77
37.280        53
37.300        70
37.320        63
37.340        47
37.360        93
37.380        67
37.400        53
37.420        77
37.440        60
37.460        37
37.480        50
37.500        60
37.520        50
37.540        40
37.560        37
37.580        50
37.600        40
37.620        63
37.640        53
37.660        43
37.680        60
37.700        43
37.720        57
37.740        33
37.760        60
37.780        53
37.800        67
37.820        53
37.840        30
37.860        40
37.880        67
37.900        67
37.920        50
37.940        80
37.960        40
37.980        53
38.000        47
38.020        70
38.040        50
38.060        77
38.080        50
38.100        43
38.120        63
38.140        33
38.160        40
38.180        57
38.200        53
38.220        60
38.240        40
38.260        57
38.280        37
38.300        43
38.320        47
38.340        30
38.360        53
38.380        53
38.400        33
38.420        60
38.440        53
38.460        47
38.480        67
38.500        87
38.520        57
38.540        40
38.560        20
38.580        43
38.600        37
38.620        33
38.640        57
38.660        60
38.680        50
38.700        43
38.720        53
38.740        37
38.760        50
38.780        43
38.800        63
38.820        67
38.840       100
38.860        50
38.880        47
38.900        67
38.920        73
38.940        47
38.960        53
38.980        50
39.000        87
39.020        70
39.040        57
39.060        50
39.080        93
39.100        53
39.120        77
39.140        70
39.160        63
39.180        67
39.200        70
39.220        73
39.240        60
39.260        53
39.280        70
39.300        60
39.320        80
39.340        73
39.360        53
39.380        60
39.400        70
39.420        40
39.440        57
39.460        63
39.480        40
39.500        50
39.520        70
39.540        53
39.560        53
39.580        53
39.600        47
39.620        50
39.640        47
39.660        53
39.680        30
39.700        60
39.720        57
39.740        47
39.760        40
39.780        60
39.800        33
39.820        30
39.840        40
39.860        60
39.880        43
39.900        47
39.920        60
39.940        43
39.960        73
39.980        53
40.000        37
40.020        67
40.040        43
40.060        37
40.080        50
40.100        53
40.120        43
40.140        40
40.160        47
40.180        43
40.200        60
40.220        47
40.240        50
40.260        23
40.280        40
40.300        30
40.320        40
40.340        40
40.360        27
40.380        40
40.400        57
40.420        43
40.440        47
40.460        43
40.480        53
40.500        23
40.520        33
40.540        73
40.560        40
40.580        53
40.600        27
40.620        33
40.640        27
40.660        53
40.680        33
40.700        53
40.720        53
40.740        40
40.760        60
40.780        27
40.800        50
40.820        43
40.840        27
40.860        50
40.880        47
40.900        23
40.920        33
40.940        33
40.960        37
40.980        50
41.000        33
41.020        27
41.040        30
41.060        50
41.080        43
41.100        17
41.120        33
41.140        33
41.160        33
41.180        37
41.200        27
41.220        23
41.240        63
41.260        30
41.280        43
41.300        60
41.320        40
41.340        50
41.360        37
41.380        33
41.400        40
41.420        37
41.440        30
41.460        40
41.480        37
41.500        73
41.520        47
41.540        27
41.560        37
41.580        37
41.600        37
41.620        50
41.640        50
41.660        23
41.680        47
41.700        40
41.720        27
41.740        33
41.760        37
41.780        37
41.800        40
41.820        43
41.840        43
41.860        50
41.880        40
41.900        27
41.920        33
41.940        47
41.960        37
41.980        40
42.000        43
42.020        30
42.040        40
42.060        50
42.080        50
42.100        37
42.120         3
42.140        33
42.160        40
42.180        27
42.200        40
42.220        27
42.240        47
42.260        50
42.280        40
42.300        40
42.320        37
42.340        37
42.360        47
42.380        33
42.400        53
42.420        63
42.440        43
42.460        57
42.480        23
42.500        33
42.520        57
42.540        30
42.560        27
42.580        23
42.600        23
42.620        33
42.640        47
42.660        67
42.680        47
42.700        27
42.720        43
42.740        37
42.760        30
42.780        43
42.800        30
42.820        43
42.840        23
42.860        47
42.880        20
42.900        27
42.920        60
42.940        53
42.960        50
42.980        27
43.000        37
43.020        33
43.040        27
43.060        57
43.080        43
43.100        47
43.120        27
43.140        20
43.160        40
43.180        30
43.200        47
43.220        60
43.240        27
43.260        33
43.280        20
43.300        20
43.320        43
43.340        43
43.360        37
43.380        33
43.400        33
43.420        27
43.440        37
43.460        47
43.480        53
43.500        43
43.520        40
43.540        30
43.560        57
43.580        30
43.600        43
43.620        27
43.640        37
43.660        67
43.680        37
43.700        37
43.720        50
43.740        47
43.760        27
43.780        27
43.800        43
43.820        53
43.840        53
43.860        30
43.880        40
43.900        30
43.920        57
43.940        47
43.960        73
43.980        50
44.000        57
44.020        50
44.040        67
44.060        53
44.080        63
44.100        53
44.120        37
44.140        43
44.160        37
44.180        50
44.200        50
44.220        63
44.240        37
44.260        70
44.280        60
44.300        50
44.320        53
44.340        33
44.360        47
44.380        67
44.400        93
44.420        33
44.440        60
44.460        47
44.480        30
44.500        87
44.520        70
44.540        43
44.560        47
44.580        67
44.600        43
44.620        70
44.640        73
44.660        97
44.680        80
44.700        60
44.720        97
44.740       117
44.760       110
44.780        90
44.800       113
44.820        67
44.840       107
44.860        97
44.880       110
44.900       123
44.920        97
44.940       110
44.960       147
44.980       170
45.000       143
45.020        83
45.040       110
45.060       120
45.080       150
45.100       147
45.120       147
45.140       130
45.160       103
45.180       147
45.200       130
45.220       120
45.240       157
45.260       133
45.280       137
45.300       177
45.320       120
45.340       113
45.360       120
45.380       137
45.400       143
45.420        97
45.440       103
45.460       123
45.480       140
45.500       117
45.520       100
45.540       123
45.560       120
45.580        83
45.600        83
45.620       107
45.640        93
45.660        77
45.680       110
45.700        80
45.720        90
45.740        67
45.760        63
45.780        90
45.800        97
45.820        67
45.840        50
45.860        87
45.880        60
45.900        53
45.920        50
45.940       123
45.960        70
45.980        80
46.000        73
46.020        53
46.040        67
46.060        63
46.080        63
46.100        77
46.120        83
46.140        70
46.160        40
46.180        57
46.200        63
46.220        47
46.240        73
46.260        63
46.280        60
46.300        60
46.320        50
46.340        40
46.360        50
46.380        43
46.400        47
46.420        43
46.440        63
46.460        40
46.480        53
46.500        37
46.520        40
46.540        63
46.560        47
46.580        30
46.600        47
46.620        43
46.640        70
46.660        63
46.680        43
46.700        63
46.720        63
46.740        70
46.760        50
46.780        47
46.800        60
46.820        73
46.840        33
46.860        40
46.880        40
46.900        73
46.920        70
46.940        70
46.960        90
46.980        43
47.000        87
47.020        63
47.040        87
47.060        63
47.080        90
47.100        70
47.120       147
47.140       157
47.160       287
47.180       490
47.200       670
47.220       686
47.240       570
47.260       303
47.280       177
47.300       103
47.320       123
47.340        90
47.360        80
47.380        77
47.400        57
47.420        70
47.440        50
47.460        67
47.480        73
47.500        47
47.520        57
47.540        43
47.560        43
47.580        47
47.600        23
47.620        57
47.640        57
47.660        50
47.680        33
47.700        47
47.720        37
47.740        67
47.760        53
47.780        23
47.800        60
47.820        40
47.840        40
47.860        50
47.880        40
47.900        37
47.920        40
47.940        47
47.960        33
47.980        10
48.000        47
48.020        60
48.040        47
48.060        30
48.080        27
48.100        47
48.120        30
48.140        37
48.160        43
48.180        27
48.200        43
48.220        50
48.240        60
48.260        57
48.280        40
48.300        50
48.320        50
48.340        47
48.360        50
48.380        47
48.400        73
48.420        50
48.440        30
48.460        47
48.480        50
48.500        57
48.520        50
48.540        30
48.560        30
48.580        37
48.600        37
48.620        53
48.640        60
48.660        40
48.680        27
48.700        33
48.720        43
48.740        63
48.760        30
48.780        33
48.800        33
48.820        67
48.840        23
48.860        67
48.880        57
48.900        57
48.920        37
48.940        50
48.960        40
48.980        30
49.000        37
49.020        40
49.040        27
49.060        50
49.080        40
49.100        37
49.120        10
49.140        33
49.160        27
49.180        43
49.200        27
49.220        30
49.240        30
49.260        33
49.280        20
49.300        33
49.320        43
49.340        33
49.360        40
49.380        40
49.400        47
49.420        33
49.440        13
49.460        60
49.480        37
49.500        40
49.520        33
49.540        40
49.560        20
49.580        37
49.600        33
49.620        27
49.640        30
49.660        40
49.680        37
49.700        63
49.720        40
49.740        40
49.760        50
49.780        20
49.800        17
49.820        43
49.840        33
49.860        60
49.880        40
49.900        30
49.920        23
49.940        47
49.960        47
49.980        57
50.000        43
50.020        67
50.040        37
50.060        30
50.080        53
50.100        37
50.120        47
50.140        53
50.160        50
50.180        43
50.200        53
50.220        27
50.240        47
50.260        40
50.280        47
50.300        43
50.320        50
50.340        17
50.360        30
50.380        50
50.400        63
50.420        40
50.440        17
50.460        33
50.480        47
50.500        50
50.520        47
50.540        47
50.560        37
50.580        57
50.600        27
50.620        83
50.640        53
50.660        93
50.680       153
50.700       163
50.720       163
50.740       147
50.760       250
50.780       163
50.800       207
50.820       187
50.840       183
50.860       207
50.880       180
50.900       213
50.920       277
50.940       217
50.960       183
50.980       187
51.000       120
51.020       163
51.040       187
51.060       247
51.080       170
51.100       197
51.120       213
51.140       187
51.160       153
51.180       207
51.200       227
51.220       183
51.240       177
51.260       193
51.280       200
51.300       230
51.320       190
51.340       197
51.360       207
51.380       160
51.400       220
51.420       223
51.440       193
51.460       230
51.480       187
51.500       253
51.520       200
51.540       240
51.560       190
51.580       200
51.600       163
51.620       190
51.640       253
51.660       237
51.680       177
51.700       237
51.720       237
51.740       197
51.760       257
51.780       250
51.800       213
51.820       270
51.840       257
51.860       257
51.880       260
51.900       283
51.920       233
51.940       270
51.960       293
51.980       290
52.000       267
52.020       270
52.040       257
52.060       283
52.080       307
52.100       340
52.120       317
52.140       320
52.160       317
52.180       443
52.200       440
52.220       463
52.240       523
52.260       610
52.280       740
52.300       880
52.320      1296
52.340      1346
52.360      1469
52.380      1749
52.400      1753
52.420      1916
52.440      2642
52.460      3615
52.480      4785
52.500      6661
52.520      9370
52.540     17060
52.560     43723
52.580     76823
52.600     91647
52.620     84729
52.640     51083
52.660     23674
52.680     18083
52.700     29242
52.720     44092
52.740     51180
52.760     46278
52.780     27076
52.800     11679
52.820      5784
52.840      4295
52.860      3609
52.880      2762
52.900      2023
52.920      1539
52.940      1160
52.960       926
52.980       806
53.000       730
53.020       590
53.040       576
53.060       536
53.080       430
53.100       397
53.120       453
53.140       377
53.160       377
53.180       347
53.200       393
53.220       387
53.240       333
53.260       293
53.280       240
53.300       320
53.320       310
53.340       293
53.360       303
53.380       337
53.400       297
53.420       297
53.440       230
53.460       300
53.480       253
53.500       227
53.520       217
53.540       273
53.560       233
53.580       210
53.600       193
53.620       203
53.640       233
53.660       190
53.680       190
53.700       230
53.720       163
53.740       213
53.760       187
53.780       213
53.800       203
53.820       230
53.840       187
53.860       193
53.880       213
53.900       147
53.920       200
53.940       143
53.960       167
53.980       213
54.000       170
54.020       167
54.040       230
54.060       240
54.080       170
54.100       147
54.120       163
54.140       177
54.160       153
54.180       177
54.200       147
54.220       167
54.240       150
54.260       193
54.280       123
54.300       170
54.320       143
54.340       140
54.360       163
54.380       160
54.400       120
54.420       147
54.440       163
54.460       140
54.480       150
54.500       170
54.520       150
54.540       143
54.560       147
54.580       190
54.600       133
54.620       123
54.640       130
54.660       140
54.680       127
54.700       123
54.720       103
54.740       153
54.760       130
54.780       120
54.800        97
54.820       110
54.840       187
54.860       157
54.880        97
54.900       153
54.920       157
54.940       167
54.960       137
54.980       120
55.000       113
55.020       117
55.040       133
55.060       130
55.080       147
55.100       130
55.120       147
55.140       143
55.160       110
55.180       107
55.200       177
55.220        97
55.240       110
55.260       153
55.280       160
55.300       120
55.320       133
55.340        73
55.360       140
55.380       123
55.400        90
55.420       180
55.440       120
55.460       157
55.480       133
55.500       103
55.520       147
55.540       120
55.560        97
55.580        97
55.600       133
55.620       133
55.640       133
55.660       137
55.680       110
55.700       103
55.720       133
55.740       147
55.760       170
55.780       103
55.800       110
55.820        97
55.840        93
55.860       103
55.880       143
55.900        97
55.920       150
55.940       117
55.960       113
55.980       120
56.000       107
56.020       117
56.040       123
56.060       157
56.080        93
56.100       113
56.120       133
56.140       117
56.160       110
56.180        80
56.200        93
56.220       130
56.240        97
56.260       120
56.280       100
56.300       130
56.320       127
56.340       103
56.360       140
56.380        87
56.400       113
56.420       113
56.440       130
56.460       110
56.480       110
56.500        97
56.520       120
56.540       140
56.560        73
56.580       110
56.600       107
56.620       147
56.640       100
56.660       123
56.680       123
56.700       100
56.720       167
56.740        83
56.760       120
56.780       117
56.800        93
56.820        97
56.840       103
56.860       127
56.880        97
56.900       113
56.920       150
56.940       110
56.960        80
56.980       117
57.000       100
57.020       100
57.040       113
57.060       140
57.080       100
57.100       110
57.120       100
57.140        80
57.160        93
57.180        83
57.200        93
57.220       100
57.240       110
57.260       113
57.280        83
57.300       100
57.320        80
57.340        70
57.360        70
57.380        83
57.400        73
57.420       107
57.440       110
57.460       107
57.480       110
57.500        97
57.520       113
57.540        73
57.560        93
57.580       117
57.600        83
57.620        63
57.640       110
57.660       100
57.680        63
57.700        93
57.720       103
57.740        87
57.760        80
57.780        77
57.800       113
57.820        87
57.840        87
57.860        83
57.880       133
57.900       103
57.920        90
57.940        87
57.960       110
57.980        73
58.000       103
58.020        93
58.040       100
58.060        83
58.080       110
58.100        80
58.120        80
58.140       120
58.160        77
58.180        67
58.200        87
58.220        83
58.240        80
58.260       113
58.280        93
58.300       103
58.320        93
58.340        90
58.360        87
58.380        93
58.400        77
58.420        90
58.440        80
58.460        70
58.480        87
58.500        93
58.520        63
58.540       123
58.560        77
58.580        77
58.600        87
58.620        73
58.640        77
58.660        97
58.680       130
58.700        70
58.720        73
58.740        83
58.760        90
58.780       103
58.800       100
58.820        83
58.840        97
58.860        93
58.880       110
58.900       117
58.920        67
58.940        87
58.960        77
58.980        60
59.000        57
59.020        77
59.040        77
59.060        73
59.080        87
59.100       100
59.120       100
59.140        50
59.160        77
59.180        70
59.200       100
59.220        90
59.240        93
59.260        43
59.280        73
59.300       113
59.320        57
59.340        63
59.360        70
59.380        53
59.400        67
59.420        97
59.440        70
59.460       103
59.480        73
59.500        93
59.520        70
59.540       103
59.560        80
59.580        67
59.600        73
59.620        83
59.640        77
59.660        80
59.680        57
59.700        50
59.720        77
59.740        93
59.760        47
59.780        90
59.800        87
59.820        67
59.840        77
59.860        83
59.880        80
59.900        53
59.920        73
59.940        87
59.960        97
59.980        40
60.000        40
