20.000       243
20.020       243
20.040       273
20.060       300
20.080       290
20.100       300
20.120       287
20.140       280
20.160       353
20.180       347
20.200       327
20.220       353
20.240       267
20.260       320
20.280       347
20.300       303
20.320       297
20.340       287
20.360       300
20.380       317
20.400       313
20.420       313
20.440       347
20.460       313
20.480       330
20.500       317
20.520       277
20.540       287
20.560       323
20.580       287
20.600       267
20.620       343
20.640       263
20.660       273
20.680       253
20.700       280
20.720       343
20.740       307
20.760       330
20.780       257
20.800       290
20.820       257
20.840       337
20.860       283
20.880       263
20.900       297
20.920       267
20.940       243
20.960       237
20.980       277
21.000       230
21.020       283
21.040       273
21.060       270
21.080       263
21.100       290
21.120       297
21.140       303
21.160       293
21.180       307
21.200       303
21.220       300
21.240       193
21.260       297
21.280       233
21.300       340
21.320       267
21.340       267
21.360       267
21.380       273
21.400       283
21.420       313
21.440       290
21.460       277
21.480       273
21.500       250
21.520       280
21.540       293
21.560       253
21.580       300
21.600       280
21.620       293
21.640       287
21.660       233
21.680       200
21.700       290
21.720       297
21.740       267
21.760       223
21.780       243
21.800       250
21.820       293
21.840       250
21.860       283
21.880       280
21.900       313
21.920       250
21.940       290
21.960       280
21.980       280
22.000       253
22.020       337
22.040       360
22.060       337
22.080       327
22.100       390
22.120       350
22.140       393
22.160       387
22.180       413
22.200       387
22.220       400
22.240       470
22.260       373
22.280       393
22.300       466
22.320       530
22.340       486
22.360       393
22.380       483
22.400       426
22.420       436
22.440       380
22.460       340
22.480       420
22.500       390
22.520       337
22.540       337
22.560       283
22.580       343
22.600       307
22.620       317
22.640       293
22.660       287
22.680       327
22.700       283
22.720       250
22.740       290
22.760       283
22.780       273
22.800       303
22.820       257
22.840       313
22.860       243
22.880       290
22.900       240
22.920       230
22.940       237
22.960       233
22.980       300
23.000       277
23.020       277
23.040       280
23.060       257
23.080       270
23.100       287
23.120       277
23.140       250
23.160       283
23.180       217
23.200       310
23.220       257
23.240       300
23.260       290
23.280       223
23.300       247
23.320       263
23.340       223
23.360       303
23.380       333
23.400       270
23.420       263
23.440       253
23.460       273
23.480       290
23.500       213
23.520       263
23.540       237
23.560       207
23.580       253
23.600       280
23.620       267
23.640       267
23.660       287
23.680       220
23.700       197
23.720       237
23.740       257
23.760       243
23.780       273
23.800       243
23.820       227
23.840       270
23.860       277
23.880       253
23.900       210
23.920       207
23.940       233
23.960       240
23.980       203
24.000       267
24.020       233
24.040       247
24.060       217
24.080       247
24.100       240
24.120       280
24.140       227
24.160       260
24.180       280
24.200       240
24.220       227
24.240       223
24.260       257
24.280       223
24.300       300
24.320       217
24.340       200
24.360       243
24.380       267
24.400       273
24.420       233
24.440       203
24.460       203
24.480       270
24.500       263
24.520       230
24.540       223
24.560       253
24.580       273
24.600       187
24.620       223
24.640       250
24.660       223
24.680       263
24.700       210
24.720       240
24.740       263
24.760       247
24.780       203
24.800       220
24.820       263
24.840       263
24.860       233
24.880       210
24.900       240
24.920       220
24.940       233
24.960       253
24.980       223
25.000       217
25.020       277
25.040       213
25.060       220
25.080       260
25.100       230
25.120       220
25.140       243
25.160       247
25.180       187
25.200       213
25.220       217
25.240       233
25.260       223
25.280       210
25.300       193
25.320       283
25.340       267
25.360       237
25.380       200
25.400       207
25.420       243
25.440       260
25.460       223
25.480       257
25.500       217
25.520       187
25.540       227
25.560       180
25.580       233
25.600       250
25.620       227
25.640       173
25.660       197
25.680       217
25.700       193
25.720       157
25.740       173
25.760       160
25.780       173
25.800       143
25.820       173
25.840       150
25.860       150
25.880       103
25.900       137
25.920       143
25.940       130
25.960       207
25.980       173
26.000       183
26.020       147
26.040       140
26.060       120
26.080       140
26.100       137
26.120       160
26.140       107
26.160       120
26.180       127
26.200       120
26.220       143
26.240       140
26.260       127
26.280       100
26.300       123
26.320       123
26.340       137
26.360       130
26.380       103
26.400       133
26.420       130
26.440       103
26.460       133
26.480       120
26.500       130
26.520       113
26.540       120
26.560       103
26.580       117
26.600       130
26.620       137
26.640        93
26.660       167
26.680       137
26.700        90
26.720       123
26.740       123
26.760        70
26.780       130
26.800       123
26.820       113
26.840       120
26.860       127
26.880        97
26.900       123
26.920        90
26.940        90
26.960       130
26.980        87
27.000       103
27.020       123
27.040        83
27.060       130
27.080       103
27.100        80
27.120       137
27.140        80
27.160       150
27.180       110
27.200        83
27.220        93
27.240        90
27.260       137
27.280       150
27.300       123
27.320        83
27.340       133
27.360       127
27.380       100
27.400       103
27.420       157
27.440       133
27.460       140
27.480        90
27.500        97
27.520       107
27.540       110
27.560       153
27.580       150
27.600        50
27.620       123
27.640       123
27.660       110
27.680        90
27.700       103
27.720       117
27.740       113
27.760        87
27.780        90
27.800       107
27.820       127
27.840        97
27.860       120
27.880       120
27.900       117
27.920        77
27.940       100
27.960       120
27.980       113
28.000       117
28.020        90
28.040       113
28.060       140
28.080       107
28.100       100
28.120        97
28.140       117
28.160        90
28.180       100
28.200       117
28.220        77
28.240       113
28.260       123
28.280        93
28.300        90
28.320       120
28.340       100
28.360       140
28.380       117
28.400        73
28.420        63
28.440        93
28.460       107
28.480        87
28.500       103
28.520       123
28.540       100
28.560       107
28.580       107
28.600       133
28.620       103
28.640        93
28.660       100
28.680        83
28.700       117
28.720       120
28.740       133
28.760       100
28.780        83
28.800       100
28.820       130
28.840       127
28.860       120
28.880       107
28.900       113
28.920        67
28.940       113
28.960       113
28.980       100
29.000       117
29.020       140
29.040       107
29.060       123
29.080       113
29.100        90
29.120       107
29.140        77
29.160        87
29.180       103
29.200       113
29.220       113
29.240       107
29.260       130
29.280        97
29.300        90
29.320       130
29.340        97
29.360       127
29.380       103
29.400       113
29.420       113
29.440        97
29.460       107
29.480       117
29.500       140
29.520       100
29.540       140
29.560       140
29.580       123
29.600       107
29.620        73
29.640        97
29.660        63
29.680       113
29.700        90
29.720       137
29.740       120
29.760        97
29.780       160
29.800        97
29.820       123
29.840       117
29.860       110
29.880       107
29.900       117
29.920       133
29.940       150
29.960       120
29.980       100
30.000       107
30.020       137
30.040       150
30.060        77
30.080       120
30.100       120
30.120       167
30.140       147
30.160       133
30.180       140
30.200       123
30.220       127
30.240       113
30.260       117
30.280       127
30.300        93
30.320       100
30.340        87
30.360       133
30.380       140
30.400       110
30.420       117
30.440       170
30.460       147
30.480        97
30.500       170
30.520       130
30.540       107
30.560       130
30.580       137
30.600       157
30.620       150
30.640       130
30.660       100
30.680       153
30.700       127
30.720       160
30.740       153
30.760       140
30.780       167
30.800       107
30.820       137
30.840       170
30.860       133
30.880       183
30.900       140
30.920       137
30.940       153
30.960       157
30.980       113
31.000        97
31.020       120
31.040       140
31.060       113
31.080       160
31.100       130
31.120       137
31.140       147
31.160       177
31.180       183
31.200       117
31.220       163
31.240       190
31.260       183
31.280       190
31.300       157
31.320       170
31.340       157
31.360       180
31.380       163
31.400       183
31.420       200
31.440       167
31.460       233
31.480       190
31.500       197
31.520       203
31.540       220
31.560       183
31.580       247
31.600       240
31.620       307
31.640       217
31.660       273
31.680       277
31.700       327
31.720       303
31.740       277
31.760       333
31.780       307
31.800       347
31.820       377
31.840       273
31.860       367
31.880       490
31.900       400
31.920       363
31.940       387
31.960       460
31.980       390
32.000       423
32.020       397
32.040       323
32.060       377
32.080       423
32.100       586
32.120      1096
32.140      1976
32.160      3049
32.180      3055
32.200      2329
32.220      1263
32.240       766
32.260       536
32.280       446
32.300       397
32.320       380
32.340       297
32.360       287
32.380       277
32.400       253
32.420       243
32.440       263
32.460       227
32.480       287
32.500       247
32.520       280
32.540       223
32.560       230
32.580       217
32.600       243
32.620       263
32.640       237
32.660       240
32.680       227
32.700       297
32.720       247
32.740       230
32.760       203
32.780       187
32.800       220
32.820       190
32.840       227
32.860       253
32.880       213
32.900       247
32.920       193
32.940       203
32.960       203
32.980       223
33.000       217
33.020       213
33.040       217
33.060       193
33.080       220
33.100       177
33.120       233
33.140       230
33.160       183
33.180       243
33.200       270
33.220       197
33.240       183
33.260       247
33.280       193
33.300       197
33.320       177
33.340       207
33.360       213
33.380       160
33.400       190
33.420       210
33.440       163
33.460       210
33.480       223
33.500       180
33.520       197
33.540       180
33.560       193
33.580       223
33.600       180
33.620       173
33.640       197
33.660       227
33.680       263
33.700       147
33.720       193
33.740       180
33.760       183
33.780       173
33.800       177
33.820       137
33.840       247
33.860       213
33.880       180
33.900       190
33.920       157
33.940       177
33.960       160
33.980       197
34.000       197
34.020       200
34.040       150
34.060       193
34.080       180
34.100       227
34.120       220
34.140       187
34.160       170
34.180       203
34.200       203
34.220       197
34.240       187
34.260       173
34.280       217
34.300       153
34.320       183
34.340       203
34.360       180
34.380       187
34.400       227
34.420       357
34.440       403
34.460       620
34.480       810
34.500       993
34.520      1010
34.540      1033
34.560      1046
34.580       880
34.600       950
34.620      1056
34.640      1033
34.660       996
34.680       943
34.700       923
34.720      1090
34.740       963
34.760      1096
34.780      1120
34.800      1096
34.820      1063
34.840       930
34.860       963
34.880       960
34.900       996
34.920      1110
34.940      1070
34.960       983
34.980      1060
35.000      1076
35.020      1056
35.040       996
35.060      1023
35.080      1150
35.100      1216
35.120      1096
35.140      1110
35.160      1090
35.180      1106
35.200      1216
35.220      1230
35.240      1346
35.260      1190
35.280      1379
35.300      1263
35.320      1293
35.340      1476
35.360      1706
35.380      1663
35.400      1629
35.420      1826
35.440      2176
35.460      2342
35.480      3105
35.500      4098
35.520      5678
35.540      7627
35.560     10176
35.580     12285
35.600     15654
35.620     21628
35.640     38834
35.660    106771
35.680    201273
35.700    238098
35.720    241603
35.740    188458
35.760    134929
35.780    151426
35.800    162825
35.820    144985
35.840     79875
35.860     32064
35.880     18303
35.900     12941
35.920     10509
35.940      8417
35.960      6614
35.980      4445
36.000      3202
36.020      2576
36.040      2176
36.060      2182
36.080      2122
36.100      1896
36.120      1869
36.140      1716
36.160      1646
36.180      1546
36.200      1419
36.220      1406
36.240      1396
36.260      1306
36.280      1333
36.300      1220
36.320      1213
36.340      1183
36.360      1086
36.380      1030
36.400      1096
36.420      1050
36.440      1023
36.460      1043
36.480       843
36.500       903
36.520       970
36.540       856
36.560       833
36.580       933
36.600       883
36.620       846
36.640       933
36.660       956
36.680       813
36.700       850
36.720       816
36.740       840
36.760       813
36.780       826
36.800       776
36.820       750
36.840       800
36.860       770
36.880       703
36.900       613
36.920       793
36.940       736
36.960       736
36.980       713
37.000       750
37.020       680
37.040       710
37.060       573
37.080       733
37.100       733
37.120       676
37.140       593
37.160       696
37.180       596
37.200       670
37.220       706
37.240       690
37.260       576
37.280       590
37.300       706
37.320       613
37.340       623
37.360       683
37.380       603
37.400       650
37.420       613
37.440       626
37.460       553
37.480       503
37.500       546
37.520       546
37.540       583
37.560       610
37.580       580
37.600       556
37.620       590
37.640       533
37.660       680
37.680       586
37.700       570
37.720       570
37.740       530
37.760       556
37.780       556
37.800       556
37.820       593
37.840       510
37.860       500
37.880       496
37.900       523
37.920       556
37.940       426
37.960       486
37.980       556
38.000       490
38.020       553
38.040       553
38.060       490
38.080       536
38.100       460
38.120       536
38.140       570
38.160       503
38.180       526
38.200       473
38.220       493
38.240       423
38.260       496
38.280       433
38.300       503
38.320       433
38.340       476
38.360       513
38.380       483
38.400       450
38.420       490
38.440       450
38.460       466
38.480       490
38.500       540
38.520       536
38.540       523
38.560       433
38.580       450
38.600       423
38.620       426
38.640       397
38.660       453
38.680       460
38.700       413
38.720       516
38.740       526
38.760       460
38.780       420
38.800       513
38.820       463
38.840       423
38.860       433
38.880       420
38.900       456
38.920       403
38.940       426
38.960       436
38.980       383
39.000       450
39.020       393
39.040       377
39.060       443
39.080       433
39.100       420
39.120       417
39.140       373
39.160       423
39.180       436
39.200       407
39.220       463
39.240       330
39.260       357
39.280       450
39.300       460
39.320       373
39.340       410
39.360       380
39.380       426
39.400       443
39.420       456
39.440       410
39.460       407
39.480       323
39.500       393
39.520       446
39.540       360
39.560       476
39.580       377
39.600       360
39.620       410
39.640       353
39.660       370
39.680       436
39.700       350
39.720       327
39.740       390
39.760       330
39.780       390
39.800       357
39.820       313
39.840       433
39.860       313
39.880       377
39.900       340
39.920       337
39.940       363
39.960       343
39.980       373
40.000       303
40.020       357
40.040       330
40.060       383
40.080       390
40.100       350
40.120       373
40.140       377
40.160       310
40.180       327
40.200       363
40.220       313
40.240       367
40.260       317
40.280       383
40.300       347
40.320       353
40.340       413
40.360       357
40.380       343
40.400       313
40.420       367
40.440       313
40.460       340
40.480       330
40.500       307
40.520       343
40.540       373
40.560       333
40.580       377
40.600       250
40.620       307
40.640       327
40.660       327
40.680       297
40.700       270
40.720       313
40.740       283
40.760       257
40.780       353
40.800       303
40.820       317
40.840       343
40.860       300
40.880       283
40.900       280
40.920       293
40.940       387
40.960       313
40.980       277
41.000       287
41.020       267
41.040       253
41.060       290
41.080       290
41.100       207
41.120       293
41.140       307
41.160       290
41.180       307
41.200       287
41.220       333
41.240       263
41.260       257
41.280       253
41.300       320
41.320       240
41.340       237
41.360       273
41.380       273
41.400       233
41.420       293
41.440       320
41.460       267
41.480       257
41.500       233
41.520       277
41.540       317
41.560       230
41.580       243
41.600       237
41.620       240
41.640       263
41.660       290
41.680       260
41.700       237
41.720       270
41.740       200
41.760       250
41.780       267
41.800       280
41.820       270
41.840       297
41.860       233
41.880       243
41.900       293
41.920       267
41.940       283
41.960       320
41.980       250
42.000       240
42.020       277
42.040       277
42.060       250
42.080       297
42.100       227
42.120       233
42.140       270
42.160       317
42.180       243
42.200       307
42.220       303
42.240       250
42.260       213
42.280       243
42.300       270
42.320       247
42.340       230
42.360       200
42.380       297
42.400       270
42.420       270
42.440       253
42.460       227
42.480       247
42.500       217
42.520       270
42.540       243
42.560       223
42.580       223
42.600       237
42.620       263
42.640       223
42.660       203
42.680       210
42.700       257
42.720       240
42.740       257
42.760       227
42.780       220
42.800       207
42.820       197
42.840       210
42.860       220
42.880       243
42.900       207
42.920       237
42.940       230
42.960       190
42.980       200
43.000       240
43.020       210
43.040       193
43.060       263
43.080       197
43.100       197
43.120       240
43.140       213
43.160       233
43.180       220
43.200       197
43.220       187
43.240       217
43.260       200
43.280       223
43.300       250
43.320       223
43.340       247
43.360       163
43.380       223
43.400       217
43.420       210
43.440       197
43.460       193
43.480       200
43.500       180
43.520       207
43.540       187
43.560       167
43.580       207
43.600       223
43.620       230
43.640       213
43.660       197
43.680       167
43.700       170
43.720       170
43.740       147
43.760       203
43.780       183
43.800       207
43.820       197
43.840       183
43.860       203
43.880       207
43.900       210
43.920       210
43.940       227
43.960       193
43.980       197
44.000       207
44.020       210
44.040       193
44.060       160
44.080       260
44.100       197
44.120       147
44.140       170
44.160       160
44.180       193
44.200       187
44.220       213
44.240       197
44.260       157
44.280       210
44.300       200
44.320       213
44.340       223
44.360       237
44.380       150
44.400       187
44.420       153
44.440       207
44.460       187
44.480       180
44.500       147
44.520       193
44.540       177
44.560       210
44.580       180
44.600       227
44.620       250
44.640       220
44.660       200
44.680       270
44.700       170
44.720       190
44.740       227
44.760       223
44.780       187
44.800       233
44.820       273
44.840       260
44.860       200
44.880       210
44.900       223
44.920       253
44.940       297
44.960       243
44.980       263
45.000       297
45.020       267
45.040       260
45.060       230
45.080       230
45.100       253
45.120       300
45.140       317
45.160       337
45.180       337
45.200       390
45.220       327
45.240       380
45.260       343
45.280       390
45.300       370
45.320       456
45.340       413
45.360       436
45.380       456
45.400       483
45.420       377
45.440       460
45.460       500
45.480       463
45.500       483
45.520       470
45.540       523
45.560       496
45.580       536
45.600       490
45.620       446
45.640       523
45.660       583
45.680       526
45.700       526
45.720       480
45.740       417
45.760       496
45.780       446
45.800       503
45.820       420
45.840       433
45.860       377
45.880       337
45.900       367
45.920       393
45.940       373
45.960       353
45.980       300
46.000       300
46.020       323
46.040       307
46.060       310
46.080       290
46.100       257
46.120       253
46.140       283
46.160       233
46.180       240
46.200       197
46.220       220
46.240       237
46.260       213
46.280       180
46.300       177
46.320       200
46.340       157
46.360       210
46.380       160
46.400       177
46.420       183
46.440       153
46.460       187
46.480       210
46.500       190
46.520       150
46.540       173
46.560       157
46.580       173
46.600       183
46.620       173
46.640       190
46.660       147
46.680       187
46.700       177
46.720       153
46.740       130
46.760       140
46.780       150
46.800       167
46.820       140
46.840       147
46.860       113
46.880       143
46.900       157
46.920       137
46.940       147
46.960       130
46.980       170
47.000       190
47.020       173
47.040       143
47.060       203
47.080       170
47.100       147
47.120       117
47.140       173
47.160       120
47.180       130
47.200        93
47.220       133
47.240       117
47.260       103
47.280       147
47.300       143
47.320       130
47.340       103
47.360       150
47.380       133
47.400       123
47.420       117
47.440       103
47.460        77
47.480       140
47.500       103
47.520       127
47.540       100
47.560       127
47.580       120
47.600       117
47.620       150
47.640        93
47.660       120
47.680        97
47.700       160
47.720        90
47.740       117
47.760       123
47.780       103
47.800       130
47.820        90
47.840       120
47.860       123
47.880       127
47.900       127
47.920       107
47.940       147
47.960       100
47.980        97
48.000        90
48.020       133
48.040       127
48.060       113
48.080       120
48.100       137
48.120       103
48.140       113
48.160       120
48.180       127
48.200       180
48.220       133
48.240        87
48.260       113
48.280       110
48.300       143
48.320       123
48.340       100
48.360       113
48.380       113
48.400       140
48.420       130
48.440        93
48.460        80
48.480       117
48.500       143
48.520        90
48.540        80
48.560        53
48.580       123
48.600       100
48.620        70
48.640        90
48.660        80
48.680        70
48.700       117
48.720        87
48.740        87
48.760       140
48.780        73
48.800        90
48.820        93
48.840       123
48.860       110
48.880        90
48.900       100
48.920        97
48.940       130
48.960        90
48.980       107
49.000       107
49.020       103
49.040        83
49.060       127
49.080       127
49.100       110
49.120        97
49.140        97
49.160        83
49.180       127
49.200       107
49.220        97
49.240        90
49.260        83
49.280        97
49.300       107
49.320        93
49.340        97
49.360        77
49.380       127
49.400       103
49.420        93
49.440       103
49.460        90
49.480        90
49.500       107
49.520       113
49.540       100
49.560        93
49.580       100
49.600        77
49.620       107
49.640        70
49.660        80
49.680        80
49.700        80
49.720        80
49.740       107
49.760       110
49.780        63
49.800        63
49.820       113
49.840        97
49.860        93
49.880        87
49.900        77
49.920        90
49.940       100
49.960        53
49.980        93
50.000       103
50.020        80
50.040       107
50.060       130
50.080        70
50.100        80
50.120       113
50.140        73
50.160       107
50.180        50
50.200        90
50.220        87
50.240        70
50.260        77
50.280       103
50.300       120
50.320        90
50.340       120
50.360        77
50.380       113
50.400        60
50.420        47
50.440        93
50.460        93
50.480       103
50.500       107
50.520        77
50.540        87
50.560       100
50.580        73
50.600       113
50.620        67
50.640        73
50.660        93
50.680        87
50.700        50
50.720       103
50.740        77
50.760        63
50.780        63
50.800        77
50.820       113
50.840       117
50.860        70
50.880        67
50.900        83
50.920        77
50.940        97
50.960       103
50.980        83
51.000        87
51.020        53
51.040        87
51.060        67
51.080        87
51.100        60
51.120        43
51.140        77
51.160        80
51.180        87
51.200        50
51.220        90
51.240        80
51.260        77
51.280        70
51.300        90
51.320        90
51.340        70
51.360        80
51.380        53
51.400        83
51.420       103
51.440        93
51.460        97
51.480        67
51.500        57
51.520        90
51.540        63
51.560        77
51.580       100
51.600        80
51.620        83
51.640        57
51.660        90
51.680        67
51.700        83
51.720        90
51.740        97
51.760        57
51.780        63
51.800        77
51.820        83
51.840        73
51.860        70
51.880        87
51.900        90
51.920        77
51.940        70
51.960        93
51.980        77
52.000        50
52.020        77
52.040        83
52.060        67
52.080        87
52.100        73
52.120        80
52.140        70
52.160        60
52.180        50
52.200        57
52.220        70
52.240        80
52.260        87
52.280       110
52.300        47
52.320        93
52.340        57
52.360        53
52.380        77
52.400        70
52.420        90
52.440        73
52.460        63
52.480       113
52.500        80
52.520        73
52.540        70
52.560        70
52.580        97
52.600        47
52.620        73
52.640        77
52.660       103
52.680        97
52.700        67
52.720        67
52.740        70
52.760        70
52.780        70
52.800        53
52.820        73
52.840        63
52.860        83
52.880        77
52.900        63
52.920        80
52.940        43
52.960        63
52.980        83
53.000       107
53.020        90
53.040        57
53.060        70
53.080       103
53.100        70
53.120        77
53.140        47
53.160        70
53.180        90
53.200        60
53.220        77
53.240        70
53.260        57
53.280        67
53.300        83
53.320        70
53.340        70
53.360        77
53.380        70
53.400        73
53.420        73
53.440        67
53.460        90
53.480        60
53.500        87
53.520        73
53.540        97
53.560        70
53.580        83
53.600        73
53.620        60
53.640        93
53.660        43
53.680        80
53.700        60
53.720        93
53.740        77
53.760        73
53.780        80
53.800        57
53.820        53
53.840        83
53.860        83
53.880        57
53.900        47
53.920        93
53.940        60
53.960        77
53.980        70
54.000        37
54.020        67
54.040        80
54.060        60
54.080        47
54.100        63
54.120        63
54.140        77
54.160        60
54.180        63
54.200        47
54.220        43
54.240        87
54.260        80
54.280        47
54.300        60
54.320        50
54.340        67
54.360        63
54.380        77
54.400        67
54.420        57
54.440        63
54.460        77
54.480        67
54.500        43
54.520        70
54.540        73
54.560        63
54.580        70
54.600       103
54.620        50
54.640        73
54.660        43
54.680        70
54.700        73
54.720        90
54.740        77
54.760        80
54.780        60
54.800        63
54.820        70
54.840       103
54.860        83
54.880        83
54.900        43
54.920        73
54.940        77
54.960        90
54.980        53
55.000        50
55.020        60
55.040       100
55.060        63
55.080        43
55.100        50
55.120        47
55.140        60
55.160        50
55.180        67
55.200        57
55.220        73
55.240        43
55.260        37
55.280        53
55.300        77
55.320        47
55.340        60
55.360        70
55.380        97
55.400        87
55.420        47
55.440        83
55.460        60
55.480        43
55.500        60
55.520        63
55.540        80
55.560        67
55.580        80
55.600        77
55.620        50
55.640        53
55.660        50
55.680        63
55.700        80
55.720        60
55.740        53
55.760        77
55.780        33
55.800        43
55.820        47
55.840        83
55.860        67
55.880        60
55.900        57
55.920        63
55.940        77
55.960        40
55.980        57
56.000        63
56.020        60
56.040        67
56.060        87
56.080        63
56.100        40
56.120        80
56.140        60
56.160        60
56.180        57
56.200        67
56.220        40
56.240        60
56.260        73
56.280        67
56.300        67
56.320        53
56.340        63
56.360        77
56.380        67
56.400        87
56.420        63
56.440        60
56.460        40
56.480        47
56.500        47
56.520        57
56.540        67
56.560        67
56.580        60
56.600        53
56.620       100
56.640        53
56.660        87
56.680        67
56.700        83
56.720        77
56.740        77
56.760        63
56.780        77
56.800        53
56.820        60
56.840        47
56.860        73
56.880        60
56.900        67
56.920        80
56.940        83
56.960        67
56.980        70
57.000        43
57.020        43
57.040        63
57.060        60
57.080        70
57.100        80
57.120        67
57.140        73
57.160        63
57.180        67
57.200        73
57.220        60
57.240        57
57.260        67
57.280        33
57.300        60
57.320        43
57.340        63
57.360        47
57.380        57
57.400        53
57.420        53
57.440        47
57.460       103
57.480        77
57.500        47
57.520        67
57.540        57
57.560        40
57.580        53
57.600        80
57.620        70
57.640        43
57.660        30
57.680        80
57.700        63
57.720        77
57.740        57
57.760        53
57.780        60
57.800        60
57.820        57
57.840        53
57.860        47
57.880        93
57.900        60
57.920        57
57.940        53
57.960        70
57.980        33
58.000       100
58.020        60
58.040        67
58.060        43
58.080        40
58.100        63
58.120        57
58.140        73
58.160        73
58.180        63
58.200        57
58.220        57
58.240        43
58.260        77
58.280        63
58.300        33
58.320        60
58.340        37
58.360        37
58.380        63
58.400        47
58.420        27
58.440        63
58.460        50
58.480        53
58.500        57
58.520        60
58.540        50
58.560        60
58.580        23
58.600        70
58.620        50
58.640        57
58.660        43
58.680        50
58.700        50
58.720        53
58.740        47
58.760        43
58.780        63
58.800        47
58.820        53
58.840        67
58.860        63
58.880        43
58.900        60
58.920        73
58.940        50
58.960        37
58.980        40
59.000        37
59.020        57
59.040        87
59.060        63
59.080        57
59.100        43
59.120        40
59.140        60
59.160        67
59.180        73
59.200        43
59.220        83
59.240        73
59.260        47
59.280        80
59.300        57
59.320        50
59.340        53
59.360        60
59.380        47
59.400        60
59.420        47
59.440        43
59.460        53
59.480        40
59.500        70
59.520        53
59.540        47
59.560        70
59.580        80
59.600        70
59.620        53
59.640        53
59.660        43
59.680        57
59.700        47
59.720        63
59.740        50
59.760        47
59.780        70
59.800        53
59.820        27
59.840        37
59.860        57
59.880        50
59.900        73
59.920        37
59.940        50
59.960        47
59.980        60
60.000        87
