20.000        30
20.020        43
20.040        53
20.060        47
20.080        30
20.100        50
20.120        40
20.140        50
20.160        57
20.180        50
20.200        50
20.220        53
20.240        23
20.260        37
20.280        73
20.300        47
20.320        53
20.340        40
20.360        37
20.380        37
20.400        43
20.420        50
20.440        37
20.460        37
20.480        20
20.500        53
20.520        50
20.540        23
20.560        43
20.580        30
20.600        33
20.620        23
20.640        47
20.660        37
20.680        33
20.700        30
20.720        33
20.740        30
20.760        33
20.780        30
20.800        40
20.820        53
20.840        47
20.860        33
20.880        60
20.900        40
20.920        30
20.940        40
20.960        30
20.980        40
21.000        50
21.020        30
21.040        43
21.060        30
21.080        50
21.100        43
21.120        27
21.140        43
21.160        47
21.180        33
21.200        27
21.220        47
21.240        27
21.260        43
21.280        53
21.300        30
21.320        23
21.340        40
21.360        87
21.380        27
21.400        33
21.420        53
21.440        37
21.460        47
21.480        57
21.500        30
21.520        33
21.540        20
21.560        23
21.580        47
21.600        33
21.620        30
21.640        37
21.660        47
21.680        27
21.700        40
21.720        47
21.740        63
21.760        37
21.780        70
21.800        57
21.820        47
21.840        43
21.860        53
21.880        57
21.900        40
21.920        53
21.940        63
21.960        33
21.980        37
22.000        83
22.020        37
22.040        83
22.060        50
22.080        63
22.100        43
22.120        77
22.140        70
22.160        70
22.180        47
22.200        60
22.220        53
22.240        73
22.260        47
22.280        50
22.300        63
22.320        40
22.340        53
22.360        43
22.380        47
22.400        40
22.420        90
22.440        40
22.460        40
22.480        47
22.500        33
22.520        47
22.540        47
22.560        27
22.580        43
22.600        80
22.620        53
22.640        40
22.660        40
22.680        23
22.700        40
22.720        43
22.740        40
22.760        23
22.780        37
22.800        30
22.820        43
22.840        37
22.860        47
22.880        57
22.900        33
22.920        40
22.940        53
22.960        33
22.980        30
23.000        40
23.020        23
23.040        33
23.060        37
23.080        30
23.100        47
23.120        40
23.140        33
23.160        20
23.180        53
23.200        53
23.220        30
23.240        33
23.260        27
23.280        33
23.300        47
23.320        30
23.340        20
23.360        20
23.380        47
23.400        17
23.420        30
23.440        23
23.460        37
23.480        30
23.500        43
23.520        30
23.540        30
23.560        40
23.580        33
23.600        50
23.620        30
23.640        33
23.660        50
23.680        17
23.700        43
23.720        27
23.740        40
23.760        50
23.780        27
23.800        43
23.820        33
23.840        23
23.860        33
23.880        33
23.900        37
23.920        27
23.940        53
23.960        30
23.980        33
24.000        33
24.020        30
24.040        30
24.060        27
24.080        53
24.100        33
24.120        17
24.140        23
24.160        17
24.180        20
24.200        43
24.220        27
24.240        27
24.260        30
24.280        37
24.300        30
24.320        33
24.340        27
24.360        23
24.380        40
24.400        17
24.420        27
24.440        47
24.460        33
24.480        40
24.500        23
24.520        37
24.540        27
24.560        37
24.580        47
24.600        33
24.620        20
24.640        17
24.660        20
24.680        27
24.700        57
24.720        27
24.740        17
24.760        37
24.780        23
24.800        23
24.820        23
24.840        30
24.860        40
24.880        27
24.900        17
24.920        40
24.940        33
24.960        23
24.980        17
25.000        23
25.020        13
25.040        13
25.060        33
25.080        13
25.100        27
25.120        23
25.140        37
25.160        27
25.180        23
25.200        33
25.220        50
25.240        23
25.260        13
25.280        13
25.300        10
25.320        50
25.340        23
25.360        27
25.380        30
25.400        30
25.420        33
25.440        37
25.460        27
25.480        37
25.500        30
25.520        40
25.540        47
25.560        47
25.580        57
25.600        77
25.620        43
25.640        57
25.660        53
25.680        50
25.700        43
25.720        60
25.740        37
25.760        27
25.780        30
25.800        47
25.820        63
25.840        30
25.860        17
25.880        47
25.900        17
25.920        37
25.940        33
25.960        23
25.980        17
26.000        33
26.020        37
26.040        40
26.060        10
26.080        13
26.100        17
26.120        23
26.140        37
26.160        37
26.180        23
26.200        47
26.220        13
26.240        33
26.260        33
26.280        40
26.300        30
26.320        30
26.340        20
26.360        37
26.380        27
26.400         7
26.420        23
26.440        27
26.460        37
26.480        20
26.500        13
26.520        33
26.540        23
26.560        27
26.580        27
26.600        40
26.620        13
26.640        27
26.660        20
26.680        43
26.700        17
26.720        30
26.740        37
26.760        17
26.780        40
26.800        23
26.820        30
26.840        10
26.860        20
26.880        23
26.900        30
26.920        27
26.940        40
26.960         7
26.980        33
27.000        43
27.020        33
27.040        30
27.060        33
27.080        20
27.100        20
27.120        27
27.140        23
27.160        27
27.180        20
27.200        30
27.220         7
27.240        20
27.260        40
27.280        10
27.300        37
27.320         7
27.340        27
27.360        20
27.380        23
27.400        27
27.420        30
27.440        10
27.460        27
27.480        20
27.500        23
27.520        23
27.540        23
27.560        13
27.580        33
27.600        27
27.620        27
27.640        10
27.660        13
27.680        40
27.700        17
27.720        17
27.740        10
27.760        43
27.780        17
27.800        13
27.820         7
27.840        23
27.860        43
27.880        23
27.900        17
27.920        13
27.940        23
27.960        23
27.980        13
28.000        23
28.020         7
28.040        10
28.060        20
28.080        23
28.100        27
28.120        33
28.140        13
28.160        27
28.180        37
28.200        30
28.220        13
28.240        27
28.260        40
28.280        37
28.300        27
28.320        23
28.340        30
28.360        23
28.380        10
28.400        17
28.420        30
28.440        17
28.460        10
28.480        17
28.500        37
28.520        10
28.540        30
28.560        13
28.580        10
28.600        20
28.620         7
28.640        27
28.660        37
28.680        30
28.700        37
28.720        37
28.740        13
28.760         7
28.780        13
28.800        20
28.820        27
28.840        20
28.860        17
28.880        30
28.900        30
28.920        20
28.940         7
28.960        30
28.980        33
29.000        40
29.020         7
29.040        37
29.060        17
29.080        20
29.100        30
29.120        33
29.140        30
29.160        23
29.180        33
29.200        33
29.220        33
29.240        33
29.260        23
29.280        27
29.300        20
29.320        30
29.340        17
29.360        33
29.380        23
29.400        30
29.420        17
29.440        17
29.460        27
29.480        23
29.500         7
29.520        23
29.540        23
29.560        23
29.580        27
29.600        30
29.620        30
29.640        13
29.660        30
29.680        17
29.700        20
29.720        17
29.740        27
29.760        20
29.780        17
29.800        17
29.820        20
29.840        23
29.860        27
29.880        17
29.900        30
29.920        30
29.940        17
29.960        30
29.980        20
30.000        10
30.020        30
30.040         3
30.060        23
30.080        33
30.100        27
30.120        33
30.140        17
30.160        40
30.180         7
30.200        10
30.220        30
30.240        37
30.260        17
30.280        33
30.300        13
30.320        27
30.340        30
30.360         7
30.380        27
30.400        27
30.420        37
30.440        23
30.460         3
30.480        27
30.500        17
30.520        17
30.540        17
30.560        17
30.580        23
30.600        13
30.620        23
30.640        20
30.660        30
30.680        37
30.700         7
30.720        17
30.740        20
30.760        17
30.780        27
30.800        10
30.820        10
30.840        30
30.860        20
30.880        13
30.900        17
30.920        17
30.940        17
30.960        50
30.980        33
31.000        30
31.020        33
31.040        33
31.060        30
31.080        23
31.100        20
31.120        20
31.140        47
31.160        43
31.180        23
31.200        27
31.220        43
31.240        47
31.260        43
31.280        37
31.300        27
31.320        40
31.340        40
31.360        37
31.380        83
31.400        40
31.420        47
31.440        60
31.460        50
31.480        43
31.500        60
31.520        60
31.540        47
31.560        57
31.580        47
31.600        43
31.620        57
31.640        73
31.660        60
31.680        67
31.700        80
31.720        43
31.740        47
31.760        57
31.780        63
31.800        57
31.820        67
31.840        60
31.860        47
31.880        47
31.900        47
31.920        43
31.940        43
31.960        50
31.980        30
32.000        40
32.020        33
32.040        47
32.060        33
32.080        33
32.100        30
32.120        27
32.140        33
32.160        40
32.180        50
32.200        23
32.220        23
32.240        47
32.260        37
32.280        43
32.300        53
32.320        33
32.340        43
32.360        47
32.380        17
32.400        23
32.420        27
32.440        17
32.460        23
32.480        10
32.500        13
32.520        33
32.540        17
32.560        17
32.580        13
32.600        27
32.620        23
32.640        17
32.660        17
32.680        33
32.700        17
32.720        17
32.740        13
32.760        10
32.780        23
32.800        23
32.820        23
32.840        23
32.860        17
32.880        10
32.900        33
32.920        13
32.940        40
32.960        13
32.980        13
33.000        20
33.020        20
33.040        20
33.060        23
33.080        20
33.100         7
33.120        20
33.140        30
33.160        17
33.180        10
33.200         3
33.220         7
33.240        10
33.260        27
33.280        20
33.300        30
33.320        30
33.340        20
33.360        23
33.380        27
33.400        17
33.420        30
33.440        27
33.460        10
33.480        10
33.500        17
33.520        13
33.540         7
33.560        23
33.580        17
33.600        20
33.620        23
33.640        23
33.660        30
33.680        40
33.700        17
33.720        13
33.740        13
33.760        27
33.780        13
33.800        13
33.820        13
33.840        23
33.860        20
33.880        23
33.900        17
33.920        20
33.940        17
33.960        17
33.980        27
34.000        20
34.020        23
34.040        23
34.060        17
34.080        30
34.100        27
34.120        23
34.140        10
34.160        10
34.180        20
34.200        27
34.220        17
34.240        23
34.260        23
34.280        13
34.300        17
34.320         7
34.340        13
34.360        20
34.380        23
34.400        13
34.420        43
34.440         3
34.460        17
34.480        17
34.500        10
34.520        10
34.540        13
34.560        10
34.580        20
34.600        13
34.620        23
34.640        17
34.660        20
34.680        17
34.700        23
34.720         7
34.740         7
34.760        10
34.780         7
34.800        10
34.820        13
34.840        27
34.860        10
34.880        20
34.900        20
34.920        23
34.940        20
34.960        30
34.980        30
35.000        10
35.020        20
35.040        10
35.060        20
35.080        10
35.100        17
35.120        23
35.140        17
35.160        17
35.180        20
35.200        20
35.220        20
35.240        30
35.260        10
35.280        17
35.300        20
35.320        10
35.340        27
35.360        10
35.380        10
35.400        13
35.420        30
35.440        27
35.460        13
35.480        20
35.500         3
35.520        17
35.540        33
35.560        27
35.580        17
35.600        10
35.620        20
35.640        30
35.660        20
35.680        20
35.700        17
35.720        13
35.740        10
35.760        13
35.780        20
35.800         7
35.820        17
35.840        17
35.860        23
35.880        30
35.900         7
35.920        17
35.940         7
35.960        20
35.980        17
36.000        17
36.020        20
36.040        10
36.060        20
36.080        27
36.100        27
36.120        20
36.140        20
36.160        20
36.180        20
36.200        20
36.220        23
36.240        13
36.260        13
36.280        20
36.300        20
36.320        20
36.340        17
36.360        10
36.380        23
36.400        13
36.420        13
36.440        20
36.460        17
36.480        10
36.500        13
36.520        17
36.540        10
36.560        27
36.580        13
36.600        13
36.620        23
36.640        20
36.660         7
36.680        20
36.700        10
36.720         7
36.740        13
36.760        20
36.780        30
36.800        17
36.820        27
36.840        23
36.860        17
36.880         7
36.900        13
36.920         3
36.940        20
36.960        17
36.980         7
37.000        27
37.020        13
37.040        20
37.060        17
37.080        37
37.100        10
37.120        17
37.140        17
37.160         7
37.180        13
37.200         0
37.220        20
37.240        13
37.260        13
37.280        20
37.300        13
37.320        13
37.340         3
37.360        20
37.380        10
37.400        13
37.420        20
37.440        17
37.460        27
37.480        30
37.500        17
37.520        17
37.540        13
37.560        20
37.580        10
37.600        23
37.620        23
37.640        23
37.660        17
37.680        10
37.700        13
37.720        17
37.740        23
37.760        10
37.780        13
37.800         7
37.820        20
37.840        20
37.860        10
37.880        13
37.900        17
37.920        20
37.940        13
37.960        17
37.980         7
38.000        27
38.020        17
38.040        27
38.060        17
38.080        27
38.100        13
38.120        27
38.140        10
38.160        17
38.180        10
38.200        37
38.220        10
38.240        13
38.260        17
38.280        20
38.300        20
38.320        27
38.340        23
38.360        23
38.380        30
38.400        13
38.420        13
38.440         7
38.460        20
38.480        17
38.500        20
38.520        23
38.540        23
38.560         7
38.580        10
38.600        17
38.620        20
38.640        37
38.660        20
38.680        27
38.700        17
38.720        27
38.740        17
38.760        20
38.780        23
38.800        13
38.820        33
38.840        17
38.860        33
38.880        43
38.900        33
38.920        27
38.940        27
38.960        27
38.980        43
39.000        43
39.020        40
39.040        53
39.060        57
39.080        43
39.100        53
39.120        60
39.140        33
39.160        40
39.180        43
39.200        70
39.220        40
39.240        37
39.260        40
39.280        47
39.300        37
39.320        27
39.340        33
39.360        20
39.380        33
39.400        20
39.420        27
39.440        23
39.460        30
39.480        23
39.500        17
39.520        27
39.540         7
39.560        20
39.580        13
39.600        37
39.620        30
39.640        20
39.660        20
39.680        17
39.700        10
39.720        23
39.740        20
39.760        17
39.780        10
39.800        30
39.820        20
39.840        10
39.860        20
39.880        30
39.900        27
39.920        30
39.940        17
39.960        10
39.980        13
40.000        23
40.020        20
40.040        10
40.060        17
40.080        20
40.100         3
40.120        10
40.140        20
40.160        33
40.180        17
40.200        20
40.220        13
40.240        17
40.260        13
40.280        27
40.300        17
40.320        17
40.340        23
40.360        13
40.380        10
40.400        13
40.420        13
40.440        23
40.460        30
40.480        20
40.500        13
40.520        10
40.540        23
40.560         7
40.580        23
40.600        10
40.620        33
40.640        10
40.660        17
40.680        23
40.700        17
40.720        20
40.740        10
40.760        13
40.780        20
40.800        13
40.820        17
40.840        13
40.860        13
40.880        40
40.900        30
40.920         7
40.940        20
40.960        10
40.980        20
41.000        23
41.020        20
41.040        20
41.060        23
41.080        17
41.100        17
41.120        10
41.140         3
41.160        37
41.180        17
41.200        20
41.220         7
41.240        10
41.260        30
41.280        17
41.300        17
41.320        23
41.340        17
41.360        17
41.380        33
41.400        20
41.420        10
41.440        23
41.460        30
41.480        20
41.500        13
41.520        23
41.540        23
41.560        13
41.580        17
41.600        20
41.620        20
41.640        20
41.660        23
41.680        20
41.700        17
41.720        23
41.740        10
41.760        13
41.780        30
41.800        17
41.820        20
41.840         3
41.860        23
41.880        23
41.900        33
41.920        13
41.940        23
41.960        20
41.980        40
42.000         7
42.020        13
42.040        13
42.060        10
42.080        33
42.100        20
42.120        17
42.140         7
42.160        27
42.180        20
42.200        10
42.220         7
42.240        20
42.260        27
42.280        20
42.300        23
42.320         3
42.340        20
42.360        20
42.380        23
42.400        20
42.420        17
42.440        20
42.460        17
42.480        23
42.500        13
42.520        10
42.540        27
42.560        17
42.580        23
42.600        20
42.620        17
42.640        30
42.660        20
42.680        23
42.700        30
42.720        23
42.740        23
42.760        30
42.780        30
42.800        17
42.820         7
42.840        13
42.860        17
42.880        17
42.900        23
42.920        20
42.940        13
42.960        13
42.980        27
43.000        20
43.020        17
43.040        20
43.060        17
43.080         0
43.100        13
43.120        33
43.140        23
43.160        23
43.180        17
43.200        20
43.220        20
43.240        13
43.260        10
43.280        23
43.300        30
43.320        27
43.340        10
43.360        23
43.380        40
43.400        27
43.420        20
43.440        20
43.460        17
43.480        30
43.500        20
43.520        17
43.540        17
43.560        23
43.580         7
43.600        27
43.620        17
43.640        30
43.660        10
43.680        33
43.700        13
43.720        30
43.740        23
43.760         7
43.780        23
43.800        27
43.820        37
43.840        33
43.860        13
43.880        23
43.900        27
43.920        23
43.940        23
43.960        30
43.980        33
44.000        30
44.020        23
44.040        30
44.060        23
44.080        33
44.100        27
44.120        40
44.140        50
44.160        17
44.180        27
44.200        13
44.220        40
44.240        33
44.260        27
44.280        37
44.300        10
44.320        27
44.340        20
44.360        30
44.380        23
44.400        43
44.420        47
44.440        23
44.460        30
44.480        40
44.500        40
44.520        47
44.540        47
44.560        40
44.580        47
44.600        50
44.620        47
44.640        73
44.660        50
44.680        67
44.700        53
44.720        53
44.740        47
44.760        53
44.780        73
44.800        40
44.820        47
44.840        73
44.860        77
44.880        87
44.900       100
44.920        40
44.940        83
44.960        80
44.980        73
45.000        97
45.020       113
45.040       113
45.060       120
45.080        90
45.100        67
45.120        93
45.140        87
45.160        70
45.180       123
45.200       103
45.220       117
45.240       127
45.260        87
45.280        67
45.300        97
45.320        97
45.340       110
45.360       120
45.380        90
45.400       110
45.420        80
45.440        87
45.460        97
45.480        87
45.500        70
45.520        93
45.540        63
45.560        67
45.580        80
45.600        63
45.620       113
45.640        90
45.660        60
45.680        47
45.700        67
45.720        60
45.740        43
45.760        77
45.780        53
45.800        40
45.820        73
45.840       103
45.860        37
45.880        40
45.900        67
45.920        57
45.940        50
45.960        47
45.980        37
46.000        43
46.020        60
46.040        40
46.060        23
46.080        47
46.100        40
46.120        33
46.140        57
46.160        17
46.180        43
46.200        43
46.220        67
46.240        20
46.260        37
46.280        27
46.300        37
46.320        17
46.340        27
46.360        17
46.380        27
46.400        20
46.420        37
46.440        53
46.460        30
46.480        30
46.500        37
46.520        20
46.540        40
46.560        27
46.580        30
46.600        27
46.620        23
46.640        47
46.660        23
46.680        33
46.700        30
46.720        17
46.740        17
46.760        33
46.780        20
46.800        23
46.820         3
46.840        20
46.860        40
46.880        50
46.900        33
46.920        27
46.940        30
46.960        27
46.980        10
47.000        30
47.020        13
47.040        30
47.060        30
47.080        20
47.100        27
47.120        20
47.140        50
47.160         7
47.180        30
47.200        13
47.220         7
47.240        30
47.260        27
47.280        30
47.300        20
47.320        17
47.340         7
47.360        37
47.380         7
47.400        13
47.420        30
47.440        13
47.460        20
47.480        33
47.500        13
47.520        10
47.540        33
47.560         7
47.580        27
47.600        37
47.620        27
47.640        23
47.660        17
47.680        20
47.700        13
47.720        17
47.740        20
47.760        10
47.780        20
47.800        27
47.820        10
47.840        23
47.860        27
47.880        10
47.900        33
47.920        23
47.940        17
47.960        20
47.980        17
48.000        20
48.020        37
48.040        17
48.060        23
48.080         7
48.100        13
48.120        27
48.140        23
48.160        13
48.180        40
48.200        37
48.220        17
48.240        37
48.260        33
48.280        27
48.300        17
48.320        33
48.340         7
48.360        40
48.380        23
48.400        13
48.420        27
48.440        20
48.460        17
48.480        20
48.500        13
48.520        33
48.540        10
48.560        20
48.580        27
48.600        20
48.620        10
48.640        20
48.660        27
48.680        30
48.700        23
48.720        23
48.740        30
48.760        27
48.780        20
48.800        10
48.820        10
48.840        17
48.860        20
48.880        27
48.900        20
48.920        37
48.940        17
48.960        27
48.980        27
49.000        13
49.020        37
49.040         7
49.060        17
49.080        20
49.100        23
49.120         7
49.140        17
49.160        10
49.180        20
49.200         7
49.220        20
49.240        13
49.260        23
49.280        17
49.300        20
49.320        43
49.340        10
49.360        17
49.380        10
49.400         3
49.420        10
49.440        20
49.460        20
49.480        20
49.500        20
49.520        27
49.540        20
49.560        23
49.580        20
49.600        10
49.620        10
49.640        13
49.660        17
49.680        10
49.700        27
49.720        27
49.740        17
49.760        20
49.780        17
49.800        10
49.820        13
49.840        20
49.860        23
49.880        27
49.900         7
49.920        33
49.940        13
49.960        27
49.980         7
50.000        27
50.020        23
50.040        20
50.060        27
50.080        20
50.100        30
50.120        23
50.140        27
50.160        17
50.180        23
50.200        30
50.220        17
50.240        23
50.260        10
50.280        40
50.300        20
50.320        20
50.340        13
50.360        10
50.380        30
50.400        27
50.420        33
50.440        23
50.460        13
50.480        13
50.500         7
50.520        10
50.540        20
50.560         7
50.580        23
50.600        17
50.620        33
50.640        20
50.660        10
50.680        30
50.700        33
50.720        30
50.740        30
50.760        17
50.780        33
50.800        23
50.820        20
50.840        13
50.860        27
50.880        23
50.900        20
50.920        30
50.940        30
50.960        23
50.980        30
51.000        27
51.020        13
51.040        30
51.060        17
51.080        17
51.100        30
51.120        20
51.140        23
51.160        30
51.180        27
51.200        33
51.220        20
51.240        17
51.260        47
51.280        20
51.300        23
51.320        37
51.340        43
51.360        20
51.380        27
51.400        43
51.420        17
51.440        33
51.460        23
51.480        33
51.500        33
51.520        37
51.540        30
51.560        30
51.580        47
51.600        37
51.620        37
51.640        23
51.660        17
51.680        20
51.700        20
51.720        37
51.740        30
51.760        30
51.780        40
51.800        20
51.820        30
51.840        30
51.860        43
51.880        37
51.900        33
51.920        27
51.940        27
51.960        30
51.980        23
52.000        20
52.020        40
52.040        37
52.060        53
52.080        57
52.100        30
52.120        27
52.140        50
52.160        43
52.180        33
52.200        40
52.220        20
52.240        23
52.260        53
52.280        40
52.300        30
52.320        33
52.340        47
52.360        67
52.380        90
52.400        30
52.420        67
52.440       100
52.460        53
52.480        47
52.500        90
52.520        93
52.540        97
52.560        90
52.580       110
52.600       103
52.620       100
52.640        57
52.660       127
52.680        73
52.700        50
52.720        77
52.740        60
52.760        60
52.780        87
52.800        37
52.820        20
52.840        50
52.860        47
52.880        17
52.900        43
52.920        50
52.940        50
52.960        57
52.980        70
53.000        40
53.020        33
53.040        43
53.060        23
53.080        27
53.100        27
53.120        57
53.140        30
53.160        33
53.180        23
53.200        20
53.220        30
53.240        30
53.260        27
53.280        30
53.300        33
53.320        43
53.340        27
53.360        33
53.380        40
53.400        27
53.420        40
53.440        27
53.460        27
53.480        20
53.500        20
53.520        33
53.540        23
53.560        27
53.580        27
53.600        37
53.620        13
53.640        23
53.660        20
53.680         7
53.700        40
53.720        30
53.740        20
53.760        10
53.780        17
53.800        20
53.820        23
53.840        27
53.860        20
53.880        43
53.900        17
53.920        17
53.940        23
53.960        33
53.980        13
54.000        33
54.020        30
54.040        40
54.060        27
54.080        20
54.100        23
54.120        13
54.140        23
54.160        13
54.180        23
54.200        10
54.220         3
54.240        33
54.260        33
54.280        27
54.300        17
54.320        10
54.340        13
54.360         7
54.380        10
54.400        30
54.420        13
54.440        13
54.460        20
54.480         3
54.500         3
54.520        20
54.540        10
54.560        13
54.580        23
54.600        17
54.620         7
54.640        17
54.660        23
54.680        20
54.700        23
54.720        17
54.740        17
54.760        33
54.780        13
54.800        13
54.820        27
54.840        23
54.860        27
54.880        30
54.900        13
54.920        17
54.940         7
54.960        20
54.980        27
55.000        27
55.020        17
55.040         3
55.060        23
55.080        33
55.100        20
55.120        20
55.140        17
55.160        17
55.180        23
55.200         3
55.220        33
55.240        10
55.260        20
55.280        20
55.300        17
55.320        17
55.340         7
55.360        30
55.380         0
55.400        23
55.420        27
55.440        30
55.460        20
55.480        23
55.500        10
55.520        17
55.540        13
55.560        10
55.580        23
55.600        17
55.620        17
55.640        13
55.660        23
55.680        13
55.700        10
55.720        17
55.740         7
55.760        23
55.780        30
55.800        17
55.820        17
55.840        13
55.860        30
55.880        17
55.900        27
55.920        13
55.940        37
55.960        13
55.980        30
56.000        13
56.020        30
56.040        10
56.060        40
56.080        30
56.100        27
56.120        20
56.140        10
56.160        13
56.180        13
56.200        37
56.220        17
56.240        27
56.260        27
56.280        50
56.300        37
56.320        20
56.340        13
56.360        23
56.380        30
56.400        33
56.420        27
56.440        20
56.460        23
56.480        13
56.500        23
56.520        27
56.540        17
56.560        17
56.580        23
56.600        37
56.620        30
56.640        13
56.660        10
56.680        10
56.700        17
56.720        10
56.740        27
56.760        17
56.780        23
56.800        23
56.820        17
56.840        30
56.860        27
56.880        30
56.900         3
56.920        27
56.940        20
56.960        30
56.980        10
57.000        17
57.020        17
57.040        30
57.060        40
57.080        13
57.100        20
57.120        20
57.140        20
57.160        40
57.180        23
57.200        20
57.220        13
57.240        30
57.260        17
57.280        17
57.300         7
57.320        17
57.340         7
57.360        17
57.380         7
57.400        20
57.420        27
57.440        10
57.460         7
57.480        17
57.500        20
57.520        13
57.540         3
57.560         3
57.580         7
57.600        23
57.620         3
57.640        27
57.660        13
57.680        17
57.700        17
57.720        27
57.740        20
57.760        30
57.780         7
57.800        10
57.820        20
57.840         0
57.860        13
57.880        10
57.900        17
57.920        27
57.940         7
57.960        13
57.980        17
58.000        20
58.020        17
58.040        17
58.060        13
58.080        13
58.100        23
58.120        17
58.140        17
58.160        13
58.180        10
58.200        17
58.220         7
58.240        13
58.260         3
58.280        13
58.300        33
58.320         7
58.340        17
58.360         7
58.380        13
58.400        17
58.420        13
58.440         3
58.460        20
58.480        17
58.500        27
58.520         7
58.540        10
58.560        10
58.580         7
58.600        27
58.620        17
58.640        17
58.660        10
58.680         7
58.700        13
58.720         7
58.740        27
58.760        20
58.780        33
58.800        17
58.820        10
58.840        23
58.860         3
58.880        10
58.900        10
58.920        10
58.940        30
58.960        30
58.980         7
59.000         3
59.020        17
59.040        20
59.060        13
59.080        17
59.100        13
59.120        10
59.140         7
59.160        10
59.180        27
59.200        10
59.220        20
59.240         7
59.260        20
59.280        13
59.300        20
59.320        13
59.340         3
59.360        23
59.380        27
59.400        10
59.420         3
59.440         3
59.460        23
59.480         7
59.500        17
59.520         7
59.540        27
59.560        20
59.580        30
59.600        13
59.620        17
59.640        17
59.660        10
59.680        20
59.700        20
59.720        27
59.740        13
59.760         7
59.780         0
59.800         7
59.820        10
59.840        13
59.860        23
59.880        17
59.900        13
59.920         7
59.940        17
59.960        13
59.980         7
60.000         7
