20.000        40
20.010        40
20.020       147
20.030       120
20.040       153
20.050       167
20.060        73
20.070       147
20.080       187
20.090       107
20.100        93
20.110       147
20.120       100
20.130        67
20.140       167
20.150       107
20.160       207
20.170       140
20.180       173
20.190       120
20.200       153
20.210       133
20.220       147
20.230       133
20.240       173
20.250       120
20.260       133
20.270       140
20.280       120
20.290       140
20.300       127
20.310       133
20.320       127
20.330        80
20.340       120
20.350       147
20.360       127
20.370       133
20.380       140
20.390       140
20.400       133
20.410       113
20.420       180
20.430       133
20.440       140
20.450        87
20.460       107
20.470       167
20.480       180
20.490       147
20.500       127
20.510       120
20.520       133
20.530       107
20.540       113
20.550       133
20.560       120
20.570        80
20.580        87
20.590        87
20.600       100
20.610       120
20.620       127
20.630       140
20.640       113
20.650       133
20.660       180
20.670       140
20.680       133
20.690       153
20.700       133
20.710       133
20.720       207
20.730       120
20.740       113
20.750       120
20.760       120
20.770       113
20.780       160
20.790       140
20.800       120
20.810       113
20.820       173
20.830       127
20.840       153
20.850       133
20.860       173
20.870       133
20.880       133
20.890       200
20.900       173
20.910       127
20.920        87
20.930       153
20.940       100
20.950       160
20.960       180
20.970       113
20.980       113
20.990       127
21.000       100
21.010       160
21.020       100
21.030        87
21.040       120
21.050        47
21.060       100
21.070       153
21.080       107
21.090        93
21.100       120
21.110       140
21.120       127
21.130       140
21.140       193
21.150       160
21.160       187
21.170       147
21.180       133
21.190       107
21.200       113
21.210       187
21.220        80
21.230       147
21.240       160
21.250       153
21.260       167
21.270       160
21.280       113
21.290       120
21.300       140
21.310       173
21.320       153
21.330       213
21.340       107
21.350       153
21.360       200
21.370       127
21.380       140
21.390       133
21.400       133
21.410       160
21.420       113
21.430       127
21.440       147
21.450        93
21.460       173
21.470       113
21.480       147
21.490       147
21.500       147
21.510       153
21.520       147
21.530       133
21.540       227
21.550       180
21.560       113
21.570       133
21.580       153
21.590       140
21.600       140
21.610       133
21.620       193
21.630        93
21.640       200
21.650       120
21.660       153
21.670       200
21.680       160
21.690       127
21.700       127
21.710       167
21.720       200
21.730       180
21.740       133
21.750       173
21.760       160
21.770       107
21.780       147
21.790       187
21.800       173
21.810       107
21.820       173
21.830       160
21.840       140
21.850       113
21.860       187
21.870       173
21.880       120
21.890       133
21.900        87
21.910       120
21.920       167
21.930       153
21.940       173
21.950       133
21.960       180
21.970       187
21.980       140
21.990       200
22.000       213
22.010       153
22.020       153
22.030       267
22.040       127
22.050       167
22.060       147
22.070       107
22.080       227
22.090       233
22.100       153
22.110       147
22.120       187
22.130       180
22.140       167
22.150       127
22.160       227
22.170       227
22.180       220
22.190       207
22.200       153
22.210       140
22.220       167
22.230       127
22.240       247
22.250       167
22.260       133
22.270       167
22.280       180
22.290       200
22.300       180
22.310       207
22.320       273
22.330       180
22.340       187
22.350       220
22.360       220
22.370       187
22.380       227
22.390       167
22.400       200
22.410       187
22.420       213
22.430       267
22.440       173
22.450       233
22.460       267
22.470       193
22.480       307
22.490       187
22.500       273
22.510       313
22.520       207
22.530       253
22.540       247
22.550       273
22.560       220
22.570       393
22.580       253
22.590       327
22.600       340
22.610       267
22.620       253
22.630       220
22.640       280
22.650       253
22.660       367
22.670       340
22.680       253
22.690       313
22.700       313
22.710       213
22.720       233
22.730       187
22.740       340
22.750       260
22.760       267
22.770       260
22.780       193
22.790       207
22.800       267
22.810       187
22.820       193
22.830       260
22.840       173
22.850       287
22.860       260
22.870       220
22.880       227
22.890       207
22.900       293
22.910       320
22.920       313
22.930       287
22.940       333
22.950       247
22.960       293
22.970       347
22.980       327
22.990       313
23.000       367
23.010       367
23.020       367
23.030       380
23.040       340
23.050       407
23.060       533
23.070       593
23.080       840
23.090      1306
23.100      1933
23.110      1986
23.120      2326
23.130      2392
23.140      2086
23.150      2099
23.160      1653
23.170       940
23.180       673
23.190       600
23.200       453
23.210       353
23.220       420
23.230       400
23.240       353
23.250       327
23.260       307
23.270       367
23.280       320
23.290       327
23.300       413
23.310       300
23.320       233
23.330       307
23.340       273
23.350       280
23.360       227
23.370       240
23.380       227
23.390       287
23.400       300
23.410       233
23.420       233
23.430       267
23.440       167
23.450       173
23.460       173
23.470       160
23.480       293
23.490       253
23.500       220
23.510       240
23.520       207
23.530       240
23.540       293
23.550       260
23.560       227
23.570       233
23.580       213
23.590       267
23.600       173
23.610       287
23.620       220
23.630       240
23.640       253
23.650       253
23.660       313
23.670       280
23.680       260
23.690       260
23.700       220
23.710       240
23.720       187
23.730       247
23.740       220
23.750       120
23.760       213
23.770       193
23.780       300
23.790       253
23.800       267
23.810       307
23.820       293
23.830       220
23.840       187
23.850       227
23.860       293
23.870       273
23.880       273
23.890       267
23.900       213
23.910       247
23.920       193
23.930       347
23.940       213
23.950       253
23.960       173
23.970       287
23.980       280
23.990       280
24.000       240
24.010       293
24.020       280
24.030       260
24.040       327
24.050       233
24.060       193
24.070       233
24.080       213
24.090       280
24.100       193
24.110       233
24.120       220
24.130       333
24.140       220
24.150       253
24.160       273
24.170       193
24.180       220
24.190       273
24.200       240
24.210       193
24.220       227
24.230       213
24.240       280
24.250       213
24.260       227
24.270       240
24.280       247
24.290       253
24.300       180
24.310       267
24.320       207
24.330       273
24.340       300
24.350       220
24.360       293
24.370       260
24.380       207
24.390       240
24.400       267
24.410       260
24.420       233
24.430       240
24.440       167
24.450       220
24.460       233
24.470       347
24.480       247
24.490       220
24.500       313
24.510       320
24.520       267
24.530       193
24.540       180
24.550       213
24.560       220
24.570       233
24.580       320
24.590       227
24.600       273
24.610       320
24.620       213
24.630       280
24.640       173
24.650       300
24.660       260
24.670       307
24.680       300
24.690       347
24.700       340
24.710       473
24.720       433
24.730       426
24.740       680
24.750       706
24.760       880
24.770       953
24.780       940
24.790      1033
24.800      1033
24.810       906
24.820      1100
24.830      1013
24.840      1146
24.850       926
24.860       926
24.870      1013
24.880      1133
24.890      1113
24.900      1080
24.910      1140
24.920      1273
24.930       980
24.940       980
24.950      1126
24.960      1206
24.970      1100
24.980      1113
24.990      1200
25.000      1146
25.010      1193
25.020      1106
25.030      1146
25.040      1180
25.050      1166
25.060      1153
25.070      1220
25.080      1020
25.090      1113
25.100      1193
25.110      1133
25.120      1033
25.130      1180
25.140      1120
25.150      1053
25.160      1120
25.170      1160
25.180      1186
25.190      1299
25.200      1193
25.210      1166
25.220      1100
25.230      1126
25.240      1326
25.250      1373
25.260      1299
25.270      1299
25.280      1259
25.290      1220
25.300      1413
25.310      1339
25.320      1526
25.330      1566
25.340      1586
25.350      1419
25.360      1573
25.370      1499
25.380      1706
25.390      1946
25.400      2019
25.410      2459
25.420      3032
25.430      3465
25.440      4258
25.450      5225
25.460      6171
25.470      7417
25.480      8943
25.490     10869
25.500     12248
25.510     13075
25.520     14508
25.530     15500
25.540     16700
25.550     18726
25.560     21918
25.570     30634
25.580     60916
25.590    108403
25.600    158623
25.610    191130
25.620    205258
25.630    208257
25.640    211409
25.650    215934
25.660    206737
25.670    186999
25.680    159183
25.690    140930
25.700    132180
25.710    130748
25.720    116693
25.730     91543
25.740     60123
25.750     34193
25.760     22504
25.770     18259
25.780     15674
25.790     13774
25.800     12308
25.810     11036
25.820      8830
25.830      7810
25.840      6357
25.850      5811
25.860      4931
25.870      4192
25.880      3645
25.890      2919
25.900      2159
25.910      2246
25.920      1859
25.930      1893
25.940      1853
25.950      1639
25.960      1726
25.970      1793
25.980      1559
25.990      1539
26.000      1659
26.010      1599
26.020      1433
26.030      1279
26.040      1346
26.050      1240
26.060      1306
26.070      1193
26.080      1413
26.090      1160
26.100      1406
26.110      1106
26.120      1293
26.130      1146
26.140      1160
26.150      1086
26.160       993
26.170      1193
26.180      1033
26.190      1093
26.200       980
26.210      1013
26.220      1046
26.230       846
26.240       966
26.250      1106
26.260      1073
26.270       966
26.280       966
26.290      1060
26.300       906
26.310      1080
26.320       980
26.330       933
26.340       980
26.350       966
26.360       913
26.370       933
26.380       906
26.390       853
26.400       873
26.410       866
26.420       993
26.430      1080
26.440       960
26.450       786
26.460       793
26.470       980
26.480       893
26.490       913
26.500       686
26.510       893
26.520       860
26.530       860
26.540       900
26.550       800
26.560       866
26.570       840
26.580       866
26.590       766
26.600       826
26.610       860
26.620       780
26.630       806
26.640       906
26.650       933
26.660       646
26.670       806
26.680       773
26.690       773
26.700       780
26.710       793
26.720       800
26.730       800
26.740       780
26.750       726
26.760       826
26.770       946
26.780       820
26.790       800
26.800       726
26.810       820
26.820       900
26.830       706
26.840       733
26.850       713
26.860       806
26.870       713
26.880       720
26.890       726
26.900       746
26.910       853
26.920       806
26.930       740
26.940       626
26.950       720
26.960       693
26.970       713
26.980       666
26.990       766
27.000       793
27.010       740
27.020       733
27.030       806
27.040       733
27.050       833
27.060       686
27.070       846
27.080       733
27.090       800
27.100       813
27.110       686
27.120       740
27.130       526
27.140       693
27.150       660
27.160       766
27.170       606
27.180       540
27.190       680
27.200       546
27.210       626
27.220       606
27.230       640
27.240       706
27.250       646
27.260       600
27.270       673
27.280       686
27.290       820
27.300       746
27.310       620
27.320       626
27.330       700
27.340       640
27.350       613
27.360       560
27.370       713
27.380       753
27.390       526
27.400       646
27.410       726
27.420       786
27.430       726
27.440       773
27.450       700
27.460       673
27.470       606
27.480       633
27.490       733
27.500       673
27.510       653
27.520       546
27.530       646
27.540       693
27.550       640
27.560       760
27.570       573
27.580       600
27.590       573
27.600       626
27.610       540
27.620       733
27.630       693
27.640       520
27.650       720
27.660       500
27.670       580
27.680       580
27.690       733
27.700       653
27.710       686
27.720       606
27.730       700
27.740       646
27.750       640
27.760       686
27.770       606
27.780       540
27.790       580
27.800       580
27.810       480
27.820       713
27.830       606
27.840       593
27.850       586
27.860       520
27.870       753
27.880       500
27.890       620
27.900       613
27.910       566
27.920       640
27.930       600
27.940       713
27.950       573
27.960       653
27.970       606
27.980       573
27.990       586
28.000       653
28.010       546
28.020       573
28.030       626
28.040       660
28.050       460
28.060       593
28.070       666
28.080       593
28.090       693
28.100       586
28.110       626
28.120       660
28.130       600
28.140       540
28.150       633
28.160       513
28.170       640
28.180       666
28.190       620
28.200       713
28.210       573
28.220       580
28.230       553
28.240       586
28.250       546
28.260       600
28.270       586
28.280       520
28.290       620
28.300       486
28.310       506
28.320       620
28.330       613
28.340       586
28.350       440
28.360       460
28.370       540
28.380       473
28.390       593
28.400       460
28.410       526
28.420       573
28.430       520
28.440       600
28.450       593
28.460       540
28.470       513
28.480       506
28.490       533
28.500       466
28.510       466
28.520       626
28.530       520
28.540       486
28.550       680
28.560       460
28.570       526
28.580       460
28.590       520
28.600       466
28.610       613
28.620       466
28.630       580
28.640       453
28.650       520
28.660       600
28.670       506
28.680       546
28.690       560
28.700       586
28.710       473
28.720       466
28.730       480
28.740       586
28.750       420
28.760       446
28.770       580
28.780       600
28.790       546
28.800       506
28.810       493
28.820       493
28.830       480
28.840       626
28.850       606
28.860       407
28.870       573
28.880       586
28.890       486
28.900       426
28.910       433
28.920       526
28.930       440
28.940       327
28.950       520
28.960       506
28.970       586
28.980       520
28.990       500
29.000       500
29.010       460
29.020       566
29.030       513
29.040       706
29.050       473
29.060       420
29.070       673
29.080       553
29.090       533
29.100       413
29.110       453
29.120       446
29.130       453
29.140       446
29.150       586
29.160       506
29.170       553
29.180       493
29.190       593
29.200       466
29.210       453
29.220       560
29.230       506
29.240       526
29.250       626
29.260       586
29.270       520
29.280       387
29.290       420
29.300       593
29.310       466
29.320       440
29.330       473
29.340       580
29.350       440
29.360       466
29.370       446
29.380       440
29.390       506
29.400       506
29.410       440
29.420       433
29.430       486
29.440       506
29.450       367
29.460       426
29.470       560
29.480       586
29.490       440
29.500       513
29.510       426
29.520       513
29.530       460
29.540       393
29.550       387
29.560       367
29.570       367
29.580       460
29.590       453
29.600       333
29.610       420
29.620       493
29.630       460
29.640       460
29.650       420
29.660       420
29.670       506
29.680       473
29.690       480
29.700       387
29.710       453
29.720       446
29.730       466
29.740       387
29.750       520
29.760       373
29.770       440
29.780       360
29.790       440
29.800       426
29.810       480
29.820       466
29.830       400
29.840       360
29.850       393
29.860       520
29.870       433
29.880       407
29.890       420
29.900       400
29.910       413
29.920       433
29.930       353
29.940       420
29.950       486
29.960       400
29.970       387
29.980       353
29.990       453
30.000       380
30.010       460
30.020       506
30.030       413
30.040       367
30.050       453
30.060       387
30.070       466
30.080       473
30.090       453
30.100       466
30.110       440
30.120       413
30.130       280
30.140       313
30.150       413
30.160       387
30.170       426
30.180       367
30.190       433
30.200       360
30.210       347
30.220       393
30.230       426
30.240       466
30.250       466
30.260       333
30.270       506
30.280       367
30.290       440
30.300       327
30.310       367
30.320       440
30.330       273
30.340       400
30.350       393
30.360       353
30.370       453
30.380       373
30.390       407
30.400       440
30.410       413
30.420       387
30.430       367
30.440       347
30.450       426
30.460       426
30.470       327
30.480       466
30.490       413
30.500       360
30.510       413
30.520       400
30.530       360
30.540       393
30.550       387
30.560       280
30.570       407
30.580       360
30.590       353
30.600       380
30.610       360
30.620       373
30.630       426
30.640       347
30.650       373
30.660       480
30.670       340
30.680       313
30.690       327
30.700       420
30.710       380
30.720       347
30.730       327
30.740       360
30.750       400
30.760       460
30.770       433
30.780       400
30.790       320
30.800       460
30.810       287
30.820       327
30.830       373
30.840       360
30.850       407
30.860       407
30.870       440
30.880       333
30.890       340
30.900       393
30.910       393
30.920       353
30.930       353
30.940       347
30.950       327
30.960       400
30.970       367
30.980       293
30.990       280
31.000       333
31.010       393
31.020       373
31.030       333
31.040       440
31.050       293
31.060       340
31.070       240
31.080       360
31.090       293
31.100       340
31.110       293
31.120       327
31.130       420
31.140       273
31.150       347
31.160       400
31.170       453
31.180       340
31.190       340
31.200       393
31.210       420
31.220       293
31.230       380
31.240       360
31.250       320
31.260       333
31.270       300
31.280       340
31.290       253
31.300       253
31.310       280
31.320       327
31.330       273
31.340       280
31.350       313
31.360       287
31.370       307
31.380       313
31.390       280
31.400       260
31.410       260
31.420       327
31.430       253
31.440       360
31.450       380
31.460       273
31.470       347
31.480       227
31.490       320
31.500       213
31.510       293
31.520       347
31.530       327
31.540       353
31.550       347
31.560       287
31.570       227
31.580       247
31.590       320
31.600       200
31.610       267
31.620       287
31.630       280
31.640       313
31.650       260
31.660       353
31.670       307
31.680       287
31.690       300
31.700       313
31.710       213
31.720       280
31.730       253
31.740       187
31.750       227
31.760       227
31.770       287
31.780       207
31.790       340
31.800       247
31.810       320
31.820       247
31.830       273
31.840       307
31.850       267
31.860       340
31.870       307
31.880       320
31.890       280
31.900       426
31.910       267
31.920       247
31.930       280
31.940       373
31.950       247
31.960       393
31.970       320
31.980       260
31.990       327
32.000       327
32.010       220
32.020       280
32.030       300
32.040       247
32.050       267
32.060       313
32.070       320
32.080       287
32.090       233
32.100       400
32.110       273
32.120       320
32.130       347
32.140       300
32.150       300
32.160       287
32.170       267
32.180       273
32.190       367
32.200       300
32.210       300
32.220       353
32.230       393
32.240       340
32.250       247
32.260       300
32.270       313
32.280       260
32.290       380
32.300       220
32.310       446
32.320       360
32.330       240
32.340       367
32.350       320
32.360       213
32.370       260
32.380       320
32.390       313
32.400       220
32.410       207
32.420       307
32.430       380
32.440       240
32.450       267
32.460       280
32.470       313
32.480       227
32.490       227
32.500       233
32.510       253
32.520       207
32.530       240
32.540       193
32.550       240
32.560       267
32.570       247
32.580       267
32.590       213
32.600       287
32.610       287
32.620       187
32.630       300
32.640       320
32.650       247
32.660       260
32.670       260
32.680       207
32.690       260
32.700       193
32.710       260
32.720       333
32.730       300
32.740       240
32.750       300
32.760       287
32.770       267
32.780       213
32.790       207
32.800       227
32.810       273
32.820       247
32.830       147
32.840       287
32.850       193
32.860       147
32.870       293
32.880       193
32.890       280
32.900       240
32.910       187
32.920       140
32.930       280
32.940       267
32.950       207
32.960       193
32.970       167
32.980       220
32.990       227
33.000       280
33.010       267
33.020       253
33.030       233
33.040       160
33.050       240
33.060       260
33.070       187
33.080       207
33.090       253
33.100       187
33.110       207
33.120       240
33.130       187
33.140       227
33.150       240
33.160       220
33.170       227
33.180       173
33.190       260
33.200       147
33.210       160
33.220       193
33.230       260
33.240       233
33.250       180
33.260       187
33.270       213
33.280       247
33.290       187
33.300       160
33.310       153
33.320       233
33.330       173
33.340       233
33.350       207
33.360       220
33.370       187
33.380       193
33.390       233
33.400       293
33.410       200
33.420       180
33.430       247
33.440       227
33.450       200
33.460       233
33.470       233
33.480       253
33.490       227
33.500       293
33.510       153
33.520       213
33.530       200
33.540       213
33.550       153
33.560       160
33.570       200
33.580       187
33.590       200
33.600       193
33.610       180
33.620       213
33.630       187
33.640       213
33.650       160
33.660       133
33.670       207
33.680       200
33.690       220
33.700       160
33.710       193
33.720       153
33.730       200
33.740       193
33.750       167
33.760       207
33.770       180
33.780       227
33.790       147
33.800       140
33.810       133
33.820       187
33.830       153
33.840       180
33.850       153
33.860       187
33.870       240
33.880       227
33.890       233
33.900       260
33.910       173
33.920       180
33.930       207
33.940       147
33.950       233
33.960       227
33.970       213
33.980       180
33.990       213
34.000       147
34.010       147
34.020       120
34.030       200
34.040       240
34.050       187
34.060       167
34.070       173
34.080       167
34.090       147
34.100       187
34.110       220
34.120       160
34.130       140
34.140       120
34.150       127
34.160       227
34.170       153
34.180       187
34.190       207
34.200       207
34.210       167
34.220       227
34.230       147
34.240       193
34.250       133
34.260       253
34.270       173
34.280       200
34.290       207
34.300       187
34.310       133
34.320       133
34.330       173
34.340       187
34.350       133
34.360       127
34.370       140
34.380       173
34.390       140
34.400       173
34.410       140
34.420       227
34.430       193
34.440       160
34.450       153
34.460       173
34.470       200
34.480       160
34.490       167
34.500       200
34.510       173
34.520       180
34.530       213
34.540       173
34.550       153
34.560       167
34.570       220
34.580       140
34.590       160
34.600       180
34.610       173
34.620       153
34.630       147
34.640       167
34.650       120
34.660       127
34.670       213
34.680       200
34.690       147
34.700       147
34.710       180
34.720       160
34.730       113
34.740       180
34.750       147
34.760       167
34.770       140
34.780       160
34.790       127
34.800       140
34.810       160
34.820       100
34.830        93
34.840       213
34.850       193
34.860       187
34.870       140
34.880       133
34.890       173
34.900       147
34.910       127
34.920       160
34.930       140
34.940       167
34.950       120
34.960       120
34.970       107
34.980        87
34.990       127
35.000       127
35.010       147
35.020       147
35.030       120
35.040       153
35.050       133
35.060       200
35.070       167
35.080       167
35.090       173
35.100       193
35.110       133
35.120       120
35.130       100
35.140       180
35.150       133
35.160       133
35.170       133
35.180       173
35.190       173
35.200       173
35.210       167
35.220       133
35.230       100
35.240       140
35.250       153
35.260       140
35.270       127
35.280       133
35.290       127
35.300       153
35.310       187
35.320       193
35.330       133
35.340       167
35.350        93
35.360       167
35.370       193
35.380       113
35.390        87
35.400       180
35.410       167
35.420       140
35.430       120
35.440       147
35.450       140
35.460       140
35.470       120
35.480       153
35.490       133
35.500       107
35.510       180
35.520       140
35.530       113
35.540       120
35.550       120
35.560       147
35.570        93
35.580       147
35.590       153
35.600       133
35.610       133
35.620       133
35.630       153
35.640       167
35.650        93
35.660       113
35.670       147
35.680       113
35.690       140
35.700       120
35.710       140
35.720       160
35.730       133
35.740       107
35.750       120
35.760       207
35.770       153
35.780       120
35.790       120
35.800       133
35.810       120
35.820       113
35.830       133
35.840       120
35.850       147
35.860       107
35.870       153
35.880       153
35.890       187
35.900       153
35.910       140
35.920       140
35.930       127
35.940       180
35.950       120
35.960       113
35.970       153
35.980       153
35.990       127
36.000       167
36.010       107
36.020       153
36.030        53
36.040       153
36.050       113
36.060       133
36.070       167
36.080        87
36.090       133
36.100       160
36.110        73
36.120       153
36.130        87
36.140        80
36.150       100
36.160       140
36.170       127
36.180       127
36.190       127
36.200       180
36.210        93
36.220       173
36.230       127
36.240       107
36.250       120
36.260       133
36.270       120
36.280       147
36.290       100
36.300       147
36.310       127
36.320       167
36.330       167
36.340       180
36.350       113
36.360        80
36.370       127
36.380       100
36.390       153
36.400       133
36.410       100
36.420        80
36.430       127
36.440        80
36.450       100
36.460        60
36.470       127
36.480       113
36.490       180
36.500       113
36.510       140
36.520       133
36.530        93
36.540        87
36.550       147
36.560        93
36.570        87
36.580       167
36.590       207
36.600       147
36.610       107
36.620       113
36.630       113
36.640       127
36.650        60
36.660       107
36.670        93
36.680       100
36.690       127
36.700       100
36.710       167
36.720        87
36.730       127
36.740       107
36.750        87
36.760       113
36.770        87
36.780       127
36.790        80
36.800       133
36.810        67
36.820        93
36.830       113
36.840       100
36.850       107
36.860       153
36.870       127
36.880       107
36.890       100
36.900       107
36.910       120
36.920       113
36.930       140
36.940       140
36.950       120
36.960       120
36.970       140
36.980       133
36.990       140
37.000       147
37.010       127
37.020       173
37.030       133
37.040        80
37.050       100
37.060        80
37.070       147
37.080       140
37.090       147
37.100       127
37.110       140
37.120       147
37.130        93
37.140        93
37.150        47
37.160       107
37.170        87
37.180       127
37.190       100
37.200       100
37.210        60
37.220       120
37.230       107
37.240       100
37.250        80
37.260        80
37.270       100
37.280       127
37.290        73
37.300       100
37.310        73
37.320        67
37.330        73
37.340       107
37.350        73
37.360        93
37.370        60
37.380        60
37.390       133
37.400       147
37.410       107
37.420        93
37.430       100
37.440       113
37.450        53
37.460       113
37.470        87
37.480        87
37.490        73
37.500        93
37.510       127
37.520       193
37.530       100
37.540       113
37.550       120
37.560        80
37.570        80
37.580       120
37.590       113
37.600        67
37.610       107
37.620       133
37.630       100
37.640       107
37.650        80
37.660       107
37.670       127
37.680       113
37.690        47
37.700       133
37.710        80
37.720        67
37.730       120
37.740        73
37.750       113
37.760        80
37.770        87
37.780        93
37.790       127
37.800       160
37.810        87
37.820       133
37.830        73
37.840        60
37.850        80
37.860        53
37.870       100
37.880        73
37.890       113
37.900       120
37.910       133
37.920        93
37.930       100
37.940        53
37.950        73
37.960        73
37.970       133
37.980       120
37.990        80
38.000       107
38.010        80
38.020       120
38.030        60
38.040       120
38.050        67
38.060        87
38.070        73
38.080        93
38.090        93
38.100        87
38.110        73
38.120        87
38.130       107
38.140       100
38.150        87
38.160       113
38.170        87
38.180       120
38.190        60
38.200        80
38.210        80
38.220        87
38.230        93
38.240        60
38.250        67
38.260        67
38.270        67
38.280        60
38.290       107
38.300        53
38.310        47
38.320        67
38.330        93
38.340        87
38.350        87
38.360       107
38.370       127
38.380        80
38.390       100
38.400       120
38.410        87
38.420        87
38.430        67
38.440        60
38.450       113
38.460        53
38.470        80
38.480        87
38.490       127
38.500        67
38.510        93
38.520       100
38.530        80
38.540        73
38.550        40
38.560        80
38.570        60
38.580        40
38.590        80
38.600        80
38.610       120
38.620        60
38.630       120
38.640       107
38.650        73
38.660        87
38.670        87
38.680        67
38.690       100
38.700       140
38.710        73
38.720        53
38.730        87
38.740       120
38.750        67
38.760        80
38.770        47
38.780        40
38.790       100
38.800        93
38.810       100
38.820        93
38.830        20
38.840        93
38.850        67
38.860        60
38.870        67
38.880        60
38.890        93
38.900        47
38.910        40
38.920        53
38.930        80
38.940        80
38.950        93
38.960       107
38.970        80
38.980        87
38.990        93
39.000        40
39.010        53
39.020        80
39.030        73
39.040        53
39.050        80
39.060        40
39.070       100
39.080        60
39.090        73
39.100        73
39.110        73
39.120        87
39.130       100
39.140        87
39.150        80
39.160        60
39.170        93
39.180       107
39.190        60
39.200        93
39.210       113
39.220        53
39.230        53
39.240        73
39.250        67
39.260       100
39.270        80
39.280       133
39.290        60
39.300        80
39.310        67
39.320       107
39.330        67
39.340       120
39.350        60
39.360        80
39.370       147
39.380        87
39.390        80
39.400        87
39.410       120
39.420        73
39.430        60
39.440        87
39.450       107
39.460        67
39.470       107
39.480        93
39.490        80
39.500       140
39.510       100
39.520       120
39.530        93
39.540       100
39.550        93
39.560       100
39.570        80
39.580        80
39.590       100
39.600       127
39.610        73
39.620       120
39.630       120
39.640       207
39.650       167
39.660        73
39.670       153
39.680       133
39.690       127
39.700       113
39.710       133
39.720       153
39.730       140
39.740       100
39.750        73
39.760       127
39.770       180
39.780       127
39.790       113
39.800       100
39.810       120
39.820       160
39.830       107
39.840       100
39.850        67
39.860        73
39.870       120
39.880        67
39.890        80
39.900        93
39.910        87
39.920        67
39.930        80
39.940       127
39.950        73
39.960       100
39.970        67
39.980        47
39.990        33
40.000        53
40.010        20
40.020        93
40.030        67
40.040        73
40.050        87
40.060        60
40.070        53
40.080        73
40.090        47
40.100        33
40.110        53
40.120        60
40.130        67
40.140        33
40.150        80
40.160        67
40.170        73
40.180        67
40.190        53
40.200        73
40.210        73
40.220       107
40.230        47
40.240        53
40.250        93
40.260        47
40.270        53
40.280        87
40.290        60
40.300        53
40.310        47
40.320        87
40.330        40
40.340        93
40.350        47
40.360       100
40.370       113
40.380        53
40.390        73
40.400        47
40.410        47
40.420        47
40.430        67
40.440        47
40.450        73
40.460        47
40.470        60
40.480        67
40.490        87
40.500        87
40.510        53
40.520        87
40.530        67
40.540        53
40.550        60
40.560        27
40.570        73
40.580        53
40.590        53
40.600        27
40.610        67
40.620        60
40.630        87
40.640        40
40.650        60
40.660        60
40.670        33
40.680        47
40.690       127
40.700        80
40.710        80
40.720        60
40.730        27
40.740       107
40.750        60
40.760        80
40.770        40
40.780        40
40.790        40
40.800       100
40.810        47
40.820        73
40.830        47
40.840        60
40.850        40
40.860        60
40.870        53
40.880        53
40.890        53
40.900        40
40.910        73
40.920        67
40.930        33
40.940        47
40.950       120
40.960        47
40.970        20
40.980        67
40.990        60
41.000        40
41.010        67
41.020        53
41.030        67
41.040        67
41.050        73
41.060        87
41.070        67
41.080        53
41.090        53
41.100       107
41.110        80
41.120        53
41.130        60
41.140        87
41.150        20
41.160        33
41.170        33
41.180        33
41.190        33
41.200        60
41.210        60
41.220        73
41.230        60
41.240        87
41.250        80
41.260        47
41.270        87
41.280        73
41.290        87
41.300        60
41.310        60
41.320        27
41.330        73
41.340        47
41.350        73
41.360        47
41.370        53
41.380        80
41.390        87
41.400        33
41.410        67
41.420        67
41.430        53
41.440        27
41.450        53
41.460        60
41.470        47
41.480        87
41.490        40
41.500       113
41.510        80
41.520        33
41.530        87
41.540        60
41.550        20
41.560        47
41.570        80
41.580        53
41.590        67
41.600        53
41.610        47
41.620        40
41.630       107
41.640        80
41.650        67
41.660        87
41.670        73
41.680        60
41.690        47
41.700        67
41.710        53
41.720        60
41.730        47
41.740       127
41.750        80
41.760        60
41.770        53
41.780        73
41.790        53
41.800        53
41.810        33
41.820        87
41.830        33
41.840        27
41.850        87
41.860        80
41.870        40
41.880        53
41.890        60
41.900        53
41.910        73
41.920        40
41.930        47
41.940        80
41.950        87
41.960        73
41.970        67
41.980        73
41.990        47
42.000        67
42.010        67
42.020        33
42.030        40
42.040       100
42.050        73
42.060        33
42.070        40
42.080        73
42.090        73
42.100        67
42.110        40
42.120        60
42.130        67
42.140        80
42.150        60
42.160        33
42.170        53
42.180        73
42.190        67
42.200        33
42.210        60
42.220        27
42.230        20
42.240        47
42.250        60
42.260        60
42.270        67
42.280       107
42.290        40
42.300        47
42.310        60
42.320        47
42.330        67
42.340        33
42.350        67
42.360        80
42.370        47
42.380        40
42.390        53
42.400        73
42.410        53
42.420        73
42.430        87
42.440        47
42.450        87
42.460        27
42.470        27
42.480        40
42.490        60
42.500        20
42.510        53
42.520        53
42.530        27
42.540       120
42.550        33
42.560        47
42.570        67
42.580        47
42.590        87
42.600        67
42.610        33
42.620        67
42.630        53
42.640        80
42.650        47
42.660        53
42.670        47
42.680        67
42.690        27
42.700        67
42.710        33
42.720        47
42.730        40
42.740        33
42.750        60
42.760         7
42.770        33
42.780        40
42.790        40
42.800        67
42.810        60
42.820        87
42.830        33
42.840        47
42.850        67
42.860        53
42.870        47
42.880        40
42.890        47
42.900        80
42.910        47
42.920        40
42.930        53
42.940        53
42.950        27
42.960        47
42.970        53
42.980        33
42.990        40
43.000       100
43.010        60
43.020        67
43.030       100
43.040        93
43.050        53
43.060        40
43.070        80
43.080        53
43.090        73
43.100        53
43.110        60
43.120        73
43.130        60
43.140        33
43.150        67
43.160        53
43.170        27
43.180        80
43.190        73
43.200        67
43.210        40
43.220        40
43.230        67
43.240        47
43.250        67
43.260        47
43.270        40
43.280        53
43.290        33
43.300        47
43.310        53
43.320        27
43.330        40
43.340        40
43.350        33
43.360        53
43.370        67
43.380        47
43.390        60
43.400        47
43.410        47
43.420       120
43.430        47
43.440        67
43.450        40
43.460        53
43.470        73
43.480       100
43.490        67
43.500       100
43.510        53
43.520        73
43.530        33
43.540        53
43.550        27
43.560        33
43.570        73
43.580        33
43.590        47
43.600        40
43.610        40
43.620        47
43.630        27
43.640        47
43.650        40
43.660        47
43.670        60
43.680        53
43.690        47
43.700        53
43.710        80
43.720        47
43.730        67
43.740        40
43.750        47
43.760        47
43.770        33
43.780        53
43.790        53
43.800        33
43.810        60
43.820        40
43.830        73
43.840        40
43.850        67
43.860        27
43.870        47
43.880        53
43.890        53
43.900        80
43.910        47
43.920        93
43.930        33
43.940        67
43.950        53
43.960        47
43.970        87
43.980        53
43.990        13
44.000        20
44.010        80
44.020        53
44.030        20
44.040        60
44.050        33
44.060        53
44.070        47
44.080        53
44.090        53
44.100        67
44.110        73
44.120        47
44.130        53
44.140        33
44.150        27
44.160        47
44.170        47
44.180        20
44.190        60
44.200        27
44.210        80
44.220        40
44.230        40
44.240        67
44.250        40
44.260        73
44.270        33
44.280        33
44.290        33
44.300        33
44.310        73
44.320        67
44.330        20
44.340        53
44.350        33
44.360        67
44.370        40
44.380        20
44.390        60
44.400        53
44.410        20
44.420        53
44.430        27
44.440        40
44.450        60
44.460        73
44.470        33
44.480        80
44.490        47
44.500        53
44.510        27
44.520        47
44.530        40
44.540        73
44.550        80
44.560        67
44.570        47
44.580        20
44.590        73
44.600        53
44.610        73
44.620        53
44.630        40
44.640        40
44.650        40
44.660        80
44.670        40
44.680        93
44.690        40
44.700       120
44.710        60
44.720        60
44.730        60
44.740        53
44.750        53
44.760        40
44.770        47
44.780        47
44.790        27
44.800        73
44.810        53
44.820        33
44.830        67
44.840        33
44.850        53
44.860        60
44.870        67
44.880        67
44.890        80
44.900        27
44.910        60
44.920        40
44.930        53
44.940        73
44.950        93
44.960        53
44.970        40
44.980        53
44.990        67
45.000        60
45.010        20
45.020        67
45.030        53
45.040        27
45.050        67
45.060        67
45.070        67
45.080        80
45.090        27
45.100        73
45.110        87
45.120        53
45.130        53
45.140        87
45.150        27
45.160        67
45.170        60
45.180        87
45.190        73
45.200        53
45.210        53
45.220        93
45.230        40
45.240        80
45.250        60
45.260        80
45.270        53
45.280        80
45.290        47
45.300        80
45.310        87
45.320        60
45.330        47
45.340        60
45.350        40
45.360        53
45.370        87
45.380        53
45.390        80
45.400       100
45.410        87
45.420        33
45.430        67
45.440       100
45.450        87
45.460        73
45.470        53
45.480        93
45.490        53
45.500       100
45.510        53
45.520        67
45.530       100
45.540        93
45.550        60
45.560       100
45.570        73
45.580        87
45.590        67
45.600        67
45.610        87
45.620        60
45.630       100
45.640        80
45.650        60
45.660        93
45.670        87
45.680        80
45.690       100
45.700        87
45.710        87
45.720       120
45.730        60
45.740       140
45.750       100
45.760       113
45.770       187
45.780       160
45.790       107
45.800       107
45.810       200
45.820       193
45.830       167
45.840       147
45.850       180
45.860       153
45.870       127
45.880       180
45.890       207
45.900       167
45.910       213
45.920       227
45.930       213
45.940       187
45.950       267
45.960       360
45.970       293
45.980       213
45.990       293
46.000       213
46.010       307
46.020       280
46.030       347
46.040       340
46.050       360
46.060       320
46.070       400
46.080       420
46.090       426
46.100       360
46.110       373
46.120       353
46.130       400
46.140       460
46.150       420
46.160       320
46.170       360
46.180       400
46.190       400
46.200       433
46.210       327
46.220       426
46.230       293
46.240       307
46.250       287
46.260       333
46.270       293
46.280       373
46.290       293
46.300       273
46.310       267
46.320       233
46.330       320
46.340       200
46.350       273
46.360       220
46.370       187
46.380       200
46.390       100
46.400       187
46.410       140
46.420       160
46.430       167
46.440       153
46.450       187
46.460        87
46.470       120
46.480       107
46.490       107
46.500        87
46.510       187
46.520        93
46.530       160
46.540       107
46.550       127
46.560        87
46.570        73
46.580        80
46.590        67
46.600       127
46.610        60
46.620       107
46.630        80
46.640        93
46.650        80
46.660        87
46.670        40
46.680        73
46.690       120
46.700        93
46.710        33
46.720       140
46.730        80
46.740        93
46.750        80
46.760       100
46.770        93
46.780       107
46.790        67
46.800       127
46.810       127
46.820       133
46.830       147
46.840       120
46.850       120
46.860       160
46.870       147
46.880       100
46.890       127
46.900       107
46.910        87
46.920        73
46.930       100
46.940       100
46.950       107
46.960       100
46.970        93
46.980       113
46.990       140
47.000       100
47.010        87
47.020        93
47.030       140
47.040       113
47.050       147
47.060       200
47.070       153
47.080       167
47.090       147
47.100       207
47.110       167
47.120       187
47.130       227
47.140       340
47.150       247
47.160       466
47.170       573
47.180       820
47.190      1086
47.200      1386
47.210      1713
47.220      1893
47.230      2073
47.240      1959
47.250      1733
47.260      1546
47.270      1113
47.280       740
47.290       680
47.300       473
47.310       393
47.320       353
47.330       287
47.340       293
47.350       267
47.360       187
47.370       260
47.380       167
47.390       173
47.400       180
47.410       167
47.420       180
47.430       133
47.440       127
47.450       127
47.460       160
47.470       140
47.480       133
47.490        93
47.500       160
47.510       140
47.520       107
47.530       107
47.540        80
47.550       133
47.560        73
47.570        73
47.580        60
47.590        93
47.600        67
47.610        93
47.620        67
47.630       100
47.640        80
47.650       127
47.660        47
47.670       100
47.680       113
47.690        67
47.700       100
47.710       133
47.720        67
47.730       100
47.740        47
47.750        40
47.760        53
47.770        53
47.780        87
47.790        87
47.800        80
47.810        73
47.820        67
47.830        67
47.840        67
47.850       113
47.860        60
47.870        33
47.880        40
47.890        73
47.900        53
47.910        47
47.920        87
47.930        60
47.940        33
47.950       100
47.960        87
47.970        67
47.980        93
47.990        60
48.000        73
48.010        60
48.020        80
48.030        53
48.040       113
48.050        80
48.060        87
48.070       107
48.080        80
48.090        87
48.100       107
48.110        60
48.120        93
48.130        80
48.140        87
48.150        60
48.160        67
48.170        80
48.180        87
48.190        47
48.200        60
48.210        93
48.220        80
48.230        93
48.240        67
48.250        80
48.260        60
48.270        53
48.280        40
48.290        80
48.300        60
48.310       100
48.320        53
48.330        87
48.340        80
48.350        40
48.360       100
48.370        67
48.380        53
48.390        53
48.400       100
48.410        73
48.420        40
48.430       100
48.440        53
48.450        67
48.460        73
48.470        40
48.480        73
48.490        53
48.500        73
48.510        73
48.520        13
48.530        73
48.540        33
48.550        67
48.560        80
48.570        80
48.580        33
48.590        80
48.600        73
48.610        53
48.620        93
48.630        80
48.640        47
48.650        53
48.660        27
48.670        20
48.680        73
48.690        47
48.700        40
48.710        13
48.720        47
48.730        80
48.740        80
48.750        80
48.760        47
48.770        40
48.780        73
48.790        80
48.800        67
48.810        60
48.820        67
48.830        67
48.840        27
48.850        67
48.860        60
48.870        27
48.880        27
48.890        60
48.900        60
48.910        47
48.920        67
48.930        40
48.940        40
48.950        73
48.960        73
48.970        67
48.980        53
48.990        80
49.000        60
49.010        53
49.020        53
49.030        67
49.040        67
49.050        60
49.060        80
49.070        40
49.080        33
49.090        47
49.100        93
49.110        73
49.120        73
49.130        13
49.140        27
49.150        20
49.160        40
49.170        53
49.180        60
49.190        73
49.200        60
49.210        47
49.220        60
49.230        53
49.240        47
49.250        53
49.260        73
49.270        53
49.280        53
49.290        40
49.300        40
49.310        60
49.320        93
49.330        73
49.340        53
49.350        40
49.360        60
49.370        27
49.380        80
49.390        47
49.400        33
49.410        67
49.420        40
49.430        67
49.440        73
49.450        60
49.460        47
49.470        47
49.480        33
49.490        47
49.500        53
49.510        93
49.520        33
49.530        27
49.540        87
49.550        60
49.560        80
49.570        40
49.580        60
49.590       113
49.600        40
49.610        40
49.620        47
49.630        53
49.640        47
49.650        60
49.660        27
49.670        47
49.680        73
49.690        67
49.700        47
49.710        47
49.720        27
49.730        67
49.740        80
49.750        60
49.760        80
49.770        40
49.780        60
49.790        73
49.800        40
49.810        67
49.820        60
49.830        67
49.840        87
49.850        47
49.860        67
49.870        40
49.880        40
49.890        40
49.900        73
49.910         7
49.920        67
49.930        60
49.940        60
49.950        33
49.960        67
49.970        33
49.980        53
49.990        40
50.000        67
50.010        53
50.020        40
50.030        40
50.040        40
50.050        87
50.060        47
50.070        60
50.080        40
50.090        47
50.100        60
50.110        47
50.120        53
50.130        47
50.140        47
50.150        73
50.160        60
50.170        53
50.180        47
50.190        80
50.200        53
50.210        53
50.220        60
50.230        40
50.240        47
50.250        53
50.260        40
50.270        80
50.280        53
50.290        60
50.300        60
50.310        53
50.320        33
50.330        73
50.340        13
50.350        67
50.360        80
50.370        47
50.380        47
50.390        67
50.400        40
50.410        67
50.420        47
50.430        47
50.440        93
50.450        80
50.460        67
50.470        67
50.480        47
50.490        60
50.500        73
50.510       100
50.520        47
50.530        33
50.540        47
50.550        53
50.560        33
50.570        47
50.580        33
50.590       107
50.600       100
50.610        33
50.620       107
50.630        93
50.640       107
50.650       113
50.660       200
50.670        73
50.680       107
50.690       180
50.700       247
50.710       300
50.720       333
50.730       327
50.740       413
50.750       340
50.760       513
50.770       446
50.780       460
50.790       540
50.800       533
50.810       593
50.820       526
50.830       453
50.840       580
50.850       593
50.860       486
50.870       473
50.880       533
50.890       380
50.900       453
50.910       586
50.920       533
50.930       586
50.940       506
50.950       620
50.960       493
50.970       373
50.980       466
50.990       540
51.000       553
51.010       420
51.020       393
51.030       466
51.040       446
51.050       573
51.060       493
51.070       493
51.080       566
51.090       720
51.100       473
51.110       546
51.120       526
51.130       573
51.140       546
51.150       513
51.160       520
51.170       446
51.180       540
51.190       453
51.200       526
51.210       486
51.220       613
51.230       466
51.240       613
51.250       580
51.260       560
51.270       573
51.280       473
51.290       420
51.300       586
51.310       526
51.320       493
51.330       640
51.340       626
51.350       480
51.360       526
51.370       586
51.380       613
51.390       560
51.400       646
51.410       526
51.420       520
51.430       420
51.440       566
51.450       540
51.460       580
51.470       620
51.480       546
51.490       566
51.500       506
51.510       600
51.520       520
51.530       526
51.540       533
51.550       480
51.560       613
51.570       646
51.580       566
51.590       660
51.600       513
51.610       526
51.620       620
51.630       613
51.640       506
51.650       573
51.660       540
51.670       586
51.680       653
51.690       513
51.700       646
51.710       486
51.720       580
51.730       586
51.740       720
51.750       553
51.760       546
51.770       620
51.780       560
51.790       646
51.800       566
51.810       586
51.820       633
51.830       580
51.840       660
51.850       680
51.860       700
51.870       613
51.880       760
51.890       646
51.900       546
51.910       660
51.920       606
51.930       800
51.940       646
51.950       793
51.960       720
51.970       600
51.980       733
51.990       693
52.000       686
52.010       746
52.020       786
52.030       666
52.040       680
52.050       693
52.060       920
52.070       893
52.080       793
52.090       840
52.100       733
52.110       886
52.120       740
52.130       933
52.140      1000
52.150       980
52.160      1053
52.170       880
52.180      1113
52.190       940
52.200      1073
52.210      1026
52.220      1080
52.230      1046
52.240      1233
52.250      1240
52.260      1246
52.270      1459
52.280      1366
52.290      1533
52.300      1573
52.310      1939
52.320      2092
52.330      2439
52.340      2692
52.350      3019
52.360      3065
52.370      3878
52.380      4118
52.390      4398
52.400      4538
52.410      5278
52.420      5704
52.430      6124
52.440      6877
52.450      7537
52.460      8577
52.470      9236
52.480     10129
52.490     11855
52.500     12648
52.510     13934
52.520     14621
52.530     16740
52.540     19006
52.550     22698
52.560     28429
52.570     42043
52.580     65940
52.590    104525
52.600    148960
52.610    182081
52.620    202286
52.630    210942
52.640    210962
52.650    207377
52.660    188831
52.670    155544
52.680    114854
52.690     78115
52.700     56584
52.710     48754
52.720     54365
52.730     71911
52.740     92863
52.750    113108
52.760    126689
52.770    131981
52.780    132940
52.790    127029
52.800    113035
52.810     90950
52.820     65394
52.830     42596
52.840     27876
52.850     19566
52.860     14348
52.870     12402
52.880     10702
52.890      9183
52.900      9316
52.910      8143
52.920      7284
52.930      6417
52.940      5818
52.950      4971
52.960      3905
52.970      3339
52.980      2985
52.990      2546
53.000      2492
53.010      2086
53.020      2006
53.030      1766
53.040      1999
53.050      1766
53.060      1653
53.070      1513
53.080      1439
53.090      1513
53.100      1346
53.110      1426
53.120      1333
53.130      1246
53.140      1086
53.150      1100
53.160      1133
53.170      1093
53.180      1100
53.190      1093
53.200      1066
53.210      1046
53.220      1020
53.230      1140
53.240      1060
53.250       886
53.260       980
53.270      1000
53.280      1133
53.290       920
53.300       940
53.310       853
53.320       813
53.330       880
53.340       900
53.350       753
53.360       786
53.370       780
53.380       820
53.390       680
53.400       773
53.410       940
53.420       700
53.430       633
53.440       626
53.450       740
53.460       680
53.470       653
53.480       706
53.490       753
53.500       513
53.510       600
53.520       626
53.530       626
53.540       700
53.550       713
53.560       680
53.570       553
53.580       573
53.590       553
53.600       586
53.610       700
53.620       660
53.630       613
53.640       606
53.650       593
53.660       500
53.670       533
53.680       680
53.690       573
53.700       593
53.710       673
53.720       706
53.730       660
53.740       546
53.750       620
53.760       513
53.770       393
53.780       526
53.790       693
53.800       513
53.810       513
53.820       460
53.830       493
53.840       520
53.850       593
53.860       540
53.870       520
53.880       560
53.890       606
53.900       566
53.910       533
53.920       506
53.930       446
53.940       433
53.950       480
53.960       486
53.970       506
53.980       420
53.990       446
54.000       486
54.010       493
54.020       506
54.030       393
54.040       566
54.050       446
54.060       360
54.070       426
54.080       420
54.090       486
54.100       400
54.110       480
54.120       413
54.130       440
54.140       340
54.150       373
54.160       293
54.170       420
54.180       373
54.190       387
54.200       460
54.210       413
54.220       580
54.230       413
54.240       387
54.250       300
54.260       420
54.270       453
54.280       360
54.290       367
54.300       440
54.310       446
54.320       420
54.330       433
54.340       460
54.350       466
54.360       347
54.370       506
54.380       393
54.390       353
54.400       393
54.410       440
54.420       440
54.430       373
54.440       420
54.450       433
54.460       440
54.470       393
54.480       400
54.490       446
54.500       380
54.510       426
54.520       387
54.530       393
54.540       400
54.550       287
54.560       347
54.570       413
54.580       446
54.590       413
54.600       353
54.610       327
54.620       360
54.630       327
54.640       347
54.650       360
54.660       313
54.670       426
54.680       453
54.690       380
54.700       387
54.710       327
54.720       373
54.730       360
54.740       320
54.750       347
54.760       340
54.770       520
54.780       333
54.790       347
54.800       360
54.810       413
54.820       313
54.830       353
54.840       353
54.850       400
54.860       333
54.870       353
54.880       400
54.890       320
54.900       380
54.910       300
54.920       347
54.930       293
54.940       373
54.950       307
54.960       300
54.970       340
54.980       347
54.990       307
55.000       353
55.010       373
55.020       307
55.030       400
55.040       293
55.050       407
55.060       300
55.070       380
55.080       400
55.090       373
55.100       347
55.110       367
55.120       387
55.130       340
55.140       413
55.150       347
55.160       407
55.170       387
55.180       333
55.190       320
55.200       400
55.210       347
55.220       340
55.230       373
55.240       300
55.250       327
55.260       313
55.270       293
55.280       367
55.290       327
55.300       360
55.310       327
55.320       387
55.330       260
55.340       300
55.350       360
55.360       393
55.370       280
55.380       300
55.390       367
55.400       353
55.410       220
55.420       260
55.430       347
55.440       327
55.450       393
55.460       333
55.470       320
55.480       273
55.490       313
55.500       293
55.510       340
55.520       307
55.530       307
55.540       353
55.550       300
55.560       340
55.570       327
55.580       360
55.590       213
55.600       313
55.610       353
55.620       353
55.630       420
55.640       300
55.650       313
55.660       273
55.670       280
55.680       187
55.690       307
55.700       327
55.710       300
55.720       307
55.730       293
55.740       307
55.750       340
55.760       260
55.770       360
55.780       260
55.790       267
55.800       247
55.810       253
55.820       247
55.830       260
55.840       293
55.850       340
55.860       347
55.870       313
55.880       307
55.890       300
55.900       380
55.910       253
55.920       267
55.930       207
55.940       253
55.950       300
55.960       320
55.970       333
55.980       340
55.990       180
56.000       313
56.010       380
56.020       293
56.030       393
56.040       220
56.050       300
56.060       247
56.070       313
56.080       247
56.090       327
56.100       280
56.110       287
56.120       260
56.130       287
56.140       353
56.150       240
56.160       287
56.170       287
56.180       253
56.190       227
56.200       387
56.210       280
56.220       293
56.230       267
56.240       273
56.250       267
56.260       233
56.270       213
56.280       293
56.290       207
56.300       227
56.310       247
56.320       287
56.330       280
56.340       307
56.350       273
56.360       267
56.370       267
56.380       240
56.390       320
56.400       233
56.410       260
56.420       307
56.430       213
56.440       267
56.450       253
56.460       293
56.470       227
56.480       240
56.490       287
56.500       267
56.510       253
56.520       307
56.530       253
56.540       293
56.550       213
56.560       307
56.570       287
56.580       213
56.590       253
56.600       253
56.610       307
56.620       313
56.630       167
56.640       300
56.650       347
56.660       213
56.670       280
56.680       260
56.690       253
56.700       253
56.710       220
56.720       260
56.730       200
56.740       187
56.750       333
56.760       220
56.770       260
56.780       307
56.790       280
56.800       287
56.810       260
56.820       240
56.830       293
56.840       273
56.850       340
56.860       247
56.870       233
56.880       280
56.890       293
56.900       247
56.910       240
56.920       287
56.930       253
56.940       247
56.950       220
56.960       233
56.970       207
56.980       260
56.990       220
57.000       207
57.010       293
57.020       267
57.030       267
57.040       267
57.050       260
57.060       307
57.070       340
57.080       220
57.090       267
57.100       173
57.110       267
57.120       260
57.130       280
57.140       300
57.150       367
57.160       267
57.170       353
57.180       300
57.190       287
57.200       287
57.210       260
57.220       313
57.230       207
57.240       287
57.250       233
57.260       200
57.270       333
57.280       227
57.290       267
57.300       240
57.310       213
57.320       307
57.330       267
57.340       200
57.350       280
57.360       220
57.370       307
57.380       240
57.390       280
57.400       273
57.410       200
57.420       287
57.430       287
57.440       287
57.450       313
57.460       247
57.470       240
57.480       247
57.490       213
57.500       280
57.510       240
57.520       293
57.530       247
57.540       300
57.550       293
57.560       280
57.570       373
57.580       180
57.590       160
57.600       307
57.610       280
57.620       293
57.630       220
57.640       240
57.650       293
57.660       280
57.670       227
57.680       213
57.690       220
57.700       267
57.710       293
57.720       180
57.730       227
57.740       207
57.750       273
57.760       193
57.770       193
57.780       193
57.790       193
57.800       253
57.810       280
57.820       247
57.830       260
57.840       273
57.850       187
57.860       227
57.870       227
57.880       233
57.890       227
57.900       213
57.910       193
57.920       233
57.930       213
57.940       187
57.950       260
57.960       220
57.970       187
57.980       240
57.990       233
58.000       187
58.010       193
58.020       233
58.030       153
58.040       193
58.050       227
58.060       187
58.070       287
58.080        73
58.090       213
58.100       160
58.110       173
58.120       327
58.130       167
58.140       233
58.150       187
58.160       207
58.170       280
58.180       300
58.190       180
58.200       227
58.210       180
58.220       200
58.230       273
58.240       253
58.250       200
58.260       200
58.270       213
58.280       213
58.290       280
58.300       227
58.310       187
58.320       173
58.330       253
58.340       273
58.350       233
58.360       247
58.370       180
58.380       173
58.390       207
58.400       233
58.410       273
58.420       207
58.430       180
58.440       140
58.450       280
58.460       227
58.470       173
58.480       227
58.490       173
58.500       193
58.510       280
58.520       287
58.530       200
58.540       280
58.550       253
58.560       227
58.570       220
58.580       213
58.590       253
58.600       247
58.610       220
58.620       173
58.630       187
58.640       187
58.650       147
58.660       267
58.670       173
58.680       173
58.690       147
58.700       273
58.710       187
58.720       200
58.730       227
58.740       193
58.750       180
58.760       220
58.770       113
58.780       207
58.790       240
58.800       193
58.810       207
58.820       247
58.830       167
58.840       180
58.850       253
58.860       147
58.870       193
58.880       227
58.890       187
58.900       133
58.910       200
58.920       187
58.930       160
58.940       260
58.950       213
58.960       260
58.970       213
58.980       193
58.990       193
59.000       233
59.010       227
59.020       220
59.030       180
59.040       233
59.050       153
59.060       127
59.070       167
59.080       187
59.090       180
59.100       213
59.110       127
59.120       207
59.130       120
59.140       207
59.150       180
59.160       187
59.170       133
59.180       233
59.190       180
59.200       247
59.210       120
59.220       200
59.230       213
59.240       127
59.250       180
59.260       187
59.270       187
59.280       180
59.290       207
59.300       207
59.310       247
59.320       193
59.330       147
59.340       227
59.350       207
59.360       220
59.370       220
59.380       153
59.390       200
59.400       113
59.410       153
59.420       180
59.430       207
59.440       140
59.450       233
59.460       140
59.470       140
59.480       227
59.490       187
59.500       167
59.510       187
59.520       180
59.530       207
59.540       220
59.550       187
59.560       220
59.570       153
59.580       147
59.590       207
59.600       147
59.610       147
59.620       160
59.630       160
59.640       280
59.650       140
59.660       167
59.670       180
59.680       167
59.690       173
59.700       200
59.710       200
59.720       193
59.730       200
59.740       193
59.750       167
59.760       233
59.770       173
59.780       147
59.790       227
59.800       193
59.810       160
59.820       187
59.830       187
59.840       213
59.850       207
59.860       213
59.870       187
59.880       180
59.890       113
59.900       147
59.910       140
59.920       167
59.930       160
59.940       173
59.950       213
59.960       113
59.970       173
59.980       147
59.990       160
60.000       133
