20.000        13
20.010        13
20.020        33
20.030        67
20.040        40
20.050        47
20.060        40
20.070        47
20.080        13
20.090        33
20.100        40
20.110        40
20.120        47
20.130        33
20.140        40
20.150        20
20.160        67
20.170        27
20.180        33
20.190        40
20.200        53
20.210        53
20.220        33
20.230        20
20.240        80
20.250        67
20.260        40
20.270        53
20.280        20
20.290        27
20.300        40
20.310        40
20.320        40
20.330        53
20.340        47
20.350        13
20.360        53
20.370        27
20.380        53
20.390        33
20.400        27
20.410        33
20.420        33
20.430        27
20.440        33
20.450        73
20.460        33
20.470        33
20.480        40
20.490        33
20.500        40
20.510        13
20.520        27
20.530        40
20.540        47
20.550        40
20.560        53
20.570        33
20.580        33
20.590        20
20.600        53
20.610        40
20.620        33
20.630        40
20.640        13
20.650        20
20.660        53
20.670        53
20.680        27
20.690        20
20.700        40
20.710        27
20.720        13
20.730        27
20.740        40
20.750        60
20.760        53
20.770        47
20.780        53
20.790        40
20.800        27
20.810        20
20.820        60
20.830        40
20.840        40
20.850        20
20.860        20
20.870        13
20.880        20
20.890        20
20.900        73
20.910        13
20.920        67
20.930        47
20.940        47
20.950        47
20.960        40
20.970       120
20.980        67
20.990        33
21.000        60
21.010        33
21.020        20
21.030        40
21.040        40
21.050        33
21.060        33
21.070        47
21.080        60
21.090        53
21.100        13
21.110        53
21.120        40
21.130        47
21.140        73
21.150        20
21.160        53
21.170        40
21.180        20
21.190        47
21.200        47
21.210        47
21.220        53
21.230        47
21.240        40
21.250        27
21.260        47
21.270        53
21.280        20
21.290        60
21.300        27
21.310        13
21.320        40
21.330        20
21.340        20
21.350        27
21.360        73
21.370        53
21.380        53
21.390        20
21.400        40
21.410        27
21.420        60
21.430        27
21.440        60
21.450        27
21.460        27
21.470        40
21.480        40
21.490        73
21.500        20
21.510        33
21.520        47
21.530        27
21.540        13
21.550        47
21.560        47
21.570        27
21.580        20
21.590        20
21.600        20
21.610        47
21.620        73
21.630        60
21.640        20
21.650        13
21.660        33
21.670        27
21.680        47
21.690        40
21.700        13
21.710        27
21.720        40
21.730        47
21.740        27
21.750        80
21.760        53
21.770        20
21.780        73
21.790        27
21.800        33
21.810        40
21.820        53
21.830        47
21.840        13
21.850        40
21.860         0
21.870         7
21.880        33
21.890        47
21.900        73
21.910        40
21.920        40
21.930        27
21.940        40
21.950        20
21.960        13
21.970        27
21.980        40
21.990        40
22.000        47
22.010        47
22.020        73
22.030        13
22.040        20
22.050        33
22.060        33
22.070        53
22.080        60
22.090        33
22.100        80
22.110        13
22.120        13
22.130        33
22.140        20
22.150        13
22.160        27
22.170        13
22.180        27
22.190        20
22.200        27
22.210        20
22.220        40
22.230         0
22.240        40
22.250        40
22.260        27
22.270        13
22.280        20
22.290        20
22.300        33
22.310        20
22.320        27
22.330        47
22.340         7
22.350        53
22.360        33
22.370        67
22.380        27
22.390         7
22.400        67
22.410        47
22.420        47
22.430        87
22.440        20
22.450        47
22.460        47
22.470        27
22.480        13
22.490        40
22.500        47
22.510        27
22.520        67
22.530        20
22.540        27
22.550        40
22.560        47
22.570        40
22.580        53
22.590        40
22.600        60
22.610        53
22.620        33
22.630        60
22.640        73
22.650        33
22.660        20
22.670        27
22.680        60
22.690        40
22.700        80
22.710        73
22.720        53
22.730        60
22.740        67
22.750        53
22.760        47
22.770        80
22.780        27
22.790        33
22.800        73
22.810        40
22.820        67
22.830        33
22.840        27
22.850        27
22.860        53
22.870        40
22.880        20
22.890        60
22.900        53
22.910        53
22.920        53
22.930        47
22.940        40
22.950        27
22.960        33
22.970        53
22.980        40
22.990        53
23.000        47
23.010        40
23.020        33
23.030        27
23.040        27
23.050        47
23.060        80
23.070        73
23.080        33
23.090        33
23.100        20
23.110        53
23.120        33
23.130        33
23.140        20
23.150        47
23.160        40
23.170        13
23.180        47
23.190        20
23.200        20
23.210        40
23.220        33
23.230        40
23.240        20
23.250        33
23.260        27
23.270        47
23.280        33
23.290        67
23.300        20
23.310        40
23.320        60
23.330        53
23.340        40
23.350        20
23.360        53
23.370        33
23.380        33
23.390        40
23.400        60
23.410        13
23.420        33
23.430        40
23.440        13
23.450        27
23.460        33
23.470        33
23.480        27
23.490         7
23.500        33
23.510        40
23.520        53
23.530        47
23.540        33
23.550        53
23.560        40
23.570        27
23.580        20
23.590        40
23.600        20
23.610        27
23.620        47
23.630        40
23.640        47
23.650        40
23.660        20
23.670        40
23.680        20
23.690        27
23.700        60
23.710        33
23.720        27
23.730        47
23.740        53
23.750        33
23.760        33
23.770        20
23.780        60
23.790         7
23.800        53
23.810        27
23.820         7
23.830        33
23.840        60
23.850        27
23.860        33
23.870        33
23.880        47
23.890         7
23.900        27
23.910        20
23.920        33
23.930        33
23.940        13
23.950        13
23.960        33
23.970        20
23.980        40
23.990        27
24.000        53
24.010        20
24.020        27
24.030        27
24.040        60
24.050        27
24.060        47
24.070        27
24.080        47
24.090         7
24.100        60
24.110        27
24.120        67
24.130        13
24.140        47
24.150        27
24.160        47
24.170        33
24.180        33
24.190        20
24.200        20
24.210        60
24.220        47
24.230        27
24.240        20
24.250        20
24.260        20
24.270        40
24.280        40
24.290        47
24.300        47
24.310        13
24.320         0
24.330        20
24.340        47
24.350        13
24.360        33
24.370        47
24.380        20
24.390        27
24.400        33
24.410        27
24.420        13
24.430        33
24.440        40
24.450        47
24.460        27
24.470        27
24.480        27
24.490        13
24.500        60
24.510        47
24.520        27
24.530        47
24.540        27
24.550        33
24.560        33
24.570        27
24.580        53
24.590        20
24.600        40
24.610        60
24.620        47
24.630        40
24.640        27
24.650        40
24.660        20
24.670        27
24.680        60
24.690        53
24.700        27
24.710        33
24.720        33
24.730        53
24.740        33
24.750        60
24.760        13
24.770        40
24.780        20
24.790        27
24.800        33
24.810        33
24.820        27
24.830        40
24.840        33
24.850        40
24.860        40
24.870        27
24.880        53
24.890        20
24.900        27
24.910        53
24.920        13
24.930        53
24.940        20
24.950        47
24.960        27
24.970        73
24.980        47
24.990         0
25.000        47
25.010        27
25.020        20
25.030        27
25.040        47
25.050        27
25.060        20
25.070        20
25.080        13
25.090        27
25.100        33
25.110        27
25.120        20
25.130        33
25.140        13
25.150        13
25.160        27
25.170        20
25.180        73
25.190        40
25.200        47
25.210        20
25.220        40
25.230        13
25.240        33
25.250        27
25.260        20
25.270        40
25.280        27
25.290        33
25.300        27
25.310        27
25.320        13
25.330        27
25.340        47
25.350        40
25.360        47
25.370        40
25.380        40
25.390        33
25.400        40
25.410        40
25.420        27
25.430        40
25.440        20
25.450        40
25.460        47
25.470        60
25.480        60
25.490        27
25.500        40
25.510        13
25.520        40
25.530        27
25.540        33
25.550        60
25.560        87
25.570        80
25.580        73
25.590        80
25.600       113
25.610       127
25.620       127
25.630       133
25.640        73
25.650       120
25.660       127
25.670        80
25.680       133
25.690       100
25.700       100
25.710       107
25.720        73
25.730        67
25.740        40
25.750       107
25.760        53
25.770        40
25.780        40
25.790        53
25.800        93
25.810        47
25.820        53
25.830        67
25.840        20
25.850        60
25.860        67
25.870        27
25.880        67
25.890        60
25.900        60
25.910        67
25.920        93
25.930        40
25.940        47
25.950        40
25.960        20
25.970        40
25.980        13
25.990        60
26.000        33
26.010        20
26.020        27
26.030        20
26.040        33
26.050        20
26.060        40
26.070        47
26.080        53
26.090        13
26.100        40
26.110        27
26.120        27
26.130        60
26.140        40
26.150        33
26.160        47
26.170        40
26.180        40
26.190        20
26.200        27
26.210        20
26.220        47
26.230         7
26.240        33
26.250        33
26.260        40
26.270        20
26.280        20
26.290        20
26.300        40
26.310        27
26.320        27
26.330        13
26.340        33
26.350        47
26.360        27
26.370        13
26.380        80
26.390        27
26.400        33
26.410        20
26.420        33
26.430        60
26.440        27
26.450        13
26.460        20
26.470        20
26.480        40
26.490        40
26.500        33
26.510        33
26.520         7
26.530         7
26.540        20
26.550        33
26.560         7
26.570        53
26.580        33
26.590        40
26.600        13
26.610        13
26.620        13
26.630        13
26.640        20
26.650        40
26.660        33
26.670        40
26.680        13
26.690        40
26.700        20
26.710        40
26.720         7
26.730        40
26.740         7
26.750        27
26.760        33
26.770        40
26.780        27
26.790        33
26.800        13
26.810        47
26.820        47
26.830        13
26.840        33
26.850        20
26.860        47
26.870        53
26.880        13
26.890        20
26.900         7
26.910         0
26.920        27
26.930         0
26.940        33
26.950        20
26.960        33
26.970        27
26.980        33
26.990        40
27.000         7
27.010        13
27.020        13
27.030         7
27.040        20
27.050        13
27.060        20
27.070        40
27.080        33
27.090        33
27.100        27
27.110        40
27.120        20
27.130        47
27.140        40
27.150        40
27.160        27
27.170        33
27.180        27
27.190        27
27.200        20
27.210        33
27.220        33
27.230        27
27.240        27
27.250        33
27.260         0
27.270        27
27.280        67
27.290        27
27.300        40
27.310        40
27.320        13
27.330        33
27.340        27
27.350         7
27.360        33
27.370        27
27.380        27
27.390        53
27.400        27
27.410        13
27.420        33
27.430        13
27.440        20
27.450        20
27.460        20
27.470        27
27.480        27
27.490        20
27.500        40
27.510        40
27.520        53
27.530         7
27.540        40
27.550        33
27.560        60
27.570        47
27.580        20
27.590        27
27.600        13
27.610        20
27.620        27
27.630        27
27.640        33
27.650        53
27.660        27
27.670        53
27.680        13
27.690        27
27.700        13
27.710        20
27.720        67
27.730        47
27.740        53
27.750        60
27.760        13
27.770        67
27.780        40
27.790        73
27.800        67
27.810        27
27.820        33
27.830        67
27.840        53
27.850        53
27.860        93
27.870        73
27.880        67
27.890       107
27.900        80
27.910        87
27.920        53
27.930        60
27.940        47
27.950        47
27.960        47
27.970        33
27.980        60
27.990        47
28.000        47
28.010        80
28.020        40
28.030        40
28.040        33
28.050        47
28.060        53
28.070        47
28.080        33
28.090        27
28.100        13
28.110        27
28.120         0
28.130        47
28.140        33
28.150        13
28.160        47
28.170        27
28.180        13
28.190        13
28.200        47
28.210         7
28.220        33
28.230        33
28.240        47
28.250        33
28.260         7
28.270        27
28.280        40
28.290        20
28.300        13
28.310        33
28.320        20
28.330        13
28.340        20
28.350        27
28.360        40
28.370        47
28.380        20
28.390        20
28.400        40
28.410        33
28.420        53
28.430        27
28.440        20
28.450        40
28.460         7
28.470         7
28.480        20
28.490        27
28.500        13
28.510        20
28.520        33
28.530        40
28.540        33
28.550        47
28.560        33
28.570        20
28.580        20
28.590        47
28.600        40
28.610        20
28.620        33
28.630        47
28.640        27
28.650        27
28.660        47
28.670        20
28.680        33
28.690        53
28.700        27
28.710        53
28.720        33
28.730        20
28.740        27
28.750        20
28.760        33
28.770        60
28.780        27
28.790        87
28.800        73
28.810        73
28.820        53
28.830        73
28.840        87
28.850        93
28.860        80
28.870        67
28.880       113
28.890        93
28.900       100
28.910       120
28.920       120
28.930       153
28.940       167
28.950       220
28.960       180
28.970        87
28.980       180
28.990       153
29.000       187
29.010       207
29.020       193
29.030       133
29.040       200
29.050       260
29.060       233
29.070       293
29.080       167
29.090       280
29.100       253
29.110       353
29.120       347
29.130       293
29.140       247
29.150       253
29.160       280
29.170       240
29.180       233
29.190       267
29.200       147
29.210       133
29.220       187
29.230       133
29.240       120
29.250        67
29.260       127
29.270        80
29.280       113
29.290        80
29.300        87
29.310        33
29.320        47
29.330        67
29.340        53
29.350        27
29.360        33
29.370        60
29.380        40
29.390        33
29.400        47
29.410        40
29.420        33
29.430        47
29.440        33
29.450        53
29.460        33
29.470        13
29.480        27
29.490        53
29.500        27
29.510        47
29.520        20
29.530        27
29.540        73
29.550        33
29.560        33
29.570        20
29.580        53
29.590        80
29.600        60
29.610        67
29.620        93
29.630        93
29.640        47
29.650        87
29.660        73
29.670        47
29.680        47
29.690        53
29.700        60
29.710        40
29.720        60
29.730        20
29.740        40
29.750        33
29.760        67
29.770        33
29.780        33
29.790        20
29.800        27
29.810        33
29.820         7
29.830        47
29.840        33
29.850        27
29.860        33
29.870        27
29.880        27
29.890        40
29.900        13
29.910        20
29.920        27
29.930         7
29.940        40
29.950        40
29.960        13
29.970        40
29.980        27
29.990        33
30.000        60
30.010         7
30.020        33
30.030        27
30.040        27
30.050        13
30.060        27
30.070        20
30.080        13
30.090         7
30.100        33
30.110        20
30.120        13
30.130        60
30.140        33
30.150        33
30.160        13
30.170        60
30.180        53
30.190         7
30.200        33
30.210        27
30.220         7
30.230         7
30.240        20
30.250        13
30.260        20
30.270        60
30.280        33
30.290        20
30.300         7
30.310        40
30.320        33
30.330        13
30.340        40
30.350        73
30.360        33
30.370        13
30.380        40
30.390        33
30.400        13
30.410        27
30.420        27
30.430        20
30.440        20
30.450        40
30.460        40
30.470        53
30.480        20
30.490        27
30.500         0
30.510        47
30.520        27
30.530        13
30.540        20
30.550        20
30.560        53
30.570        53
30.580        27
30.590        73
30.600        80
30.610        67
30.620        40
30.630        40
30.640        47
30.650        40
30.660        47
30.670        13
30.680        13
30.690        40
30.700        40
30.710        60
30.720        13
30.730        20
30.740        20
30.750        20
30.760         7
30.770        13
30.780        20
30.790        20
30.800        13
30.810        27
30.820         7
30.830        20
30.840        13
30.850        13
30.860        33
30.870        20
30.880         7
30.890        27
30.900        33
30.910        20
30.920        27
30.930        20
30.940        33
30.950        33
30.960         7
30.970        33
30.980        33
30.990        13
31.000        33
31.010        47
31.020        33
31.030         7
31.040        20
31.050        20
31.060        33
31.070         7
31.080        40
31.090        33
31.100        13
31.110        33
31.120        20
31.130        40
31.140        13
31.150        47
31.160        13
31.170        13
31.180        13
31.190        27
31.200        33
31.210        47
31.220        33
31.230        20
31.240        13
31.250        13
31.260        20
31.270        27
31.280        40
31.290        40
31.300        33
31.310        47
31.320        53
31.330        33
31.340        27
31.350        40
31.360        33
31.370        53
31.380        60
31.390        20
31.400        40
31.410        40
31.420        47
31.430        33
31.440        33
31.450        33
31.460        27
31.470        20
31.480        53
31.490        27
31.500        20
31.510        60
31.520        53
31.530        20
31.540        47
31.550        60
31.560        47
31.570        27
31.580        40
31.590        20
31.600        27
31.610        20
31.620        20
31.630        20
31.640        27
31.650        13
31.660        13
31.670        13
31.680        40
31.690        40
31.700        33
31.710        60
31.720        13
31.730        20
31.740        13
31.750        40
31.760        13
31.770        33
31.780        27
31.790        33
31.800        20
31.810        13
31.820         7
31.830         0
31.840        13
31.850        27
31.860        13
31.870         7
31.880        13
31.890         7
31.900        13
31.910        40
31.920        33
31.930        27
31.940        53
31.950        40
31.960        33
31.970        27
31.980         0
31.990         7
32.000        40
32.010        13
32.020        20
32.030        33
32.040        13
32.050        27
32.060        20
32.070        13
32.080        27
32.090        13
32.100        27
32.110        20
32.120        47
32.130        47
32.140        53
32.150        40
32.160        40
32.170        33
32.180        67
32.190        53
32.200        60
32.210        53
32.220        47
32.230        60
32.240        60
32.250        87
32.260        93
32.270        33
32.280        47
32.290        80
32.300       107
32.310        60
32.320        60
32.330        47
32.340        73
32.350        80
32.360        60
32.370        67
32.380        60
32.390        60
32.400         7
32.410        53
32.420        20
32.430        67
32.440        47
32.450        33
32.460        27
32.470        33
32.480        40
32.490        47
32.500        13
32.510        27
32.520        20
32.530        20
32.540        60
32.550        27
32.560        33
32.570        40
32.580        13
32.590        13
32.600        67
32.610        47
32.620        27
32.630        60
32.640        20
32.650        27
32.660        27
32.670        20
32.680        87
32.690        47
32.700        40
32.710        33
32.720        73
32.730        40
32.740        60
32.750        53
32.760        27
32.770        60
32.780        40
32.790        40
32.800        67
32.810        47
32.820        33
32.830        47
32.840        33
32.850        20
32.860        27
32.870        27
32.880        33
32.890        27
32.900        27
32.910        40
32.920        33
32.930        27
32.940        20
32.950         7
32.960        40
32.970        27
32.980        27
32.990        40
33.000        27
33.010        13
33.020        40
33.030        20
33.040         7
33.050        20
33.060        20
33.070        20
33.080         7
33.090        20
33.100        27
33.110         7
33.120        33
33.130        13
33.140        20
33.150        27
33.160        13
33.170        27
33.180        13
33.190        13
33.200        40
33.210        40
33.220        20
33.230        53
33.240        20
33.250        40
33.260        20
33.270         7
33.280        13
33.290         7
33.300        40
33.310         7
33.320        13
33.330        13
33.340        20
33.350        33
33.360        20
33.370         7
33.380        27
33.390        27
33.400        53
33.410        13
33.420        27
33.430        13
33.440        13
33.450        40
33.460         7
33.470         7
33.480         7
33.490        27
33.500        27
33.510        33
33.520        13
33.530         7
33.540        13
33.550        40
33.560        33
33.570        27
33.580         7
33.590        13
33.600        20
33.610         7
33.620        13
33.630        20
33.640        33
33.650        20
33.660        27
33.670        47
33.680        60
33.690         7
33.700        13
33.710        27
33.720        13
33.730        33
33.740        13
33.750        20
33.760        40
33.770        33
33.780        27
33.790        20
33.800        20
33.810        40
33.820         0
33.830        13
33.840        27
33.850        13
33.860        33
33.870         0
33.880         7
33.890        33
33.900        27
33.910        13
33.920        47
33.930        27
33.940        20
33.950        47
33.960        33
33.970         7
33.980        33
33.990        13
34.000         7
34.010        20
34.020        40
34.030        33
34.040        13
34.050        33
34.060        27
34.070        13
34.080        13
34.090        13
34.100        27
34.110        13
34.120        13
34.130        13
34.140         0
34.150        33
34.160        27
34.170        33
34.180         7
34.190        20
34.200        20
34.210        20
34.220        33
34.230        13
34.240         0
34.250        13
34.260        20
34.270        27
34.280        33
34.290        13
34.300        27
34.310        20
34.320        27
34.330        20
34.340        13
34.350        13
34.360         7
34.370        27
34.380        33
34.390        20
34.400        20
34.410        20
34.420        20
34.430        27
34.440        13
34.450        27
34.460        27
34.470        47
34.480        13
34.490        40
34.500        20
34.510        40
34.520         0
34.530        40
34.540        47
34.550        40
34.560        33
34.570        40
34.580        20
34.590        47
34.600        27
34.610        40
34.620        33
34.630        20
34.640        47
34.650        33
34.660        27
34.670        27
34.680        33
34.690        20
34.700        27
34.710        47
34.720         7
34.730         7
34.740        20
34.750        27
34.760        27
34.770        27
34.780        20
34.790         7
34.800        20
34.810        27
34.820        33
34.830        33
34.840         7
34.850         7
34.860        47
34.870        33
34.880        27
34.890        13
34.900        27
34.910         0
34.920        13
34.930        33
34.940        20
34.950        13
34.960         0
34.970        13
34.980        27
34.990        53
35.000        27
35.010        20
35.020        27
35.030         7
35.040        20
35.050        20
35.060        13
35.070        33
35.080         7
35.090        20
35.100        27
35.110        27
35.120        33
35.130        27
35.140        20
35.150        13
35.160        13
35.170        40
35.180         0
35.190        40
35.200        33
35.210        27
35.220        20
35.230        13
35.240         7
35.250        20
35.260         7
35.270        20
35.280        13
35.290        40
35.300        13
35.310        13
35.320        27
35.330        27
35.340        20
35.350        33
35.360        20
35.370        20
35.380        20
35.390         7
35.400        13
35.410        20
35.420         7
35.430        20
35.440         0
35.450        40
35.460        20
35.470        13
35.480        27
35.490         7
35.500        20
35.510        20
35.520         0
35.530        27
35.540        20
35.550         7
35.560        33
35.570         7
35.580        20
35.590        13
35.600        20
35.610         7
35.620        13
35.630        13
35.640        33
35.650        13
35.660        27
35.670        33
35.680        27
35.690        13
35.700        20
35.710        20
35.720        13
35.730        20
35.740        27
35.750        53
35.760        33
35.770         7
35.780        40
35.790        13
35.800        33
35.810         7
35.820         7
35.830        27
35.840        27
35.850        40
35.860        20
35.870        40
35.880         0
35.890        13
35.900        13
35.910        20
35.920        27
35.930        20
35.940         7
35.950        13
35.960        27
35.970        20
35.980        13
35.990         7
36.000        27
36.010         7
36.020        27
36.030         7
36.040        13
36.050        27
36.060         7
36.070        13
36.080        13
36.090        13
36.100        20
36.110        27
36.120        27
36.130        13
36.140        33
36.150        13
36.160        53
36.170         0
36.180        40
36.190        20
36.200        20
36.210        13
36.220        13
36.230         7
36.240         0
36.250        13
36.260        27
36.270        20
36.280        20
36.290        13
36.300        27
36.310        20
36.320        20
36.330        13
36.340         7
36.350        13
36.360        47
36.370        53
36.380        20
36.390         7
36.400        33
36.410        20
36.420         7
36.430        40
36.440        60
36.450        53
36.460        47
36.470        33
36.480        13
36.490        47
36.500        33
36.510        40
36.520        20
36.530        40
36.540        27
36.550        33
36.560        47
36.570        27
36.580        47
36.590        13
36.600        40
36.610        33
36.620        13
36.630        20
36.640        40
36.650        27
36.660        20
36.670         0
36.680         0
36.690         0
36.700        13
36.710         7
36.720        27
36.730        13
36.740        13
36.750        20
36.760        13
36.770        13
36.780         7
36.790         7
36.800        13
36.810        47
36.820        20
36.830         7
36.840        20
36.850        33
36.860        27
36.870        33
36.880        20
36.890        33
36.900        27
36.910        27
36.920        20
36.930        20
36.940         7
36.950        13
36.960        27
36.970        27
36.980        13
36.990        20
37.000        20
37.010        13
37.020        13
37.030        20
37.040        33
37.050         7
37.060        13
37.070        20
37.080        20
37.090        27
37.100        13
37.110        40
37.120        13
37.130        27
37.140        53
37.150        33
37.160        27
37.170        27
37.180        33
37.190        27
37.200        13
37.210        40
37.220         0
37.230         7
37.240        13
37.250        13
37.260        27
37.270         0
37.280        20
37.290         7
37.300        20
37.310        13
37.320        27
37.330        20
37.340         7
37.350        20
37.360        33
37.370        27
37.380        27
37.390        13
37.400        27
37.410        33
37.420        13
37.430        40
37.440        13
37.450        27
37.460        27
37.470        33
37.480         7
37.490        13
37.500        20
37.510        27
37.520         7
37.530        20
37.540        47
37.550        33
37.560        27
37.570        40
37.580        20
37.590         7
37.600         7
37.610        27
37.620        13
37.630         7
37.640        20
37.650        27
37.660         7
37.670        40
37.680        20
37.690        20
37.700        20
37.710         0
37.720        27
37.730        47
37.740         7
37.750         7
37.760        13
37.770        20
37.780         7
37.790        27
37.800        20
37.810        27
37.820        27
37.830         7
37.840        13
37.850        33
37.860        27
37.870         7
37.880        13
37.890        13
37.900        13
37.910        13
37.920        40
37.930        13
37.940        20
37.950        33
37.960        13
37.970        13
37.980         7
37.990        33
38.000        40
38.010         7
38.020        27
38.030        33
38.040         7
38.050        13
38.060        20
38.070        27
38.080        27
38.090         7
38.100        20
38.110        33
38.120        20
38.130         7
38.140        20
38.150        20
38.160        20
38.170        27
38.180        20
38.190        27
38.200        13
38.210        33
38.220        13
38.230         7
38.240        47
38.250        13
38.260        33
38.270         7
38.280        40
38.290        33
38.300        20
38.310        13
38.320        13
38.330        20
38.340         7
38.350        13
38.360         7
38.370        20
38.380         7
38.390        20
38.400        13
38.410        13
38.420         7
38.430        20
38.440        20
38.450        20
38.460         7
38.470         0
38.480        20
38.490        13
38.500         7
38.510         0
38.520        20
38.530         7
38.540         7
38.550        13
38.560        27
38.570         7
38.580        33
38.590        20
38.600        20
38.610        27
38.620        27
38.630         7
38.640        13
38.650        13
38.660        40
38.670        27
38.680        13
38.690        20
38.700        20
38.710        33
38.720        20
38.730        27
38.740        33
38.750        33
38.760        27
38.770        20
38.780        13
38.790        27
38.800        20
38.810        13
38.820         0
38.830        20
38.840        33
38.850         7
38.860        20
38.870        27
38.880         0
38.890        20
38.900        13
38.910        33
38.920        27
38.930        13
38.940        27
38.950        13
38.960        13
38.970        13
38.980        40
38.990        20
39.000        27
39.010        27
39.020        33
39.030        33
39.040        13
39.050        33
39.060        20
39.070        27
39.080         7
39.090        33
39.100        27
39.110        13
39.120        20
39.130        33
39.140        13
39.150         7
39.160        20
39.170        13
39.180        20
39.190        33
39.200        27
39.210        27
39.220        20
39.230        13
39.240         7
39.250        47
39.260         0
39.270        33
39.280         7
39.290        13
39.300         7
39.310        20
39.320        27
39.330        13
39.340        27
39.350         0
39.360        20
39.370        20
39.380        13
39.390         7
39.400        13
39.410        33
39.420         7
39.430        20
39.440        27
39.450        33
39.460        27
39.470         7
39.480        27
39.490        13
39.500        13
39.510        27
39.520        20
39.530        13
39.540        27
39.550        13
39.560        13
39.570        27
39.580         7
39.590        13
39.600        33
39.610        13
39.620        20
39.630        27
39.640        33
39.650        20
39.660        33
39.670         0
39.680        40
39.690        13
39.700        20
39.710        13
39.720        13
39.730        47
39.740         7
39.750        20
39.760        13
39.770        33
39.780        27
39.790        33
39.800        20
39.810         7
39.820         7
39.830        13
39.840        33
39.850         7
39.860        27
39.870        20
39.880        20
39.890        20
39.900        13
39.910        20
39.920        20
39.930        40
39.940         0
39.950        33
39.960         7
39.970        27
39.980         0
39.990         0
40.000        33
40.010        20
40.020        13
40.030        27
40.040        33
40.050        13
40.060         7
40.070        20
40.080        13
40.090        33
40.100        20
40.110        33
40.120        27
40.130        33
40.140         7
40.150        40
40.160        27
40.170        33
40.180        47
40.190        13
40.200        13
40.210        40
40.220        33
40.230        27
40.240        60
40.250        27
40.260        40
40.270        40
40.280        33
40.290        40
40.300        33
40.310        40
40.320        47
40.330        53
40.340        13
40.350        13
40.360         7
40.370        20
40.380        33
40.390         7
40.400        47
40.410        13
40.420        20
40.430        33
40.440        20
40.450        13
40.460         7
40.470         0
40.480         7
40.490        27
40.500        13
40.510        40
40.520        20
40.530         7
40.540         7
40.550        13
40.560        27
40.570        27
40.580        20
40.590        20
40.600        20
40.610        40
40.620        33
40.630        27
40.640        13
40.650        20
40.660        13
40.670         7
40.680        20
40.690        33
40.700        13
40.710        13
40.720         7
40.730         0
40.740        13
40.750        20
40.760        13
40.770         0
40.780         7
40.790        27
40.800        20
40.810        27
40.820        20
40.830        33
40.840        27
40.850        20
40.860        33
40.870         7
40.880        13
40.890        40
40.900         7
40.910        13
40.920         7
40.930        20
40.940        13
40.950        20
40.960        13
40.970        20
40.980        13
40.990         0
41.000        13
41.010        27
41.020        20
41.030        27
41.040        27
41.050        13
41.060        27
41.070         7
41.080        20
41.090        40
41.100        27
41.110        27
41.120        20
41.130        20
41.140        27
41.150        40
41.160        33
41.170        20
41.180         7
41.190        20
41.200        33
41.210        27
41.220        27
41.230        33
41.240        20
41.250        33
41.260         7
41.270        13
41.280        20
41.290        27
41.300        27
41.310        20
41.320        33
41.330        13
41.340         0
41.350        20
41.360        27
41.370        13
41.380        27
41.390         7
41.400        20
41.410        27
41.420        27
41.430        27
41.440        20
41.450         7
41.460        27
41.470        13
41.480         7
41.490        20
41.500         7
41.510        13
41.520         0
41.530        13
41.540        13
41.550        27
41.560         7
41.570        27
41.580        20
41.590        20
41.600        33
41.610        27
41.620         0
41.630         7
41.640        33
41.650        13
41.660        27
41.670        13
41.680        13
41.690        33
41.700        27
41.710        13
41.720        20
41.730        13
41.740         7
41.750         7
41.760        13
41.770        27
41.780        33
41.790        47
41.800        20
41.810         7
41.820        13
41.830        27
41.840        20
41.850        20
41.860        13
41.870        27
41.880        20
41.890        40
41.900        13
41.910        13
41.920        40
41.930         0
41.940         7
41.950        27
41.960         7
41.970        20
41.980        33
41.990        27
42.000        20
42.010        20
42.020        13
42.030        20
42.040        27
42.050        27
42.060        20
42.070        13
42.080        33
42.090        20
42.100        20
42.110        27
42.120        20
42.130         7
42.140        13
42.150        27
42.160        27
42.170         7
42.180        27
42.190        27
42.200        13
42.210         7
42.220         7
42.230        13
42.240        13
42.250         0
42.260        20
42.270        33
42.280        27
42.290        20
42.300        33
42.310        20
42.320        33
42.330        27
42.340         7
42.350        53
42.360        33
42.370        13
42.380         7
42.390        20
42.400        27
42.410         7
42.420         0
42.430        20
42.440        33
42.450        13
42.460        40
42.470        33
42.480        20
42.490        47
42.500        27
42.510        20
42.520        33
42.530        13
42.540        13
42.550        13
42.560        33
42.570        13
42.580        33
42.590        73
42.600        20
42.610        13
42.620        13
42.630        13
42.640        33
42.650        33
42.660        20
42.670        20
42.680        13
42.690        13
42.700        40
42.710         7
42.720        33
42.730        13
42.740        27
42.750        20
42.760        33
42.770        13
42.780        27
42.790        60
42.800        13
42.810        20
42.820        33
42.830        13
42.840        13
42.850        27
42.860        13
42.870        27
42.880         7
42.890        40
42.900        13
42.910        13
42.920        27
42.930        27
42.940        20
42.950        20
42.960         7
42.970        13
42.980        60
42.990        40
43.000        20
43.010        40
43.020        40
43.030         7
43.040        47
43.050        47
43.060        20
43.070        20
43.080        27
43.090         7
43.100        20
43.110         7
43.120         7
43.130         7
43.140        47
43.150         7
43.160         7
43.170        13
43.180         7
43.190         7
43.200        20
43.210         7
43.220        13
43.230        40
43.240        40
43.250        27
43.260        13
43.270        20
43.280        20
43.290        13
43.300        13
43.310        13
43.320        20
43.330        40
43.340        13
43.350        27
43.360        13
43.370        13
43.380        13
43.390        27
43.400         0
43.410        27
43.420         7
43.430         7
43.440         7
43.450        20
43.460        13
43.470        27
43.480        20
43.490        27
43.500        40
43.510        20
43.520        27
43.530        27
43.540         7
43.550        13
43.560        20
43.570        27
43.580         7
43.590        27
43.600         0
43.610        20
43.620        20
43.630        40
43.640        27
43.650         7
43.660        20
43.670         7
43.680         7
43.690        13
43.700        33
43.710        33
43.720        20
43.730        13
43.740        33
43.750        20
43.760         7
43.770        20
43.780        20
43.790         0
43.800        27
43.810        53
43.820         0
43.830        20
43.840        13
43.850        27
43.860        27
43.870        20
43.880        13
43.890         7
43.900        13
43.910        20
43.920        40
43.930         7
43.940        13
43.950        20
43.960        13
43.970        13
43.980        20
43.990        20
44.000        13
44.010         7
44.020        40
44.030        13
44.040        20
44.050        20
44.060        13
44.070         7
44.080         7
44.090        13
44.100        27
44.110        20
44.120        13
44.130        13
44.140         0
44.150        20
44.160        47
44.170         0
44.180        27
44.190        13
44.200        40
44.210        13
44.220        40
44.230         7
44.240        20
44.250        33
44.260         7
44.270        13
44.280        33
44.290        47
44.300        47
44.310        33
44.320        27
44.330        40
44.340        47
44.350        27
44.360        33
44.370        20
44.380        20
44.390        27
44.400        33
44.410        13
44.420        33
44.430        40
44.440        40
44.450        47
44.460        13
44.470        53
44.480        20
44.490        27
44.500        20
44.510        40
44.520        60
44.530        33
44.540        13
44.550        13
44.560        27
44.570        13
44.580        27
44.590        13
44.600         7
44.610        33
44.620        20
44.630        20
44.640        27
44.650         7
44.660        13
44.670        13
44.680         7
44.690        40
44.700        13
44.710        27
44.720        33
44.730        20
44.740        13
44.750        20
44.760        40
44.770         7
44.780        27
44.790        13
44.800        20
44.810        13
44.820        13
44.830        13
44.840        20
44.850        20
44.860        13
44.870        20
44.880         7
44.890        20
44.900        13
44.910        47
44.920        27
44.930        20
44.940        13
44.950        27
44.960        13
44.970        20
44.980        20
44.990        20
45.000        13
45.010        33
45.020        20
45.030         7
45.040        40
45.050        20
45.060        27
45.070        27
45.080        20
45.090        27
45.100        13
45.110        20
45.120        13
45.130        27
45.140        20
45.150        27
45.160        27
45.170        33
45.180        13
45.190         0
45.200        20
45.210        40
45.220        20
45.230        20
45.240        13
45.250        33
45.260        13
45.270        27
45.280         7
45.290         7
45.300        13
45.310        27
45.320        20
45.330        27
45.340        40
45.350         7
45.360         7
45.370        33
45.380        33
45.390        13
45.400        13
45.410        47
45.420        20
45.430        20
45.440        13
45.450        20
45.460        40
45.470        20
45.480        20
45.490        13
45.500         0
45.510        33
45.520        27
45.530        40
45.540        27
45.550        27
45.560        13
45.570        27
45.580        27
45.590         0
45.600         7
45.610        13
45.620        27
45.630         7
45.640        13
45.650         7
45.660        13
45.670        13
45.680        27
45.690        13
45.700        13
45.710        13
45.720        20
45.730        20
45.740        20
45.750        20
45.760         0
45.770        27
45.780        33
45.790        27
45.800        13
45.810        20
45.820        20
45.830        33
45.840         7
45.850         7
45.860        13
45.870        27
45.880        20
45.890        33
45.900        13
45.910        40
45.920        27
45.930        27
45.940        27
45.950        13
45.960        53
45.970         7
45.980        33
45.990        33
46.000        27
46.010        20
46.020        40
46.030        13
46.040        47
46.050        33
46.060        53
46.070        40
46.080        20
46.090        13
46.100         7
46.110        40
46.120        33
46.130        47
46.140        33
46.150        60
46.160        27
46.170        33
46.180        40
46.190        53
46.200        27
46.210        53
46.220        40
46.230        47
46.240        40
46.250         7
46.260        60
46.270        47
46.280        27
46.290        60
46.300        20
46.310        40
46.320        47
46.330        27
46.340        13
46.350        20
46.360        27
46.370        33
46.380        20
46.390         7
46.400        33
46.410        13
46.420        27
46.430        40
46.440        33
46.450        40
46.460        20
46.470         7
46.480        13
46.490        27
46.500        13
46.510        20
46.520        20
46.530        27
46.540        27
46.550        27
46.560        33
46.570        40
46.580        40
46.590         0
46.600        27
46.610        20
46.620        20
46.630        27
46.640        13
46.650        20
46.660         7
46.670        13
46.680        20
46.690        13
46.700        33
46.710        20
46.720        60
46.730         7
46.740        20
46.750        40
46.760         7
46.770        13
46.780        27
46.790        20
46.800        20
46.810        27
46.820        20
46.830        20
46.840        27
46.850        20
46.860        13
46.870        33
46.880        33
46.890        33
46.900        40
46.910        27
46.920        20
46.930        20
46.940        80
46.950        47
46.960        73
46.970        60
46.980        33
46.990        27
47.000        33
47.010        40
47.020        13
47.030        13
47.040        27
47.050        60
47.060         0
47.070        33
47.080        47
47.090        20
47.100        33
47.110        40
47.120        40
47.130        20
47.140        27
47.150        20
47.160        27
47.170        13
47.180        27
47.190        27
47.200        27
47.210        33
47.220        20
47.230        53
47.240        20
47.250        47
47.260        33
47.270        13
47.280        20
47.290        33
47.300        13
47.310        27
47.320        13
47.330        27
47.340        33
47.350        47
47.360        13
47.370        20
47.380        33
47.390        33
47.400         7
47.410        20
47.420        27
47.430        33
47.440        20
47.450        33
47.460        13
47.470        47
47.480        20
47.490        40
47.500        27
47.510        40
47.520        33
47.530        40
47.540        27
47.550        47
47.560        67
47.570        27
47.580        27
47.590        40
47.600        13
47.610        33
47.620        13
47.630        33
47.640        60
47.650        27
47.660        33
47.670        20
47.680        27
47.690        13
47.700        33
47.710        53
47.720        13
47.730        13
47.740        47
47.750         7
47.760        20
47.770        47
47.780        33
47.790        27
47.800        53
47.810        33
47.820        20
47.830        13
47.840        53
47.850        47
47.860        27
47.870         7
47.880         7
47.890         7
47.900        13
47.910        13
47.920         7
47.930        20
47.940        33
47.950        13
47.960        20
47.970        73
47.980        20
47.990        27
48.000        40
48.010        20
48.020        40
48.030        33
48.040        20
48.050        13
48.060        13
48.070        27
48.080        47
48.090        33
48.100        40
48.110        20
48.120        33
48.130        13
48.140        27
48.150         7
48.160        40
48.170        20
48.180         7
48.190        40
48.200        27
48.210         7
48.220        27
48.230         7
48.240        27
48.250         7
48.260        13
48.270         0
48.280        27
48.290        33
48.300        20
48.310        47
48.320         7
48.330        13
48.340        20
48.350        20
48.360        13
48.370        13
48.380        47
48.390        40
48.400        33
48.410        33
48.420        20
48.430        27
48.440         7
48.450        13
48.460        20
48.470        40
48.480        13
48.490        13
48.500        33
48.510        20
48.520        27
48.530        27
48.540        20
48.550        47
48.560        13
48.570         7
48.580        13
48.590        40
48.600        13
48.610        60
48.620         0
48.630        33
48.640        20
48.650        40
48.660        13
48.670         7
48.680        33
48.690         7
48.700         7
48.710        27
48.720        27
48.730        27
48.740        20
48.750         7
48.760        33
48.770         7
48.780         7
48.790        20
48.800         7
48.810        27
48.820        27
48.830        20
48.840        33
48.850        20
48.860        20
48.870        20
48.880        20
48.890        20
48.900        27
48.910        33
48.920        13
48.930         7
48.940        27
48.950        33
48.960        40
48.970         7
48.980        13
48.990        20
49.000        13
49.010        27
49.020        27
49.030        20
49.040        20
49.050        27
49.060        20
49.070        13
49.080        20
49.090        27
49.100        33
49.110        20
49.120        27
49.130        20
49.140        20
49.150        27
49.160        13
49.170        40
49.180        20
49.190        47
49.200        13
49.210        27
49.220        47
49.230        33
49.240        27
49.250        27
49.260        13
49.270         0
49.280        33
49.290         0
49.300        13
49.310         7
49.320        27
49.330        20
49.340        20
49.350        20
49.360         7
49.370        20
49.380        47
49.390        20
49.400        13
49.410        13
49.420         7
49.430        20
49.440         7
49.450        33
49.460        47
49.470        13
49.480        20
49.490        13
49.500         0
49.510        20
49.520         7
49.530        20
49.540        20
49.550        40
49.560        40
49.570        13
49.580         7
49.590        27
49.600        40
49.610        20
49.620        47
49.630        13
49.640        33
49.650        20
49.660        47
49.670         7
49.680         0
49.690        20
49.700        33
49.710        47
49.720        33
49.730        33
49.740        53
49.750        47
49.760        20
49.770         7
49.780        53
49.790        47
49.800        27
49.810        40
49.820        40
49.830        73
49.840        33
49.850        20
49.860        20
49.870        53
49.880        53
49.890        20
49.900        47
49.910        47
49.920        27
49.930        40
49.940        27
49.950        33
49.960        47
49.970        40
49.980        20
49.990        27
50.000        33
50.010        87
50.020        60
50.030        33
50.040        33
50.050        53
50.060        33
50.070        53
50.080        13
50.090        40
50.100        47
50.110        47
50.120        40
50.130        20
50.140        47
50.150        33
50.160         7
50.170        40
50.180        20
50.190        20
50.200        40
50.210        20
50.220         7
50.230        27
50.240         7
50.250        33
50.260        20
50.270        13
50.280        20
50.290        40
50.300        20
50.310        20
50.320        27
50.330        47
50.340        47
50.350        47
50.360        13
50.370        20
50.380        20
50.390        13
50.400        27
50.410        27
50.420        47
50.430        27
50.440        20
50.450        20
50.460        53
50.470        13
50.480        13
50.490        13
50.500        33
50.510        27
50.520        13
50.530        27
50.540        53
50.550        33
50.560        13
50.570        47
50.580        20
50.590        60
50.600        27
50.610        40
50.620        20
50.630        13
50.640         7
50.650        73
50.660        53
50.670        67
50.680        60
50.690        13
50.700        40
50.710        40
50.720        53
50.730        40
50.740        53
50.750        27
50.760        40
50.770         7
50.780        53
50.790        47
50.800         7
50.810        47
50.820        67
50.830        40
50.840        40
50.850        53
50.860        27
50.870        20
50.880        27
50.890        93
50.900        47
50.910        33
50.920        20
50.930        53
50.940        40
50.950        67
50.960        47
50.970        33
50.980        33
50.990        20
51.000        47
51.010        47
51.020         7
51.030        40
51.040        40
51.050        53
51.060        47
51.070        53
51.080        40
51.090        40
51.100        47
51.110        53
51.120        33
51.130        40
51.140        33
51.150        27
51.160        27
51.170        20
51.180        47
51.190        40
51.200         7
51.210        40
51.220        33
51.230        93
51.240        40
51.250        47
51.260        20
51.270        47
51.280        27
51.290        20
51.300        27
51.310        60
51.320        40
51.330        47
51.340        40
51.350        20
51.360        53
51.370        53
51.380        47
51.390        40
51.400        27
51.410        27
51.420        40
51.430        67
51.440        67
51.450        47
51.460        40
51.470        40
51.480        60
51.490        47
51.500        27
51.510        20
51.520        60
51.530        27
51.540        67
51.550        47
51.560        47
51.570        33
51.580        40
51.590        67
51.600        53
51.610        47
51.620        47
51.630        47
51.640        47
51.650        40
51.660        93
51.670        67
51.680        60
51.690        47
51.700        27
51.710        27
51.720        40
51.730        67
51.740        60
51.750        67
51.760        47
51.770        60
51.780        40
51.790        53
51.800        53
51.810        60
51.820        80
51.830        40
51.840        80
51.850        93
51.860        87
51.870        80
51.880        80
51.890        60
51.900        73
51.910        67
51.920        73
51.930        73
51.940       100
51.950        47
51.960        87
51.970       107
51.980       140
51.990        80
52.000       120
52.010       167
52.020       113
52.030       120
52.040        93
52.050       133
52.060       120
52.070       120
52.080        87
52.090       140
52.100        87
52.110       147
52.120       127
52.130       113
52.140       127
52.150       187
52.160       200
52.170       193
52.180       167
52.190       180
52.200       220
52.210       253
52.220       273
52.230       300
52.240       273
52.250       333
52.260       480
52.270       693
52.280       746
52.290      1026
52.300      1459
52.310      1893
52.320      2412
52.330      2619
52.340      2912
52.350      3705
52.360      4452
52.370      5158
52.380      4845
52.390      5358
52.400      5731
52.410      5764
52.420      5984
52.430      6264
52.440      6084
52.450      5771
52.460      5898
52.470      5045
52.480      4412
52.490      4572
52.500      4192
52.510      3832
52.520      3932
52.530      3632
52.540      4078
52.550      3832
52.560      3938
52.570      4145
52.580      4305
52.590      4125
52.600      4132
52.610      3772
52.620      3739
52.630      2879
52.640      2146
52.650      1999
52.660      1506
52.670      1319
52.680      1106
52.690      1060
52.700       940
52.710      1073
52.720      1073
52.730      1120
52.740       986
52.750      1106
52.760       920
52.770       820
52.780       880
52.790       553
52.800       526
52.810       440
52.820       380
52.830       313
52.840       300
52.850       253
52.860       227
52.870       187
52.880       213
52.890       233
52.900       180
52.910       173
52.920       133
52.930       133
52.940       153
52.950       113
52.960       120
52.970       140
52.980       127
52.990       133
53.000       127
53.010        80
53.020        80
53.030       113
53.040        80
53.050        73
53.060        40
53.070        93
53.080        80
53.090       140
53.100        87
53.110        40
53.120        47
53.130        53
53.140        40
53.150       113
53.160       107
53.170       100
53.180        67
53.190        53
53.200        47
53.210        60
53.220        87
53.230        60
53.240        60
53.250        53
53.260        53
53.270        67
53.280        67
53.290        47
53.300        87
53.310        67
53.320        60
53.330        47
53.340        40
53.350        40
53.360        80
53.370        60
53.380        27
53.390        53
53.400        47
53.410        53
53.420        60
53.430        53
53.440        60
53.450        53
53.460        80
53.470        87
53.480        53
53.490        60
53.500       100
53.510        73
53.520        27
53.530        73
53.540        80
53.550        60
53.560        47
53.570        80
53.580        53
53.590         7
53.600        87
53.610        40
53.620        40
53.630        53
53.640        33
53.650        20
53.660        47
53.670       107
53.680        47
53.690        27
53.700        47
53.710        53
53.720        20
53.730        40
53.740        33
53.750        47
53.760        27
53.770        33
53.780        13
53.790        47
53.800        53
53.810        53
53.820        47
53.830        40
53.840        47
53.850        53
53.860        40
53.870        33
53.880        73
53.890        67
53.900        53
53.910        67
53.920        33
53.930        53
53.940        47
53.950        93
53.960        73
53.970        67
53.980        33
53.990        53
54.000        27
54.010        47
54.020        33
54.030        33
54.040        73
54.050        93
54.060        33
54.070        20
54.080        60
54.090        13
54.100        27
54.110        53
54.120        47
54.130        53
54.140        40
54.150        13
54.160        13
54.170        67
54.180        27
54.190        13
54.200        60
54.210        27
54.220        47
54.230        27
54.240        67
54.250        47
54.260        27
54.270        40
54.280        40
54.290        47
54.300        73
54.310        53
54.320        47
54.330        67
54.340        80
54.350        27
54.360        67
54.370        53
54.380        67
54.390        33
54.400        33
54.410        20
54.420        33
54.430        47
54.440        80
54.450        67
54.460        40
54.470        53
54.480        53
54.490        73
54.500        20
54.510        80
54.520        47
54.530        53
54.540        33
54.550        80
54.560        27
54.570        33
54.580        33
54.590        47
54.600        40
54.610        40
54.620        53
54.630        40
54.640        27
54.650        33
54.660        33
54.670        40
54.680        73
54.690        33
54.700        53
54.710        47
54.720        47
54.730        53
54.740        73
54.750        53
54.760        53
54.770        47
54.780        33
54.790        20
54.800        47
54.810        33
54.820         7
54.830        40
54.840        67
54.850        33
54.860        40
54.870        60
54.880        40
54.890        33
54.900        67
54.910        20
54.920        33
54.930        40
54.940        53
54.950        40
54.960        60
54.970        60
54.980        53
54.990        47
55.000        33
55.010        53
55.020        40
55.030        53
55.040        40
55.050        33
55.060        33
55.070        47
55.080        40
55.090        33
55.100        33
55.110        20
55.120        47
55.130        47
55.140        40
55.150        13
55.160        40
55.170        33
55.180        60
55.190        33
55.200        33
55.210        33
55.220        47
55.230        20
55.240        73
55.250        40
55.260        33
55.270         7
55.280        27
55.290        73
55.300        20
55.310        33
55.320        27
55.330        33
55.340        47
55.350        33
55.360        40
55.370         7
55.380         7
55.390        60
55.400        27
55.410        73
55.420        47
55.430        60
55.440        60
55.450        33
55.460        33
55.470         7
55.480        20
55.490        27
55.500         7
55.510        33
55.520        47
55.530        27
55.540        47
55.550        33
55.560        27
55.570        53
55.580        20
55.590        33
55.600        33
55.610        33
55.620        87
55.630        53
55.640        13
55.650        27
55.660        27
55.670        40
55.680        67
55.690        13
55.700        20
55.710        33
55.720        20
55.730        33
55.740        47
55.750        40
55.760        27
55.770        33
55.780        33
55.790        53
55.800        73
55.810        53
55.820        60
55.830        60
55.840        60
55.850        13
55.860       100
55.870        40
55.880        40
55.890        40
55.900        80
55.910        47
55.920        47
55.930        53
55.940        53
55.950        73
55.960        93
55.970        27
55.980        60
55.990        60
56.000        40
56.010        33
56.020        40
56.030        80
56.040        20
56.050        33
56.060        27
56.070        67
56.080        33
56.090        47
56.100        47
56.110        20
56.120        73
56.130        60
56.140        27
56.150        73
56.160        27
56.170        53
56.180        47
56.190        47
56.200        40
56.210        53
56.220        40
56.230        40
56.240        47
56.250        33
56.260        53
56.270        53
56.280        20
56.290        27
56.300        33
56.310        27
56.320        60
56.330        53
56.340        60
56.350        27
56.360        67
56.370        93
56.380        33
56.390        47
56.400        13
56.410        33
56.420        47
56.430        20
56.440        13
56.450        20
56.460        40
56.470        20
56.480        60
56.490        40
56.500        33
56.510        53
56.520        53
56.530         7
56.540        27
56.550        47
56.560        53
56.570        20
56.580        33
56.590        33
56.600        27
56.610         0
56.620        40
56.630        33
56.640        67
56.650        53
56.660        40
56.670        53
56.680        73
56.690        47
56.700        40
56.710        53
56.720        27
56.730        27
56.740        20
56.750        47
56.760        27
56.770        40
56.780        60
56.790        33
56.800        47
56.810        27
56.820         0
56.830        40
56.840         7
56.850        33
56.860        47
56.870        33
56.880        40
56.890        33
56.900        67
56.910        33
56.920        27
56.930        47
56.940        80
56.950        20
56.960        47
56.970        33
56.980         7
56.990        27
57.000        27
57.010        40
57.020        40
57.030        60
57.040        80
57.050        47
57.060        33
57.070        20
57.080        27
57.090         7
57.100        27
57.110        27
57.120        27
57.130        40
57.140        13
57.150        67
57.160        20
57.170        53
57.180        33
57.190        67
57.200        40
57.210        27
57.220        47
57.230        33
57.240        53
57.250        47
57.260        47
57.270        73
57.280        47
57.290        27
57.300        67
57.310        33
57.320        33
57.330        60
57.340        20
57.350        47
57.360        93
57.370        40
57.380        53
57.390         7
57.400        67
57.410        27
57.420        53
57.430        40
57.440        13
57.450        67
57.460        33
57.470        60
57.480        13
57.490        33
57.500        33
57.510        27
57.520        33
57.530        60
57.540        40
57.550        20
57.560        40
57.570        67
57.580        27
57.590        53
57.600        13
57.610        27
57.620        47
57.630        47
57.640        33
57.650         0
57.660        40
57.670        60
57.680        20
57.690        40
57.700        27
57.710        53
57.720        53
57.730        33
57.740        53
57.750        47
57.760        27
57.770        47
57.780        33
57.790        27
57.800        60
57.810        13
57.820        33
57.830        40
57.840        33
57.850        13
57.860        27
57.870        13
57.880        47
57.890        33
57.900        53
57.910        40
57.920        33
57.930        53
57.940        67
57.950        33
57.960        33
57.970        47
57.980        40
57.990        47
58.000        47
58.010        20
58.020        13
58.030        20
58.040         0
58.050        33
58.060         7
58.070        33
58.080        33
58.090        53
58.100        73
58.110        20
58.120        40
58.130        40
58.140        33
58.150        27
58.160        40
58.170        33
58.180        13
58.190        47
58.200        33
58.210        47
58.220        27
58.230        20
58.240        33
58.250        53
58.260        33
58.270        40
58.280        20
58.290        47
58.300        47
58.310        40
58.320        27
58.330        40
58.340        27
58.350        40
58.360        20
58.370        27
58.380        53
58.390        40
58.400        53
58.410        33
58.420        27
58.430        67
58.440        27
58.450        60
58.460        20
58.470        13
58.480        20
58.490        47
58.500        40
58.510        27
58.520        20
58.530        33
58.540        40
58.550        20
58.560        60
58.570         7
58.580        33
58.590         7
58.600        20
58.610        13
58.620        40
58.630        47
58.640        27
58.650        27
58.660        13
58.670        47
58.680        20
58.690        13
58.700        67
58.710        20
58.720        27
58.730        33
58.740        40
58.750        40
58.760        13
58.770        73
58.780        20
58.790        47
58.800        33
58.810        27
58.820        47
58.830        53
58.840        53
58.850        27
58.860        20
58.870        33
58.880        33
58.890         7
58.900        40
58.910        13
58.920        33
58.930        27
58.940        40
58.950        33
58.960        27
58.970        27
58.980        67
58.990        27
59.000        27
59.010        40
59.020        20
59.030        53
59.040        33
59.050        13
59.060        33
59.070        47
59.080        33
59.090        20
59.100        20
59.110        13
59.120        27
59.130        53
59.140        27
59.150        27
59.160        27
59.170        40
59.180        33
59.190        27
59.200        40
59.210        73
59.220        20
59.230        20
59.240        33
59.250        27
59.260        27
59.270        13
59.280        13
59.290        33
59.300        13
59.310        33
59.320        40
59.330        27
59.340        20
59.350        27
59.360        33
59.370        27
59.380        27
59.390        33
59.400         7
59.410         7
59.420        40
59.430        53
59.440        53
59.450        13
59.460        27
59.470        53
59.480        33
59.490        27
59.500        27
59.510        33
59.520        20
59.530        27
59.540        27
59.550        27
59.560        20
59.570        33
59.580        40
59.590        27
59.600        20
59.610        20
59.620        40
59.630        47
59.640        13
59.650         7
59.660        47
59.670        40
59.680        33
59.690        33
59.700        47
59.710        27
59.720        40
59.730        33
59.740        40
59.750        33
59.760        27
59.770        53
59.780        20
59.790        60
59.800        67
59.810         0
59.820        20
59.830        40
59.840        13
59.850        33
59.860        80
59.870        47
59.880        53
59.890        27
59.900        40
59.910        13
59.920        20
59.930        40
59.940        40
59.950        53
59.960         7
59.970        13
59.980        20
59.990        27
60.000        53
