20.000       127
20.010       153
20.020       113
20.030       120
20.040       127
20.050        93
20.060       127
20.070       140
20.080        93
20.090       127
20.100       100
20.110       147
20.120       120
20.130        73
20.140       140
20.150       133
20.160        87
20.170       100
20.180       100
20.190       133
20.200       113
20.210       127
20.220       187
20.230       133
20.240       107
20.250       107
20.260        73
20.270       107
20.280        87
20.290       147
20.300       120
20.310       107
20.320       173
20.330       100
20.340       113
20.350       140
20.360       127
20.370       160
20.380       127
20.390        93
20.400       147
20.410       107
20.420        87
20.430       120
20.440        80
20.450       100
20.460        53
20.470       100
20.480       133
20.490        80
20.500       107
20.510       107
20.520       133
20.530       160
20.540       113
20.550       120
20.560       100
20.570       127
20.580        87
20.590        80
20.600       140
20.610        80
20.620       120
20.630       147
20.640        93
20.650        53
20.660        87
20.670       100
20.680        93
20.690       147
20.700       120
20.710        93
20.720        87
20.730        67
20.740       113
20.750       100
20.760        73
20.770       120
20.780        80
20.790        67
20.800        93
20.810       147
20.820       120
20.830        87
20.840        80
20.850        73
20.860       107
20.870        80
20.880       120
20.890       153
20.900       107
20.910        87
20.920       133
20.930        87
20.940       220
20.950       153
20.960       120
20.970        67
20.980       120
20.990        73
21.000       107
21.010       107
21.020       133
21.030        67
21.040       113
21.050        93
21.060       153
21.070       120
21.080       100
21.090       100
21.100       147
21.110        80
21.120       100
21.130       147
21.140       120
21.150       140
21.160       127
21.170       120
21.180       100
21.190       127
21.200        80
21.210        67
21.220       107
21.230        93
21.240        47
21.250       127
21.260       140
21.270       133
21.280       140
21.290       100
21.300       100
21.310       133
21.320       127
21.330        80
21.340       113
21.350       113
21.360       167
21.370        87
21.380       140
21.390       147
21.400       100
21.410       127
21.420       100
21.430       133
21.440        87
21.450       100
21.460       187
21.470       153
21.480       133
21.490       107
21.500       100
21.510       127
21.520       173
21.530       147
21.540       113
21.550       133
21.560       147
21.570       127
21.580       107
21.590       147
21.600       120
21.610       153
21.620       133
21.630       140
21.640        67
21.650       160
21.660       127
21.670       180
21.680       120
21.690       113
21.700       127
21.710       153
21.720       160
21.730       133
21.740       113
21.750       180
21.760       120
21.770       120
21.780       140
21.790       180
21.800       133
21.810       153
21.820       147
21.830       173
21.840       127
21.850       173
21.860       120
21.870       100
21.880       173
21.890       180
21.900       180
21.910       167
21.920       193
21.930       160
21.940       160
21.950       187
21.960       140
21.970       147
21.980       167
21.990       113
22.000       113
22.010       133
22.020       140
22.030       160
22.040       140
22.050       153
22.060       107
22.070       160
22.080       180
22.090       193
22.100       213
22.110       153
22.120       200
22.130       113
22.140       140
22.150       120
22.160       180
22.170       160
22.180       113
22.190       173
22.200       167
22.210       187
22.220       193
22.230       127
22.240       120
22.250       100
22.260       147
22.270       160
22.280       153
22.290       153
22.300       133
22.310       153
22.320       207
22.330       173
22.340       200
22.350       147
22.360       247
22.370       127
22.380       133
22.390       120
22.400       153
22.410       187
22.420       153
22.430       187
22.440       147
22.450       180
22.460       167
22.470       180
22.480       207
22.490       173
22.500       180
22.510       173
22.520       160
22.530       173
22.540       187
22.550       227
22.560       160
22.570       160
22.580       160
22.590       153
22.600       173
22.610       133
22.620       140
22.630       193
22.640       233
22.650       200
22.660       220
22.670       233
22.680       220
22.690       193
22.700       180
22.710       113
22.720       187
22.730       147
22.740       220
22.750       253
22.760       147
22.770       147
22.780       193
22.790       140
22.800       147
22.810       207
22.820       187
22.830       147
22.840       207
22.850       240
22.860       207
22.870       267
22.880       247
22.890       187
22.900       173
22.910       207
22.920       273
22.930       253
22.940       280
22.950       240
22.960       233
22.970       320
22.980       313
22.990       333
23.000       267
23.010       247
23.020       300
23.030       287
23.040       367
23.050       407
23.060       640
23.070       846
23.080      1166
23.090      1539
23.100      1813
23.110      1959
23.120      1873
23.130      1899
23.140      1693
23.150      1160
23.160       786
23.170       560
23.180       400
23.190       393
23.200       293
23.210       273
23.220       287
23.230       267
23.240       193
23.250       253
23.260       213
23.270       267
23.280       267
23.290       220
23.300       273
23.310       273
23.320       233
23.330       287
23.340       287
23.350       267
23.360       253
23.370       213
23.380       220
23.390       240
23.400       213
23.410       233
23.420       253
23.430       200
23.440       187
23.450       213
23.460       213
23.470       213
23.480       327
23.490       213
23.500       167
23.510       227
23.520       247
23.530       187
23.540       193
23.550       173
23.560       260
23.570       247
23.580       227
23.590       293
23.600       173
23.610       200
23.620       240
23.630       260
23.640       227
23.650       153
23.660       233
23.670       153
23.680       247
23.690       193
23.700       213
23.710       180
23.720       207
23.730       213
23.740       193
23.750       207
23.760       180
23.770       233
23.780       227
23.790       247
23.800       200
23.810       187
23.820       267
23.830       227
23.840       253
23.850       240
23.860       280
23.870       207
23.880       213
23.890       200
23.900       220
23.910       280
23.920       280
23.930       200
23.940       273
23.950       273
23.960       220
23.970       160
23.980       240
23.990       253
24.000       207
24.010       233
24.020       207
24.030       187
24.040       220
24.050       173
24.060       273
24.070       240
24.080       187
24.090       160
24.100       220
24.110       260
24.120       193
24.130       207
24.140       240
24.150       253
24.160       280
24.170       193
24.180       280
24.190       213
24.200       240
24.210       193
24.220       247
24.230       207
24.240       227
24.250       220
24.260       253
24.270       180
24.280       247
24.290       187
24.300       220
24.310       180
24.320       227
24.330       280
24.340       200
24.350       300
24.360       280
24.370       233
24.380       267
24.390       307
24.400       233
24.410       207
24.420       227
24.430       233
24.440       207
24.450       253
24.460       193
24.470       200
24.480       207
24.490       167
24.500       253
24.510       253
24.520       293
24.530       153
24.540       193
24.550       313
24.560       167
24.570       287
24.580       187
24.590       267
24.600       180
24.610       260
24.620       320
24.630       347
24.640       280
24.650       300
24.660       387
24.670       293
24.680       267
24.690       433
24.700       373
24.710       493
24.720       553
24.730       600
24.740       760
24.750       753
24.760       726
24.770       913
24.780       853
24.790      1026
24.800      1000
24.810       953
24.820       920
24.830      1100
24.840      1073
24.850       960
24.860       873
24.870      1053
24.880      1013
24.890       933
24.900      1033
24.910      1046
24.920       980
24.930       873
24.940       993
24.950       953
24.960       880
24.970       960
24.980       933
24.990       933
25.000      1000
25.010       866
25.020       946
25.030       880
25.040       906
25.050       973
25.060      1006
25.070       966
25.080      1026
25.090       960
25.100      1006
25.110      1040
25.120      1006
25.130       893
25.140       953
25.150      1100
25.160       966
25.170      1086
25.180       920
25.190       980
25.200      1040
25.210      1153
25.220       980
25.230      1286
25.240      1080
25.250      1206
25.260      1100
25.270      1026
25.280      1160
25.290      1220
25.300      1253
25.310      1293
25.320      1273
25.330      1466
25.340      1693
25.350      2019
25.360      2266
25.370      2852
25.380      3512
25.390      4512
25.400      4798
25.410      5764
25.420      7137
25.430      7737
25.440      8783
25.450      9609
25.460     10296
25.470     11209
25.480     12215
25.490     13428
25.500     14014
25.510     14248
25.520     15254
25.530     16500
25.540     18206
25.550     24937
25.560     45775
25.570     79755
25.580    121258
25.590    154631
25.600    172831
25.610    181527
25.620    185932
25.630    192116
25.640    184846
25.650    167999
25.660    142050
25.670    124124
25.680    116054
25.690    112215
25.700    103125
25.710     82367
25.720     55225
25.730     31054
25.740     16847
25.750     11062
25.760      8263
25.770      6797
25.780      5558
25.790      4918
25.800      3765
25.810      3532
25.820      3159
25.830      2552
25.840      2379
25.850      2219
25.860      2039
25.870      1993
25.880      1753
25.890      1779
25.900      1686
25.910      1419
25.920      1633
25.930      1466
25.940      1373
25.950      1399
25.960      1326
25.970      1279
25.980      1166
25.990      1353
26.000      1153
26.010      1180
26.020      1046
26.030      1213
26.040      1080
26.050      1013
26.060      1086
26.070      1053
26.080      1000
26.090      1113
26.100      1006
26.110      1146
26.120       980
26.130      1013
26.140      1033
26.150       940
26.160       853
26.170       866
26.180       973
26.190      1026
26.200       920
26.210       960
26.220       833
26.230       880
26.240       933
26.250       960
26.260       913
26.270       966
26.280       873
26.290       813
26.300       766
26.310       760
26.320       840
26.330       766
26.340       680
26.350       706
26.360       693
26.370      1033
26.380       853
26.390       740
26.400       846
26.410       753
26.420       860
26.430       853
26.440       746
26.450       666
26.460       693
26.470       953
26.480       906
26.490       693
26.500       806
26.510       760
26.520       806
26.530       653
26.540       733
26.550       860
26.560       626
26.570       740
26.580       806
26.590       666
26.600       866
26.610       760
26.620       673
26.630       733
26.640       620
26.650       753
26.660       833
26.670       733
26.680       786
26.690       793
26.700       713
26.710       706
26.720       646
26.730       620
26.740       593
26.750       626
26.760       773
26.770       733
26.780       653
26.790       753
26.800       526
26.810       620
26.820       566
26.830       773
26.840       606
26.850       673
26.860       686
26.870       706
26.880       640
26.890       666
26.900       720
26.910       613
26.920       640
26.930       726
26.940       586
26.950       646
26.960       760
26.970       666
26.980       820
26.990       720
27.000       740
27.010       586
27.020       680
27.030       773
27.040       546
27.050       533
27.060       653
27.070       600
27.080       646
27.090       693
27.100       626
27.110       653
27.120       666
27.130       606
27.140       720
27.150       560
27.160       673
27.170       646
27.180       620
27.190       613
27.200       733
27.210       480
27.220       626
27.230       620
27.240       560
27.250       546
27.260       546
27.270       626
27.280       493
27.290       566
27.300       526
27.310       633
27.320       653
27.330       553
27.340       500
27.350       706
27.360       533
27.370       540
27.380       686
27.390       526
27.400       600
27.410       666
27.420       520
27.430       546
27.440       586
27.450       473
27.460       680
27.470       633
27.480       586
27.490       560
27.500       560
27.510       613
27.520       546
27.530       620
27.540       526
27.550       580
27.560       593
27.570       613
27.580       533
27.590       653
27.600       633
27.610       506
27.620       566
27.630       606
27.640       553
27.650       526
27.660       666
27.670       493
27.680       606
27.690       560
27.700       613
27.710       526
27.720       500
27.730       526
27.740       466
27.750       640
27.760       420
27.770       580
27.780       460
27.790       580
27.800       560
27.810       606
27.820       600
27.830       540
27.840       533
27.850       526
27.860       600
27.870       546
27.880       466
27.890       446
27.900       560
27.910       506
27.920       566
27.930       626
27.940       500
27.950       506
27.960       506
27.970       533
27.980       500
27.990       520
28.000       540
28.010       566
28.020       580
28.030       540
28.040       480
28.050       560
28.060       560
28.070       473
28.080       433
28.090       546
28.100       586
28.110       506
28.120       426
28.130       493
28.140       500
28.150       526
28.160       473
28.170       573
28.180       493
28.190       600
28.200       513
28.210       560
28.220       473
28.230       513
28.240       533
28.250       400
28.260       526
28.270       500
28.280       493
28.290       506
28.300       580
28.310       453
28.320       486
28.330       533
28.340       653
28.350       606
28.360       546
28.370       486
28.380       486
28.390       493
28.400       440
28.410       426
28.420       526
28.430       520
28.440       520
28.450       506
28.460       433
28.470       453
28.480       520
28.490       506
28.500       440
28.510       480
28.520       493
28.530       493
28.540       573
28.550       526
28.560       520
28.570       413
28.580       453
28.590       453
28.600       426
28.610       486
28.620       486
28.630       480
28.640       473
28.650       553
28.660       526
28.670       400
28.680       540
28.690       413
28.700       553
28.710       486
28.720       506
28.730       446
28.740       613
28.750       613
28.760       526
28.770       500
28.780       513
28.790       553
28.800       473
28.810       473
28.820       466
28.830       473
28.840       513
28.850       520
28.860       606
28.870       493
28.880       526
28.890       706
28.900       593
28.910       626
28.920       480
28.930       593
28.940       620
28.950       566
28.960       546
28.970       633
28.980       720
28.990       746
29.000       546
29.010       613
29.020       633
29.030       780
29.040       586
29.050       833
29.060       613
29.070       746
29.080       753
29.090       666
29.100       806
29.110       766
29.120       780
29.130       733
29.140       726
29.150       700
29.160       726
29.170       666
29.180       646
29.190       740
29.200       686
29.210       686
29.220       693
29.230       540
29.240       633
29.250       766
29.260       593
29.270       600
29.280       700
29.290       407
29.300       486
29.310       480
29.320       633
29.330       560
29.340       440
29.350       420
29.360       566
29.370       573
29.380       540
29.390       560
29.400       593
29.410       433
29.420       473
29.430       480
29.440       486
29.450       347
29.460       373
29.470       373
29.480       506
29.490       460
29.500       513
29.510       460
29.520       400
29.530       400
29.540       426
29.550       473
29.560       553
29.570       446
29.580       453
29.590       513
29.600       506
29.610       506
29.620       446
29.630       433
29.640       500
29.650       360
29.660       440
29.670       486
29.680       453
29.690       466
29.700       466
29.710       426
29.720       307
29.730       407
29.740       367
29.750       440
29.760       413
29.770       387
29.780       440
29.790       373
29.800       433
29.810       340
29.820       426
29.830       367
29.840       440
29.850       393
29.860       433
29.870       387
29.880       446
29.890       373
29.900       393
29.910       413
29.920       387
29.930       466
29.940       520
29.950       327
29.960       380
29.970       460
29.980       400
29.990       400
30.000       433
30.010       380
30.020       513
30.030       407
30.040       387
30.050       426
30.060       506
30.070       280
30.080       400
30.090       307
30.100       393
30.110       413
30.120       367
30.130       360
30.140       380
30.150       380
30.160       360
30.170       327
30.180       440
30.190       300
30.200       220
30.210       373
30.220       426
30.230       280
30.240       360
30.250       360
30.260       413
30.270       426
30.280       426
30.290       340
30.300       420
30.310       340
30.320       413
30.330       440
30.340       420
30.350       300
30.360       387
30.370       333
30.380       413
30.390       380
30.400       300
30.410       307
30.420       413
30.430       333
30.440       413
30.450       320
30.460       407
30.470       360
30.480       393
30.490       320
30.500       313
30.510       327
30.520       333
30.530       313
30.540       340
30.550       333
30.560       373
30.570       420
30.580       460
30.590       300
30.600       313
30.610       373
30.620       493
30.630       380
30.640       526
30.650       360
30.660       353
30.670       393
30.680       333
30.690       313
30.700       253
30.710       407
30.720       373
30.730       360
30.740       373
30.750       247
30.760       300
30.770       267
30.780       333
30.790       353
30.800       373
30.810       353
30.820       233
30.830       426
30.840       333
30.850       300
30.860       347
30.870       360
30.880       373
30.890       307
30.900       360
30.910       347
30.920       400
30.930       287
30.940       313
30.950       300
30.960       320
30.970       367
30.980       300
30.990       307
31.000       373
31.010       340
31.020       300
31.030       333
31.040       320
31.050       300
31.060       267
31.070       280
31.080       373
31.090       413
31.100       367
31.110       367
31.120       367
31.130       360
31.140       280
31.150       340
31.160       327
31.170       353
31.180       300
31.190       320
31.200       300
31.210       260
31.220       347
31.230       420
31.240       293
31.250       347
31.260       267
31.270       293
31.280       307
31.290       287
31.300       307
31.310       327
31.320       426
31.330       347
31.340       287
31.350       313
31.360       380
31.370       233
31.380       333
31.390       333
31.400       207
31.410       353
31.420       247
31.430       420
31.440       420
31.450       367
31.460       380
31.470       247
31.480       293
31.490       260
31.500       287
31.510       213
31.520       387
31.530       227
31.540       320
31.550       273
31.560       313
31.570       233
31.580       327
31.590       227
31.600       300
31.610       320
31.620       273
31.630       273
31.640       293
31.650       287
31.660       387
31.670       287
31.680       347
31.690       360
31.700       287
31.710       367
31.720       313
31.730       293
31.740       253
31.750       287
31.760       267
31.770       267
31.780       293
31.790       247
31.800       213
31.810       293
31.820       333
31.830       307
31.840       240
31.850       307
31.860       280
31.870       253
31.880       267
31.890       267
31.900       273
31.910       280
31.920       333
31.930       240
31.940       213
31.950       340
31.960       327
31.970       227
31.980       253
31.990       273
32.000       213
32.010       253
32.020       260
32.030       247
32.040       247
32.050       307
32.060       300
32.070       313
32.080       247
32.090       287
32.100       333
32.110       253
32.120       293
32.130       293
32.140       240
32.150       267
32.160       233
32.170       253
32.180       367
32.190       293
32.200       260
32.210       293
32.220       307
32.230       333
32.240       233
32.250       327
32.260       253
32.270       260
32.280       320
32.290       313
32.300       307
32.310       300
32.320       300
32.330       273
32.340       400
32.350       267
32.360       300
32.370       307
32.380       287
32.390       213
32.400       273
32.410       307
32.420       267
32.430       253
32.440       267
32.450       247
32.460       227
32.470       247
32.480       213
32.490       187
32.500       253
32.510       213
32.520       213
32.530       193
32.540       287
32.550       240
32.560       327
32.570       320
32.580       293
32.590       280
32.600       307
32.610       240
32.620       213
32.630       207
32.640       260
32.650       327
32.660       313
32.670       287
32.680       327
32.690       247
32.700       327
32.710       240
32.720       280
32.730       313
32.740       280
32.750       287
32.760       273
32.770       273
32.780       273
32.790       367
32.800       260
32.810       253
32.820       227
32.830       207
32.840       260
32.850       293
32.860       287
32.870       200
32.880       247
32.890       240
32.900       340
32.910       220
32.920       273
32.930       193
32.940       260
32.950       233
32.960       193
32.970       167
32.980       287
32.990       180
33.000       273
33.010       240
33.020       133
33.030       267
33.040       193
33.050       227
33.060       247
33.070       193
33.080       200
33.090       187
33.100       287
33.110       293
33.120       233
33.130       167
33.140       227
33.150       207
33.160       240
33.170       227
33.180       213
33.190       247
33.200       200
33.210       233
33.220       213
33.230       200
33.240       233
33.250       253
33.260       307
33.270       200
33.280       260
33.290       160
33.300       213
33.310       193
33.320       153
33.330       233
33.340       220
33.350       187
33.360       193
33.370       173
33.380       213
33.390       133
33.400       240
33.410       193
33.420       187
33.430       247
33.440       193
33.450       227
33.460       207
33.470       240
33.480       260
33.490       153
33.500       133
33.510       253
33.520       187
33.530       240
33.540       220
33.550       220
33.560       207
33.570       200
33.580       253
33.590       147
33.600       213
33.610       180
33.620       127
33.630       160
33.640       200
33.650       213
33.660       220
33.670       180
33.680       200
33.690       287
33.700       227
33.710       247
33.720       193
33.730       193
33.740       213
33.750       180
33.760       227
33.770       233
33.780       127
33.790       247
33.800       227
33.810       180
33.820       220
33.830       213
33.840       220
33.850       200
33.860       220
33.870       147
33.880       187
33.890       267
33.900       133
33.910       193
33.920       273
33.930       153
33.940       233
33.950       133
33.960       193
33.970       200
33.980       193
33.990       233
34.000       187
34.010       173
34.020       140
34.030       247
34.040       140
34.050       180
34.060       173
34.070       193
34.080       173
34.090       207
34.100       180
34.110       133
34.120       213
34.130       180
34.140       253
34.150       193
34.160       153
34.170       180
34.180       180
34.190       200
34.200       220
34.210       153
34.220       180
34.230       193
34.240       207
34.250       193
34.260       120
34.270       167
34.280       153
34.290       167
34.300       200
34.310       267
34.320       180
34.330       140
34.340       267
34.350       193
34.360       160
34.370       153
34.380       140
34.390       167
34.400       200
34.410       160
34.420       193
34.430       213
34.440       153
34.450       127
34.460       280
34.470       187
34.480       153
34.490       133
34.500       173
34.510       200
34.520       147
34.530       127
34.540       147
34.550       173
34.560       207
34.570       180
34.580       120
34.590       180
34.600       147
34.610       127
34.620       140
34.630       193
34.640       213
34.650       140
34.660       140
34.670       200
34.680       100
34.690       160
34.700       113
34.710       147
34.720       233
34.730       160
34.740       167
34.750       147
34.760       180
34.770       180
34.780       200
34.790       127
34.800       193
34.810       133
34.820       180
34.830       173
34.840       133
34.850       180
34.860       200
34.870       173
34.880       173
34.890       200
34.900       207
34.910       187
34.920       173
34.930       227
34.940       127
34.950       140
34.960       160
34.970        87
34.980       167
34.990       260
35.000       133
35.010       127
35.020       107
35.030       153
35.040       113
35.050       173
35.060       147
35.070       153
35.080       160
35.090       173
35.100        67
35.110       173
35.120       160
35.130       200
35.140       173
35.150       140
35.160       247
35.170       173
35.180       173
35.190       173
35.200       187
35.210       207
35.220       227
35.230       133
35.240       127
35.250       120
35.260       160
35.270       213
35.280       147
35.290       160
35.300       153
35.310       147
35.320       193
35.330       127
35.340       133
35.350       113
35.360       213
35.370       167
35.380       173
35.390       127
35.400       140
35.410       187
35.420       220
35.430       147
35.440       113
35.450       127
35.460       153
35.470       120
35.480       147
35.490       127
35.500       180
35.510       147
35.520       133
35.530       180
35.540       220
35.550       200
35.560       127
35.570       107
35.580       127
35.590       140
35.600       213
35.610       160
35.620       167
35.630       127
35.640       173
35.650       133
35.660       100
35.670       120
35.680       173
35.690       140
35.700       153
35.710        93
35.720       153
35.730       187
35.740        60
35.750       147
35.760       160
35.770       147
35.780       120
35.790       133
35.800       147
35.810       180
35.820       120
35.830       127
35.840       140
35.850       107
35.860       120
35.870       140
35.880       187
35.890       160
35.900       220
35.910       127
35.920       147
35.930       147
35.940       153
35.950       127
35.960       180
35.970       113
35.980       113
35.990       133
36.000       160
36.010       113
36.020       153
36.030       153
36.040       173
36.050       133
36.060       167
36.070       127
36.080       120
36.090       160
36.100       107
36.110       173
36.120       140
36.130       140
36.140       140
36.150       147
36.160       133
36.170       127
36.180       113
36.190       120
36.200       113
36.210       140
36.220       133
36.230       120
36.240       127
36.250       160
36.260       160
36.270       107
36.280       127
36.290       207
36.300       140
36.310       133
36.320       107
36.330       173
36.340        93
36.350       133
36.360       140
36.370       120
36.380        87
36.390       153
36.400       113
36.410       140
36.420       100
36.430       147
36.440       113
36.450       133
36.460       133
36.470       173
36.480       173
36.490       147
36.500       147
36.510       107
36.520       213
36.530       167
36.540       160
36.550       147
36.560       113
36.570       173
36.580       120
36.590       133
36.600       100
36.610       113
36.620       167
36.630       133
36.640       153
36.650       153
36.660       120
36.670       120
36.680       140
36.690       153
36.700       113
36.710       107
36.720       107
36.730       167
36.740       127
36.750       193
36.760       127
36.770        87
36.780        80
36.790       133
36.800       147
36.810       160
36.820       100
36.830        80
36.840       120
36.850       120
36.860        80
36.870        87
36.880       120
36.890        67
36.900       107
36.910        73
36.920       107
36.930       120
36.940        73
36.950       140
36.960        80
36.970       147
36.980       113
36.990       120
37.000       113
37.010       147
37.020       147
37.030       127
37.040       100
37.050        93
37.060       113
37.070       133
37.080       127
37.090       113
37.100        60
37.110       100
37.120        93
37.130       120
37.140       107
37.150        80
37.160       100
37.170       107
37.180       100
37.190       160
37.200       107
37.210        53
37.220        93
37.230       153
37.240        87
37.250       120
37.260       133
37.270       160
37.280       140
37.290        87
37.300        73
37.310       127
37.320       160
37.330        93
37.340       133
37.350        80
37.360       133
37.370       113
37.380        73
37.390       120
37.400        73
37.410        60
37.420       133
37.430       107
37.440       127
37.450       113
37.460        67
37.470       153
37.480       100
37.490       167
37.500       107
37.510        93
37.520       113
37.530       140
37.540       120
37.550       100
37.560       140
37.570       120
37.580       120
37.590       140
37.600        93
37.610       153
37.620        67
37.630       120
37.640       100
37.650        80
37.660       107
37.670       180
37.680        53
37.690        67
37.700       107
37.710       133
37.720        87
37.730       140
37.740        60
37.750       127
37.760       107
37.770       113
37.780        73
37.790        80
37.800       133
37.810        87
37.820       127
37.830        80
37.840       113
37.850        87
37.860        53
37.870       100
37.880       113
37.890        80
37.900       120
37.910        87
37.920        87
37.930        80
37.940        93
37.950       127
37.960        47
37.970        53
37.980        73
37.990        87
38.000       113
38.010        87
38.020       113
38.030       107
38.040        67
38.050       120
38.060       113
38.070        80
38.080        73
38.090       100
38.100        93
38.110        60
38.120       120
38.130        60
38.140       113
38.150        80
38.160        47
38.170        60
38.180        53
38.190        80
38.200        53
38.210       100
38.220        87
38.230        67
38.240       120
38.250       107
38.260        67
38.270        87
38.280       100
38.290       113
38.300       120
38.310        93
38.320        93
38.330        73
38.340       100
38.350        93
38.360        93
38.370        67
38.380        73
38.390       120
38.400       147
38.410        80
38.420       113
38.430       140
38.440       107
38.450        87
38.460        67
38.470       140
38.480        80
38.490       133
38.500        47
38.510        80
38.520        80
38.530        47
38.540        73
38.550        47
38.560        67
38.570        80
38.580       133
38.590        87
38.600        47
38.610       100
38.620        80
38.630        67
38.640       107
38.650        73
38.660        80
38.670       107
38.680       107
38.690        40
38.700        67
38.710       100
38.720       133
38.730        80
38.740       107
38.750       120
38.760        93
38.770        67
38.780       120
38.790       113
38.800       107
38.810        60
38.820        47
38.830        33
38.840        47
38.850        87
38.860       133
38.870        80
38.880       120
38.890       113
38.900        87
38.910        73
38.920        53
38.930       100
38.940        80
38.950        80
38.960        60
38.970        53
38.980       100
38.990        60
39.000        67
39.010       140
39.020        67
39.030        67
39.040        60
39.050        73
39.060        73
39.070        80
39.080        80
39.090        87
39.100        80
39.110        67
39.120       113
39.130        87
39.140        73
39.150        60
39.160        93
39.170        87
39.180        73
39.190        80
39.200        67
39.210        53
39.220        87
39.230        53
39.240        93
39.250        87
39.260        93
39.270       107
39.280        87
39.290        80
39.300        67
39.310        73
39.320        60
39.330        87
39.340        80
39.350        87
39.360        60
39.370        60
39.380        93
39.390        80
39.400        73
39.410        67
39.420        87
39.430        53
39.440        40
39.450        60
39.460       113
39.470        40
39.480        40
39.490        80
39.500        53
39.510       100
39.520        47
39.530        53
39.540        80
39.550        87
39.560        60
39.570        67
39.580        47
39.590        73
39.600        87
39.610        73
39.620        60
39.630        60
39.640        53
39.650        87
39.660       107
39.670        67
39.680        67
39.690        73
39.700        73
39.710        53
39.720        73
39.730        67
39.740        67
39.750        40
39.760       100
39.770        60
39.780        80
39.790        53
39.800        60
39.810        87
39.820        67
39.830       100
39.840        93
39.850        60
39.860        67
39.870        67
39.880        93
39.890        73
39.900        33
39.910        93
39.920        67
39.930        87
39.940        73
39.950        60
39.960        53
39.970        80
39.980        87
39.990        73
40.000        60
40.010       100
40.020        80
40.030        47
40.040        87
40.050        93
40.060        73
40.070        67
40.080        47
40.090       107
40.100        67
40.110       120
40.120        87
40.130        47
40.140       133
40.150        80
40.160        80
40.170        80
40.180        80
40.190        80
40.200        80
40.210       100
40.220        87
40.230        60
40.240       107
40.250        47
40.260       120
40.270        87
40.280        87
40.290        40
40.300        73
40.310        60
40.320        93
40.330        73
40.340        73
40.350        33
40.360        93
40.370        87
40.380        13
40.390        73
40.400        40
40.410        93
40.420        40
40.430        53
40.440        60
40.450       113
40.460        33
40.470        53
40.480       107
40.490        53
40.500        53
40.510        47
40.520        53
40.530       100
40.540        53
40.550        87
40.560        47
40.570        67
40.580        80
40.590        47
40.600        67
40.610        67
40.620        47
40.630        53
40.640        53
40.650        47
40.660        60
40.670        33
40.680        60
40.690        53
40.700        67
40.710        47
40.720        33
40.730        47
40.740        67
40.750        87
40.760        67
40.770        53
40.780        53
40.790        33
40.800        73
40.810        60
40.820        80
40.830        47
40.840        67
40.850        40
40.860       107
40.870       100
40.880        53
40.890        67
40.900        53
40.910        40
40.920        80
40.930        93
40.940        73
40.950        60
40.960        80
40.970        40
40.980        33
40.990        27
41.000        53
41.010        60
41.020        40
41.030        60
41.040        27
41.050        80
41.060        87
41.070        27
41.080        73
41.090        60
41.100        67
41.110        60
41.120        60
41.130        80
41.140        67
41.150        60
41.160        40
41.170        27
41.180        93
41.190        47
41.200        80
41.210        53
41.220        53
41.230        53
41.240        60
41.250        47
41.260        47
41.270        80
41.280        47
41.290       107
41.300        67
41.310        67
41.320        53
41.330        40
41.340        53
41.350        73
41.360        27
41.370        60
41.380        73
41.390        73
41.400        60
41.410        67
41.420        53
41.430        27
41.440        33
41.450        67
41.460        47
41.470        73
41.480        47
41.490        73
41.500        73
41.510        47
41.520        47
41.530        47
41.540        87
41.550        53
41.560        93
41.570        60
41.580        73
41.590        93
41.600        53
41.610        73
41.620        53
41.630        87
41.640        53
41.650        40
41.660        80
41.670        87
41.680        67
41.690        80
41.700        60
41.710        93
41.720        60
41.730        87
41.740        53
41.750        47
41.760        87
41.770        47
41.780        27
41.790        60
41.800        27
41.810        40
41.820        47
41.830        73
41.840        80
41.850        60
41.860        47
41.870        40
41.880        47
41.890        67
41.900        53
41.910        73
41.920        47
41.930        60
41.940        73
41.950       100
41.960        80
41.970        47
41.980        60
41.990        40
42.000        73
42.010        47
42.020        33
42.030        60
42.040        67
42.050        67
42.060        47
42.070        67
42.080        80
42.090        47
42.100        27
42.110        67
42.120        60
42.130        20
42.140        87
42.150        53
42.160        27
42.170        47
42.180        40
42.190        40
42.200       100
42.210        33
42.220        60
42.230        40
42.240        27
42.250        60
42.260        40
42.270        53
42.280        47
42.290        67
42.300        80
42.310        80
42.320        40
42.330        67
42.340        27
42.350        60
42.360        33
42.370        40
42.380        87
42.390        33
42.400        47
42.410        80
42.420        53
42.430        40
42.440        60
42.450        40
42.460        20
42.470        27
42.480        87
42.490        13
42.500        47
42.510        47
42.520         7
42.530        60
42.540        80
42.550        60
42.560        27
42.570        47
42.580        27
42.590        47
42.600        33
42.610        33
42.620        67
42.630        47
42.640        67
42.650        40
42.660        67
42.670        47
42.680        47
42.690        67
42.700        73
42.710       120
42.720        67
42.730        67
42.740        47
42.750        93
42.760        93
42.770        53
42.780        40
42.790        67
42.800       127
42.810        60
42.820        53
42.830        53
42.840        60
42.850        33
42.860        33
42.870       100
42.880        67
42.890        93
42.900        67
42.910        47
42.920        47
42.930        60
42.940        33
42.950        47
42.960        53
42.970        47
42.980        33
42.990        80
43.000        40
43.010        67
43.020        87
43.030        67
43.040        40
43.050        87
43.060        33
43.070        27
43.080        60
43.090        40
43.100        40
43.110        53
43.120        60
43.130        53
43.140        93
43.150        53
43.160        93
43.170        73
43.180        47
43.190        47
43.200        53
43.210        40
43.220        53
43.230        20
43.240        27
43.250        60
43.260        33
43.270        53
43.280        33
43.290        47
43.300        47
43.310        60
43.320        47
43.330        53
43.340        53
43.350        33
43.360        33
43.370        40
43.380        47
43.390        73
43.400        27
43.410        80
43.420        53
43.430        73
43.440        53
43.450        60
43.460        60
43.470        47
43.480        67
43.490        40
43.500        67
43.510        73
43.520        53
43.530        53
43.540        60
43.550         7
43.560        80
43.570        60
43.580        33
43.590        67
43.600        33
43.610        13
43.620        67
43.630        47
43.640        53
43.650        27
43.660        47
43.670        60
43.680        67
43.690        53
43.700        73
43.710        53
43.720        67
43.730        20
43.740        53
43.750         0
43.760        47
43.770        47
43.780        67
43.790        93
43.800        47
43.810        67
43.820        40
43.830        53
43.840        33
43.850        73
43.860        47
43.870        53
43.880        73
43.890        33
43.900        87
43.910        67
43.920        33
43.930        53
43.940        40
43.950        47
43.960        60
43.970        40
43.980        40
43.990        40
44.000        53
44.010        67
44.020        47
44.030        93
44.040        27
44.050        27
44.060        60
44.070        33
44.080        73
44.090        33
44.100        20
44.110        73
44.120       100
44.130        80
44.140       113
44.150        33
44.160        60
44.170        53
44.180       107
44.190        33
44.200        87
44.210        87
44.220        73
44.230        33
44.240        80
44.250       100
44.260        40
44.270        40
44.280        47
44.290        80
44.300        33
44.310        20
44.320        67
44.330        60
44.340        93
44.350        20
44.360        60
44.370        60
44.380        33
44.390        67
44.400        60
44.410        73
44.420        53
44.430        40
44.440        33
44.450        73
44.460        40
44.470        40
44.480        73
44.490        80
44.500        40
44.510        33
44.520        53
44.530        47
44.540        53
44.550        53
44.560        67
44.570        40
44.580        73
44.590        40
44.600        40
44.610        27
44.620        40
44.630        47
44.640        33
44.650        60
44.660        60
44.670        47
44.680        60
44.690        53
44.700        47
44.710        67
44.720        67
44.730        40
44.740        73
44.750        40
44.760        33
44.770        53
44.780        40
44.790        67
44.800        60
44.810        60
44.820        40
44.830        33
44.840        27
44.850        40
44.860        47
44.870        40
44.880        60
44.890        40
44.900        80
44.910        40
44.920        47
44.930        47
44.940        87
44.950        20
44.960        27
44.970        20
44.980        60
44.990        47
45.000        53
45.010        80
45.020        33
45.030        40
45.040        53
45.050        20
45.060        80
45.070        53
45.080        53
45.090        13
45.100        53
45.110        73
45.120        60
45.130        40
45.140        67
45.150        47
45.160        80
45.170        40
45.180        67
45.190        47
45.200        60
45.210        40
45.220        47
45.230        60
45.240        33
45.250        47
45.260        67
45.270        27
45.280        67
45.290        80
45.300        47
45.310        33
45.320        27
45.330        27
45.340        60
45.350        33
45.360        80
45.370        47
45.380        40
45.390        27
45.400        20
45.410        60
45.420        27
45.430        60
45.440        47
45.450        47
45.460        53
45.470        53
45.480        33
45.490        47
45.500        73
45.510        40
45.520        67
45.530        47
45.540        67
45.550        67
45.560        53
45.570        73
45.580        93
45.590        73
45.600        40
45.610        80
45.620        33
45.630        33
45.640        33
45.650        93
45.660        73
45.670        67
45.680        60
45.690        40
45.700        53
45.710        47
45.720        67
45.730        60
45.740        53
45.750        20
45.760        40
45.770        40
45.780        47
45.790        40
45.800        80
45.810        53
45.820        27
45.830        60
45.840        60
45.850        53
45.860        60
45.870        47
45.880        33
45.890       100
45.900        40
45.910        47
45.920        67
45.930        73
45.940        27
45.950        47
45.960        53
45.970        60
45.980        93
45.990        73
46.000        60
46.010        80
46.020        27
46.030        73
46.040        73
46.050        47
46.060        73
46.070        87
46.080        53
46.090        60
46.100        40
46.110        33
46.120        80
46.130       100
46.140        67
46.150        60
46.160        33
46.170        40
46.180        27
46.190        60
46.200        53
46.210        33
46.220        60
46.230        53
46.240        33
46.250        40
46.260        47
46.270        53
46.280        40
46.290       100
46.300        80
46.310        53
46.320        27
46.330        47
46.340        60
46.350        33
46.360        53
46.370        40
46.380        33
46.390        33
46.400       100
46.410        33
46.420        33
46.430        53
46.440        60
46.450        47
46.460        53
46.470        13
46.480        27
46.490        33
46.500        53
46.510        27
46.520        60
46.530        67
46.540        40
46.550        47
46.560        60
46.570        40
46.580        60
46.590        60
46.600        47
46.610        73
46.620        40
46.630        40
46.640        40
46.650        80
46.660        73
46.670        53
46.680        60
46.690        40
46.700        40
46.710       113
46.720        40
46.730        93
46.740        93
46.750       107
46.760        53
46.770       113
46.780        73
46.790        93
46.800       100
46.810       133
46.820       120
46.830       100
46.840       107
46.850       120
46.860       167
46.870        93
46.880       107
46.890       120
46.900        80
46.910        53
46.920       127
46.930        73
46.940        87
46.950       127
46.960       100
46.970       133
46.980        67
46.990       167
47.000       113
47.010       187
47.020       147
47.030       267
47.040       233
47.050       147
47.060       227
47.070       200
47.080       187
47.090       200
47.100       267
47.110       247
47.120       320
47.130       413
47.140       580
47.150       766
47.160      1200
47.170      1519
47.180      1959
47.190      2099
47.200      2466
47.210      2339
47.220      2212
47.230      1893
47.240      1439
47.250      1140
47.260       813
47.270       586
47.280       553
47.290       340
47.300       327
47.310       273
47.320       247
47.330       180
47.340       253
47.350       180
47.360       113
47.370       200
47.380       100
47.390       113
47.400       107
47.410       227
47.420       107
47.430       133
47.440        93
47.450        67
47.460        53
47.470       133
47.480       107
47.490       140
47.500       140
47.510        80
47.520       127
47.530        93
47.540        93
47.550       120
47.560        87
47.570        67
47.580        87
47.590       120
47.600        67
47.610        87
47.620        80
47.630        60
47.640        80
47.650        60
47.660       107
47.670        87
47.680        80
47.690        53
47.700        60
47.710        40
47.720        93
47.730        60
47.740        80
47.750        53
47.760        87
47.770        67
47.780        87
47.790        73
47.800        47
47.810        73
47.820        53
47.830        67
47.840        80
47.850        33
47.860        53
47.870        93
47.880        53
47.890        20
47.900        80
47.910        87
47.920        87
47.930        33
47.940        67
47.950        80
47.960        67
47.970        47
47.980        67
47.990        53
48.000        47
48.010        93
48.020        40
48.030        60
48.040       113
48.050        33
48.060       100
48.070        87
48.080        47
48.090        20
48.100        60
48.110        47
48.120        53
48.130        33
48.140        67
48.150       107
48.160       113
48.170        73
48.180        67
48.190        47
48.200        60
48.210        27
48.220        60
48.230        93
48.240        67
48.250        67
48.260        60
48.270        87
48.280        80
48.290        93
48.300        53
48.310        53
48.320        53
48.330        47
48.340        73
48.350        67
48.360        53
48.370        73
48.380        87
48.390        60
48.400       113
48.410       113
48.420        87
48.430        60
48.440        80
48.450        60
48.460       120
48.470       120
48.480        93
48.490        80
48.500        67
48.510        80
48.520        73
48.530        40
48.540        53
48.550        53
48.560        53
48.570        80
48.580        47
48.590        60
48.600        73
48.610        93
48.620        67
48.630        40
48.640       107
48.650        47
48.660        40
48.670        47
48.680        27
48.690        20
48.700        67
48.710        33
48.720        47
48.730       113
48.740        87
48.750        47
48.760        73
48.770        40
48.780        60
48.790        73
48.800        93
48.810        53
48.820        47
48.830         7
48.840        67
48.850        33
48.860        33
48.870        80
48.880        67
48.890        80
48.900        73
48.910        40
48.920        53
48.930        67
48.940        47
48.950        47
48.960        53
48.970        40
48.980        53
48.990       100
49.000        53
49.010        47
49.020        40
49.030        27
49.040        27
49.050        53
49.060        27
49.070        27
49.080        53
49.090        67
49.100        40
49.110        13
49.120        80
49.130        33
49.140        33
49.150        33
49.160        67
49.170        40
49.180        60
49.190        73
49.200        67
49.210        53
49.220        53
49.230        73
49.240        53
49.250        33
49.260        73
49.270        93
49.280        80
49.290        47
49.300        53
49.310        67
49.320        53
49.330        13
49.340        33
49.350        67
49.360        53
49.370        80
49.380        60
49.390        80
49.400        80
49.410        60
49.420        87
49.430        67
49.440        80
49.450        33
49.460        73
49.470        53
49.480       107
49.490        53
49.500        60
49.510        53
49.520        33
49.530        47
49.540        53
49.550        40
49.560        20
49.570        47
49.580        60
49.590        27
49.600        80
49.610        27
49.620        27
49.630        20
49.640        67
49.650        60
49.660        53
49.670        87
49.680       113
49.690       107
49.700        53
49.710        47
49.720        67
49.730        53
49.740        40
49.750        13
49.760        80
49.770        93
49.780        40
49.790        27
49.800       100
49.810       107
49.820       133
49.830        47
49.840        93
49.850        87
49.860       127
49.870        80
49.880        93
49.890        80
49.900        80
49.910       113
49.920       107
49.930        73
49.940       120
49.950        93
49.960        93
49.970       120
49.980        87
49.990        80
50.000        47
50.010        67
50.020        93
50.030        73
50.040       100
50.050        87
50.060       100
50.070        80
50.080       113
50.090       107
50.100        73
50.110        33
50.120        60
50.130        53
50.140        53
50.150        93
50.160       100
50.170        87
50.180        73
50.190       120
50.200        80
50.210        93
50.220       100
50.230       100
50.240        53
50.250        67
50.260       100
50.270        53
50.280        60
50.290        33
50.300       100
50.310        60
50.320        53
50.330        60
50.340        80
50.350        40
50.360        60
50.370        87
50.380        80
50.390        67
50.400        53
50.410        67
50.420        47
50.430        33
50.440        33
50.450        53
50.460        47
50.470        33
50.480       100
50.490        60
50.500        27
50.510        67
50.520        73
50.530        33
50.540        53
50.550        73
50.560        40
50.570        93
50.580        67
50.590       113
50.600        87
50.610        87
50.620       120
50.630       147
50.640       187
50.650       153
50.660       227
50.670       267
50.680       327
50.690       387
50.700       493
50.710       460
50.720       500
50.730       407
50.740       600
50.750       666
50.760       540
50.770       546
50.780       673
50.790       593
50.800       500
50.810       480
50.820       540
50.830       626
50.840       560
50.850       686
50.860       513
50.870       413
50.880       546
50.890       493
50.900       633
50.910       540
50.920       520
50.930       473
50.940       626
50.950       513
50.960       653
50.970       566
50.980       553
50.990       586
51.000       593
51.010       586
51.020       620
51.030       640
51.040       600
51.050       586
51.060       486
51.070       546
51.080       593
51.090       653
51.100       553
51.110       626
51.120       480
51.130       586
51.140       586
51.150       653
51.160       566
51.170       580
51.180       586
51.190       573
51.200       573
51.210       520
51.220       593
51.230       620
51.240       586
51.250       606
51.260       593
51.270       546
51.280       533
51.290       553
51.300       506
51.310       693
51.320       553
51.330       633
51.340       560
51.350       533
51.360       533
51.370       600
51.380       600
51.390       566
51.400       553
51.410       526
51.420       526
51.430       526
51.440       593
51.450       633
51.460       566
51.470       600
51.480       520
51.490       666
51.500       626
51.510       526
51.520       560
51.530       673
51.540       646
51.550       626
51.560       526
51.570       606
51.580       526
51.590       573
51.600       693
51.610       620
51.620       620
51.630       660
51.640       560
51.650       533
51.660       573
51.670       633
51.680       633
51.690       633
51.700       540
51.710       633
51.720       713
51.730       500
51.740       533
51.750       666
51.760       766
51.770       780
51.780       760
51.790       680
51.800       573
51.810       640
51.820       666
51.830       573
51.840       653
51.850       706
51.860       826
51.870       893
51.880       820
51.890       660
51.900       706
51.910       813
51.920       826
51.930       853
51.940       720
51.950       826
51.960       693
51.970       846
51.980       813
51.990       813
52.000       880
52.010       873
52.020       773
52.030       813
52.040       820
52.050       840
52.060       840
52.070       973
52.080       913
52.090      1026
52.100      1073
52.110      1080
52.120       986
52.130      1093
52.140      1160
52.150      1113
52.160      1286
52.170      1200
52.180      1140
52.190      1299
52.200      1313
52.210      1473
52.220      1406
52.230      1586
52.240      1693
52.250      1853
52.260      1746
52.270      2152
52.280      2392
52.290      2532
52.300      3105
52.310      3505
52.320      3998
52.330      4671
52.340      5338
52.350      6084
52.360      6931
52.370      7864
52.380      8537
52.390      9283
52.400     10229
52.410     11109
52.420     11469
52.430     12682
52.440     13121
52.450     13834
52.460     14561
52.470     15114
52.480     16813
52.490     18619
52.500     21318
52.510     25137
52.520     32207
52.530     46361
52.540     71165
52.550    111655
52.560    150853
52.570    185053
52.580    209836
52.590    220765
52.600    223177
52.610    216867
52.620    202639
52.630    172284
52.640    132580
52.650     94562
52.660     66160
52.670     56711
52.680     59729
52.690     74817
52.700     93609
52.710    113221
52.720    129428
52.730    136885
52.740    138631
52.750    133060
52.760    121705
52.770     99420
52.780     73750
52.790     49400
52.800     32774
52.810     22104
52.820     15754
52.830     12288
52.840     10249
52.850      8703
52.860      7290
52.870      6431
52.880      5225
52.890      4818
52.900      4165
52.910      3912
52.920      3279
52.930      2866
52.940      2925
52.950      2672
52.960      2406
52.970      2232
52.980      2013
52.990      1959
53.000      1899
53.010      1899
53.020      1813
53.030      1773
53.040      1873
53.050      1539
53.060      1599
53.070      1339
53.080      1466
53.090      1399
53.100      1339
53.110      1233
53.120      1259
53.130      1126
53.140      1120
53.150      1273
53.160      1166
53.170      1126
53.180      1060
53.190      1160
53.200       953
53.210      1240
53.220      1060
53.230      1046
53.240       913
53.250      1093
53.260       900
53.270      1073
53.280       886
53.290       946
53.300       973
53.310       726
53.320       873
53.330       993
53.340      1020
53.350      1026
53.360       780
53.370       646
53.380       853
53.390       780
53.400       740
53.410       673
53.420       786
53.430       673
53.440       733
53.450       706
53.460       600
53.470       720
53.480       626
53.490       673
53.500       666
53.510       680
53.520       620
53.530       666
53.540       626
53.550       586
53.560       586
53.570       680
53.580       580
53.590       700
53.600       553
53.610       600
53.620       660
53.630       666
53.640       580
53.650       540
53.660       546
53.670       580
53.680       500
53.690       626
53.700       640
53.710       393
53.720       706
53.730       780
53.740       593
53.750       526
53.760       506
53.770       606
53.780       553
53.790       407
53.800       546
53.810       520
53.820       553
53.830       493
53.840       526
53.850       466
53.860       480
53.870       413
53.880       480
53.890       493
53.900       606
53.910       520
53.920       533
53.930       546
53.940       480
53.950       513
53.960       433
53.970       500
53.980       533
53.990       533
54.000       546
54.010       506
54.020       513
54.030       466
54.040       506
54.050       420
54.060       446
54.070       626
54.080       460
54.090       433
54.100       460
54.110       446
54.120       426
54.130       500
54.140       420
54.150       367
54.160       460
54.170       387
54.180       473
54.190       500
54.200       526
54.210       546
54.220       380
54.230       433
54.240       473
54.250       513
54.260       387
54.270       466
54.280       486
54.290       473
54.300       407
54.310       466
54.320       367
54.330       387
54.340       300
54.350       413
54.360       500
54.370       393
54.380       453
54.390       446
54.400       493
54.410       513
54.420       440
54.430       360
54.440       313
54.450       453
54.460       513
54.470       546
54.480       453
54.490       426
54.500       380
54.510       493
54.520       373
54.530       413
54.540       387
54.550       400
54.560       333
54.570       400
54.580       367
54.590       380
54.600       460
54.610       333
54.620       413
54.630       413
54.640       387
54.650       460
54.660       453
54.670       380
54.680       426
54.690       420
54.700       433
54.710       433
54.720       407
54.730       400
54.740       393
54.750       393
54.760       420
54.770       347
54.780       400
54.790       313
54.800       446
54.810       360
54.820       407
54.830       340
54.840       453
54.850       420
54.860       380
54.870       407
54.880       380
54.890       367
54.900       313
54.910       440
54.920       387
54.930       313
54.940       313
54.950       373
54.960       407
54.970       360
54.980       407
54.990       466
55.000       407
55.010       287
55.020       367
55.030       453
55.040       393
55.050       426
55.060       367
55.070       327
55.080       300
55.090       353
55.100       367
55.110       407
55.120       340
55.130       413
55.140       387
55.150       313
55.160       367
55.170       373
55.180       367
55.190       287
55.200       307
55.210       287
55.220       400
55.230       360
55.240       287
55.250       407
55.260       387
55.270       273
55.280       300
55.290       300
55.300       287
55.310       367
55.320       293
55.330       307
55.340       233
55.350       260
55.360       280
55.370       400
55.380       393
55.390       347
55.400       333
55.410       347
55.420       293
55.430       327
55.440       347
55.450       253
55.460       287
55.470       347
55.480       387
55.490       333
55.500       340
55.510       446
55.520       347
55.530       347
55.540       307
55.550       347
55.560       473
55.570       320
55.580       333
55.590       360
55.600       340
55.610       353
55.620       320
55.630       320
55.640       333
55.650       340
55.660       273
55.670       293
55.680       360
55.690       327
55.700       320
55.710       300
55.720       393
55.730       233
55.740       253
55.750       247
55.760       280
55.770       340
55.780       280
55.790       373
55.800       300
55.810       307
55.820       353
55.830       313
55.840       360
55.850       353
55.860       313
55.870       267
55.880       260
55.890       247
55.900       413
55.910       280
55.920       287
55.930       373
55.940       440
55.950       293
55.960       320
55.970       293
55.980       227
55.990       307
56.000       280
56.010       293
56.020       187
56.030       340
56.040       253
56.050       340
56.060       307
56.070       320
56.080       320
56.090       340
56.100       273
56.110       347
56.120       347
56.130       333
56.140       293
56.150       307
56.160       340
56.170       260
56.180       300
56.190       327
56.200       293
56.210       327
56.220       347
56.230       333
56.240       260
56.250       333
56.260       293
56.270       313
56.280       293
56.290       220
56.300       400
56.310       213
56.320       213
56.330       293
56.340       247
56.350       273
56.360       213
56.370       300
56.380       333
56.390       327
56.400       207
56.410       267
56.420       273
56.430       253
56.440       353
56.450       307
56.460       213
56.470       260
56.480       193
56.490       300
56.500       353
56.510       267
56.520       333
56.530       280
56.540       340
56.550       260
56.560       313
56.570       340
56.580       260
56.590       293
56.600       387
56.610       153
56.620       260
56.630       213
56.640       393
56.650       193
56.660       320
56.670       360
56.680       340
56.690       300
56.700       193
56.710       287
56.720       260
56.730       247
56.740       307
56.750       260
56.760       267
56.770       307
56.780       313
56.790       333
56.800       180
56.810       267
56.820       253
56.830       187
56.840       220
56.850       267
56.860       307
56.870       227
56.880       340
56.890       280
56.900       253
56.910       287
56.920       240
56.930       327
56.940       247
56.950       247
56.960       273
56.970       293
56.980       200
56.990       220
57.000       227
57.010       367
57.020       293
57.030       260
57.040       180
57.050       280
57.060       307
57.070       220
57.080       260
57.090       253
57.100       293
57.110       227
57.120       267
57.130       220
57.140       227
57.150       153
57.160       207
57.170       253
57.180       213
57.190       153
57.200       220
57.210       240
57.220       247
57.230       273
57.240       247
57.250       227
57.260       287
57.270       287
57.280       233
57.290       260
57.300       227
57.310       207
57.320       207
57.330       253
57.340       247
57.350       380
57.360       307
57.370       307
57.380       253
57.390       267
57.400       213
57.410       207
57.420       273
57.430       313
57.440       267
57.450       240
57.460       273
57.470       220
57.480       153
57.490       307
57.500       253
57.510       233
57.520       280
57.530       233
57.540       227
57.550       200
57.560       300
57.570       227
57.580       253
57.590       213
57.600       273
57.610       187
57.620       247
57.630       213
57.640       240
57.650       220
57.660       240
57.670       233
57.680       147
57.690       260
57.700       200
57.710       160
57.720       213
57.730       220
57.740       220
57.750       200
57.760       233
57.770       200
57.780       300
57.790       220
57.800       240
57.810       193
57.820       193
57.830       213
57.840       300
57.850       200
57.860       220
57.870       300
57.880       253
57.890       207
57.900       213
57.910       247
57.920       247
57.930       333
57.940       227
57.950       200
57.960       233
57.970       320
57.980       253
57.990       227
58.000       167
58.010       193
58.020       220
58.030       187
58.040       213
58.050       180
58.060       287
58.070       273
58.080       213
58.090       220
58.100       193
58.110       167
58.120       227
58.130       247
58.140       173
58.150       213
58.160       353
58.170       233
58.180       247
58.190       253
58.200       187
58.210       207
58.220       200
58.230       293
58.240       247
58.250       227
58.260       233
58.270       193
58.280       260
58.290       167
58.300       227
58.310       227
58.320       233
58.330       213
58.340       233
58.350       220
58.360       233
58.370       267
58.380       267
58.390       167
58.400       193
58.410       207
58.420       260
58.430       207
58.440       193
58.450       267
58.460       240
58.470       220
58.480       220
58.490       253
58.500       173
58.510       207
58.520       153
58.530       173
58.540       213
58.550       233
58.560       207
58.570       160
58.580       240
58.590       193
58.600       133
58.610       160
58.620       233
58.630       307
58.640       187
58.650       213
58.660       180
58.670       180
58.680       207
58.690       200
58.700       227
58.710       147
58.720       233
58.730       173
58.740       220
58.750       160
58.760       133
58.770       133
58.780       227
58.790       213
58.800       133
58.810       193
58.820       187
58.830       180
58.840       227
58.850       207
58.860       220
58.870       227
58.880       180
58.890       133
58.900       213
58.910       180
58.920       207
58.930       153
58.940       233
58.950       207
58.960       233
58.970       213
58.980       213
58.990       127
59.000       167
59.010       140
59.020       240
59.030       233
59.040       127
59.050       167
59.060       133
59.070       233
59.080       133
59.090       180
59.100       193
59.110       207
59.120       133
59.130       213
59.140       180
59.150       200
59.160       193
59.170       227
59.180       147
59.190       133
59.200       173
59.210       167
59.220       253
59.230       213
59.240       207
59.250       187
59.260       147
59.270       173
59.280       120
59.290       167
59.300       187
59.310       193
59.320       207
59.330       107
59.340       273
59.350       180
59.360       200
59.370       240
59.380       140
59.390       213
59.400       220
59.410       180
59.420       167
59.430       167
59.440       193
59.450       180
59.460       200
59.470       187
59.480       180
59.490       173
59.500       167
59.510       173
59.520       140
59.530       200
59.540       187
59.550       207
59.560       107
59.570       120
59.580       213
59.590       147
59.600       180
59.610       140
59.620       180
59.630       173
59.640       147
59.650       133
59.660       160
59.670       240
59.680       167
59.690       180
59.700       167
59.710       180
59.720       193
59.730       173
59.740       193
59.750       140
59.760       187
59.770       193
59.780       160
59.790       180
59.800       133
59.810       153
59.820       240
59.830       240
59.840       140
59.850       160
59.860       167
59.870       220
59.880       167
59.890       207
59.900       233
59.910       153
59.920       200
59.930       147
59.940       213
59.950       160
59.960       173
59.970       200
59.980       233
59.990        73
60.000        73
