20.000        67
20.010        67
20.020        93
20.030       107
20.040        87
20.050        87
20.060        87
20.070        87
20.080       120
20.090       153
20.100        60
20.110        67
20.120       100
20.130       100
20.140       127
20.150        67
20.160        87
20.170       113
20.180        47
20.190        93
20.200        73
20.210       113
20.220       140
20.230       107
20.240        73
20.250       100
20.260       127
20.270        93
20.280       100
20.290        87
20.300       127
20.310        60
20.320        60
20.330        80
20.340        93
20.350       147
20.360       133
20.370       100
20.380        87
20.390       127
20.400       140
20.410       160
20.420        80
20.430       113
20.440        87
20.450       133
20.460       147
20.470        80
20.480        87
20.490       113
20.500       127
20.510       140
20.520        80
20.530        87
20.540       160
20.550        53
20.560        73
20.570        80
20.580       127
20.590       107
20.600       100
20.610       113
20.620       160
20.630       173
20.640        73
20.650       153
20.660       133
20.670        73
20.680       107
20.690       100
20.700       107
20.710       160
20.720        93
20.730        87
20.740        87
20.750       133
20.760        93
20.770        53
20.780       107
20.790        67
20.800       140
20.810       113
20.820        67
20.830        80
20.840       113
20.850       100
20.860       120
20.870       100
20.880        67
20.890       113
20.900       120
20.910       193
20.920       113
20.930        60
20.940       113
20.950        93
20.960       153
20.970       133
20.980        80
20.990       153
21.000       133
21.010        80
21.020        93
21.030       160
21.040       100
21.050       107
21.060        87
21.070       133
21.080       107
21.090        87
21.100       107
21.110        93
21.120        87
21.130        67
21.140        40
21.150       153
21.160       127
21.170       127
21.180       120
21.190       147
21.200        73
21.210        67
21.220       107
21.230       140
21.240       100
21.250        73
21.260       107
21.270        67
21.280        80
21.290       113
21.300       100
21.310       113
21.320       107
21.330       127
21.340        87
21.350       120
21.360       107
21.370       100
21.380       120
21.390       127
21.400        93
21.410       147
21.420       120
21.430       100
21.440       120
21.450       140
21.460       140
21.470        93
21.480        93
21.490        73
21.500       140
21.510       127
21.520        73
21.530        73
21.540       100
21.550       107
21.560       153
21.570       127
21.580       153
21.590       160
21.600        93
21.610        87
21.620       147
21.630       120
21.640        80
21.650       140
21.660        73
21.670       107
21.680       153
21.690       127
21.700        93
21.710       180
21.720       100
21.730       127
21.740       120
21.750       200
21.760       127
21.770       127
21.780       133
21.790       120
21.800       207
21.810       100
21.820       180
21.830       100
21.840        93
21.850       113
21.860       160
21.870       207
21.880       153
21.890       120
21.900        80
21.910       147
21.920       147
21.930        80
21.940       133
21.950       127
21.960       187
21.970       233
21.980        47
21.990       127
22.000       133
22.010       113
22.020        67
22.030       133
22.040       100
22.050       180
22.060       147
22.070        87
22.080       133
22.090        87
22.100        93
22.110       193
22.120       147
22.130       167
22.140       160
22.150       120
22.160       140
22.170       133
22.180       193
22.190       140
22.200       107
22.210       200
22.220       120
22.230       147
22.240       153
22.250       167
22.260       207
22.270       120
22.280        93
22.290       167
22.300       140
22.310       107
22.320       140
22.330       167
22.340       120
22.350       107
22.360       133
22.370       140
22.380       153
22.390       133
22.400       187
22.410       193
22.420       140
22.430       167
22.440       193
22.450       173
22.460       113
22.470       113
22.480       153
22.490       133
22.500       240
22.510       200
22.520       167
22.530       147
22.540       140
22.550       200
22.560       180
22.570       173
22.580       127
22.590       160
22.600       180
22.610       187
22.620       120
22.630       133
22.640       120
22.650       207
22.660       133
22.670       140
22.680       207
22.690       120
22.700       140
22.710       100
22.720       113
22.730       147
22.740       227
22.750       193
22.760       107
22.770       173
22.780       220
22.790       233
22.800       107
22.810       147
22.820       120
22.830       167
22.840       160
22.850       173
22.860       167
22.870       233
22.880       107
22.890       153
22.900       187
22.910       167
22.920       213
22.930       213
22.940       193
22.950       260
22.960       227
22.970       207
22.980       167
22.990       247
23.000       233
23.010       180
23.020       253
23.030       267
23.040       233
23.050       307
23.060       453
23.070       526
23.080       846
23.090      1240
23.100      1293
23.110      1266
23.120      1553
23.130      1160
23.140      1000
23.150       653
23.160       606
23.170       420
23.180       360
23.190       267
23.200       287
23.210       273
23.220       300
23.230       267
23.240       233
23.250       220
23.260       187
23.270       200
23.280       213
23.290       260
23.300       127
23.310       200
23.320       213
23.330       273
23.340       180
23.350       147
23.360       140
23.370       180
23.380       227
23.390       147
23.400       233
23.410       160
23.420       180
23.430       207
23.440       240
23.450       187
23.460       187
23.470       213
23.480       127
23.490       253
23.500       193
23.510       140
23.520       173
23.530       160
23.540       187
23.550       140
23.560       180
23.570       133
23.580       213
23.590       213
23.600       193
23.610       233
23.620       167
23.630       187
23.640       167
23.650       213
23.660       187
23.670       207
23.680       173
23.690       187
23.700       193
23.710       180
23.720       220
23.730       220
23.740       207
23.750       233
23.760       147
23.770       173
23.780       153
23.790       200
23.800       227
23.810       180
23.820       153
23.830       173
23.840       180
23.850       200
23.860       180
23.870       200
23.880       140
23.890       260
23.900       180
23.910       213
23.920       133
23.930       200
23.940       187
23.950       153
23.960       193
23.970       173
23.980       207
23.990       187
24.000       173
24.010       180
24.020       147
24.030       220
24.040       187
24.050       207
24.060       267
24.070       173
24.080       240
24.090       253
24.100       213
24.110       213
24.120       240
24.130       240
24.140       167
24.150       200
24.160       233
24.170       160
24.180       167
24.190       180
24.200       220
24.210       140
24.220       187
24.230       187
24.240       227
24.250       187
24.260       240
24.270       233
24.280       213
24.290       207
24.300       220
24.310       133
24.320       207
24.330       227
24.340       173
24.350       227
24.360       200
24.370       180
24.380       200
24.390       193
24.400       187
24.410       180
24.420       187
24.430       193
24.440       253
24.450       160
24.460       193
24.470       173
24.480       253
24.490       187
24.500       293
24.510       207
24.520       113
24.530       133
24.540       233
24.550       193
24.560       193
24.570       187
24.580       213
24.590       180
24.600       167
24.610       247
24.620       207
24.630       167
24.640       247
24.650       220
24.660       187
24.670       233
24.680       193
24.690       253
24.700       267
24.710       347
24.720       340
24.730       433
24.740       440
24.750       613
24.760       820
24.770       666
24.780       546
24.790       660
24.800       600
24.810       713
24.820       673
24.830       700
24.840       666
24.850       720
24.860       813
24.870       846
24.880       626
24.890       686
24.900       746
24.910       740
24.920       666
24.930       753
24.940       680
24.950       900
24.960       660
24.970       740
24.980       713
24.990       706
25.000       806
25.010       746
25.020       593
25.030       680
25.040       693
25.050       666
25.060       780
25.070       846
25.080       746
25.090       740
25.100       626
25.110       880
25.120       733
25.130       853
25.140       740
25.150       873
25.160       820
25.170       873
25.180       926
25.190       706
25.200       786
25.210       800
25.220       926
25.230       733
25.240       800
25.250       866
25.260       866
25.270       893
25.280       866
25.290       793
25.300       886
25.310       826
25.320       940
25.330       920
25.340       953
25.350      1026
25.360       953
25.370      1053
25.380      1126
25.390      1266
25.400      1166
25.410      1273
25.420      1373
25.430      1413
25.440      1859
25.450      2239
25.460      2766
25.470      3232
25.480      3705
25.490      4572
25.500      5798
25.510      6451
25.520      7497
25.530      8123
25.540     10649
25.550     13388
25.560     21905
25.570     47694
25.580     86912
25.590    125203
25.600    149314
25.610    158037
25.620    161082
25.630    160043
25.640    157684
25.650    146921
25.660    129475
25.670    111875
25.680    100720
25.690     95862
25.700     88645
25.710     76549
25.720     56671
25.730     35879
25.740     21918
25.750     16360
25.760     13428
25.770     12562
25.780     10349
25.790      9376
25.800      7957
25.810      6757
25.820      5851
25.830      4532
25.840      4225
25.850      3305
25.860      2906
25.870      2246
25.880      1739
25.890      1346
25.900      1439
25.910      1306
25.920      1293
25.930      1286
25.940       993
25.950      1113
25.960      1113
25.970      1093
25.980      1133
25.990      1006
26.000       913
26.010       986
26.020       793
26.030       906
26.040       880
26.050       860
26.060       826
26.070       893
26.080       773
26.090       753
26.100       820
26.110       746
26.120       860
26.130       793
26.140       733
26.150       893
26.160       820
26.170       720
26.180       693
26.190       673
26.200       646
26.210       666
26.220       546
26.230       793
26.240       526
26.250       746
26.260       646
26.270       593
26.280       620
26.290       566
26.300       706
26.310       713
26.320       660
26.330       606
26.340       586
26.350       733
26.360       633
26.370       473
26.380       673
26.390       566
26.400       600
26.410       573
26.420       600
26.430       560
26.440       580
26.450       646
26.460       653
26.470       560
26.480       640
26.490       526
26.500       633
26.510       526
26.520       673
26.530       600
26.540       706
26.550       586
26.560       653
26.570       666
26.580       633
26.590       540
26.600       466
26.610       486
26.620       620
26.630       513
26.640       526
26.650       673
26.660       660
26.670       613
26.680       546
26.690       466
26.700       560
26.710       600
26.720       553
26.730       566
26.740       580
26.750       413
26.760       480
26.770       506
26.780       460
26.790       533
26.800       466
26.810       466
26.820       553
26.830       600
26.840       500
26.850       486
26.860       560
26.870       646
26.880       520
26.890       526
26.900       520
26.910       446
26.920       506
26.930       633
26.940       513
26.950       546
26.960       533
26.970       600
26.980       593
26.990       520
27.000       473
27.010       586
27.020       520
27.030       513
27.040       533
27.050       600
27.060       580
27.070       560
27.080       520
27.090       460
27.100       580
27.110       586
27.120       533
27.130       480
27.140       466
27.150       533
27.160       446
27.170       400
27.180       440
27.190       460
27.200       353
27.210       500
27.220       600
27.230       546
27.240       506
27.250       553
27.260       460
27.270       473
27.280       473
27.290       367
27.300       420
27.310       466
27.320       393
27.330       520
27.340       500
27.350       433
27.360       400
27.370       373
27.380       500
27.390       393
27.400       387
27.410       420
27.420       526
27.430       473
27.440       526
27.450       446
27.460       400
27.470       506
27.480       586
27.490       433
27.500       426
27.510       466
27.520       480
27.530       420
27.540       407
27.550       387
27.560       560
27.570       526
27.580       320
27.590       387
27.600       473
27.610       526
27.620       413
27.630       433
27.640       466
27.650       400
27.660       440
27.670       413
27.680       413
27.690       380
27.700       493
27.710       473
27.720       420
27.730       513
27.740       400
27.750       466
27.760       493
27.770       466
27.780       433
27.790       407
27.800       440
27.810       460
27.820       440
27.830       486
27.840       353
27.850       460
27.860       446
27.870       440
27.880       466
27.890       460
27.900       260
27.910       347
27.920       393
27.930       387
27.940       360
27.950       466
27.960       426
27.970       367
27.980       493
27.990       400
28.000       466
28.010       433
28.020       373
28.030       300
28.040       433
28.050       407
28.060       407
28.070       440
28.080       320
28.090       480
28.100       433
28.110       380
28.120       373
28.130       446
28.140       367
28.150       400
28.160       466
28.170       280
28.180       453
28.190       393
28.200       340
28.210       500
28.220       387
28.230       533
28.240       353
28.250       413
28.260       340
28.270       353
28.280       287
28.290       387
28.300       373
28.310       313
28.320       407
28.330       280
28.340       393
28.350       526
28.360       480
28.370       446
28.380       347
28.390       347
28.400       313
28.410       393
28.420       360
28.430       340
28.440       407
28.450       380
28.460       353
28.470       333
28.480       393
28.490       420
28.500       407
28.510       300
28.520       360
28.530       380
28.540       446
28.550       420
28.560       367
28.570       293
28.580       307
28.590       280
28.600       380
28.610       407
28.620       453
28.630       360
28.640       320
28.650       367
28.660       373
28.670       387
28.680       313
28.690       300
28.700       393
28.710       420
28.720       300
28.730       320
28.740       273
28.750       380
28.760       293
28.770       340
28.780       313
28.790       300
28.800       446
28.810       460
28.820       273
28.830       333
28.840       400
28.850       327
28.860       373
28.870       260
28.880       287
28.890       353
28.900       426
28.910       347
28.920       300
28.930       327
28.940       393
28.950       347
28.960       360
28.970       300
28.980       400
28.990       460
29.000       413
29.010       347
29.020       407
29.030       466
29.040       327
29.050       307
29.060       333
29.070       313
29.080       300
29.090       347
29.100       327
29.110       333
29.120       340
29.130       426
29.140       407
29.150       367
29.160       293
29.170       367
29.180       440
29.190       307
29.200       420
29.210       407
29.220       380
29.230       426
29.240       407
29.250       287
29.260       307
29.270       293
29.280       333
29.290       373
29.300       187
29.310       340
29.320       340
29.330       307
29.340       387
29.350       407
29.360       347
29.370       347
29.380       360
29.390       320
29.400       433
29.410       387
29.420       260
29.430       333
29.440       413
29.450       287
29.460       353
29.470       347
29.480       360
29.490       327
29.500       253
29.510       413
29.520       220
29.530       353
29.540       233
29.550       333
29.560       340
29.570       387
29.580       340
29.590       293
29.600       260
29.610       333
29.620       367
29.630       373
29.640       313
29.650       307
29.660       407
29.670       327
29.680       273
29.690       267
29.700       287
29.710       287
29.720       280
29.730       307
29.740       293
29.750       307
29.760       313
29.770       393
29.780       333
29.790       253
29.800       387
29.810       313
29.820       367
29.830       313
29.840       193
29.850       320
29.860       273
29.870       287
29.880       293
29.890       247
29.900       347
29.910       213
29.920       327
29.930       353
29.940       360
29.950       293
29.960       353
29.970       240
29.980       253
29.990       327
30.000       293
30.010       313
30.020       273
30.030       373
30.040       233
30.050       327
30.060       320
30.070       327
30.080       307
30.090       320
30.100       267
30.110       340
30.120       360
30.130       293
30.140       367
30.150       267
30.160       293
30.170       280
30.180       293
30.190       260
30.200       260
30.210       253
30.220       273
30.230       307
30.240       307
30.250       253
30.260       240
30.270       300
30.280       233
30.290       280
30.300       260
30.310       273
30.320       300
30.330       233
30.340       287
30.350       227
30.360       240
30.370       180
30.380       247
30.390       333
30.400       240
30.410       273
30.420       260
30.430       253
30.440       247
30.450       300
30.460       227
30.470       247
30.480       227
30.490       240
30.500       287
30.510       320
30.520       247
30.530       287
30.540       320
30.550       240
30.560       293
30.570       247
30.580       280
30.590       293
30.600       320
30.610       333
30.620       313
30.630       300
30.640       273
30.650       233
30.660       280
30.670       320
30.680       300
30.690       307
30.700       147
30.710       240
30.720       227
30.730       233
30.740       260
30.750       280
30.760       220
30.770       320
30.780       220
30.790       320
30.800       287
30.810       273
30.820       353
30.830       180
30.840       187
30.850       247
30.860       167
30.870       267
30.880       253
30.890       233
30.900       267
30.910       260
30.920       213
30.930       267
30.940       233
30.950       273
30.960       220
30.970       193
30.980       300
30.990       220
31.000       200
31.010       220
31.020       253
31.030       233
31.040       253
31.050       213
31.060       220
31.070       220
31.080       260
31.090       260
31.100       240
31.110       267
31.120       247
31.130       307
31.140       253
31.150       300
31.160       307
31.170       220
31.180       240
31.190       180
31.200       280
31.210       247
31.220       220
31.230       300
31.240       247
31.250       207
31.260       213
31.270       260
31.280       287
31.290       233
31.300       287
31.310       227
31.320       187
31.330       253
31.340       260
31.350       213
31.360       227
31.370       220
31.380       220
31.390       207
31.400       213
31.410       220
31.420       160
31.430       233
31.440       147
31.450       160
31.460       213
31.470       227
31.480       207
31.490       233
31.500       187
31.510       173
31.520       187
31.530       180
31.540       167
31.550       213
31.560       173
31.570       207
31.580       167
31.590       193
31.600       227
31.610       173
31.620       247
31.630       280
31.640       213
31.650       173
31.660       233
31.670       187
31.680       173
31.690       180
31.700       227
31.710       220
31.720       227
31.730       267
31.740       227
31.750       147
31.760       220
31.770       207
31.780       153
31.790       180
31.800       133
31.810       233
31.820       180
31.830       207
31.840       173
31.850       227
31.860       120
31.870       233
31.880       220
31.890       187
31.900       313
31.910       247
31.920       187
31.930       200
31.940       187
31.950       200
31.960       253
31.970       173
31.980       187
31.990       173
32.000       167
32.010       213
32.020       153
32.030       153
32.040       147
32.050       227
32.060       247
32.070       193
32.080        80
32.090       173
32.100       213
32.110       233
32.120       173
32.130       173
32.140       253
32.150       220
32.160       147
32.170       227
32.180       247
32.190       247
32.200       147
32.210       173
32.220       127
32.230       233
32.240       220
32.250       160
32.260       193
32.270       160
32.280       140
32.290       153
32.300       213
32.310       193
32.320       160
32.330       207
32.340       240
32.350       167
32.360       187
32.370       160
32.380       240
32.390       200
32.400       127
32.410       193
32.420       107
32.430       207
32.440       180
32.450       213
32.460       167
32.470       180
32.480       140
32.490       147
32.500       173
32.510       180
32.520       227
32.530       140
32.540       220
32.550       107
32.560       173
32.570        93
32.580       147
32.590       153
32.600       207
32.610       120
32.620       200
32.630       127
32.640       200
32.650       140
32.660       167
32.670       180
32.680       127
32.690       200
32.700       127
32.710       220
32.720       240
32.730       193
32.740       220
32.750       180
32.760       173
32.770       220
32.780       133
32.790       167
32.800       127
32.810       153
32.820       213
32.830       147
32.840       140
32.850       160
32.860       127
32.870       167
32.880       160
32.890       173
32.900       173
32.910       233
32.920       193
32.930       127
32.940       153
32.950       140
32.960       187
32.970       140
32.980       187
32.990       193
33.000       227
33.010       167
33.020       153
33.030       120
33.040       153
33.050       153
33.060       153
33.070       113
33.080       147
33.090       220
33.100       153
33.110       167
33.120       140
33.130       133
33.140       167
33.150       153
33.160        73
33.170       133
33.180       107
33.190       187
33.200       160
33.210       107
33.220       140
33.230       160
33.240       193
33.250       113
33.260       173
33.270       133
33.280       167
33.290       160
33.300       127
33.310       107
33.320        93
33.330       173
33.340       140
33.350       113
33.360       193
33.370       120
33.380       167
33.390       140
33.400       187
33.410       180
33.420       193
33.430       193
33.440       113
33.450       120
33.460       153
33.470       180
33.480       147
33.490       140
33.500       160
33.510       200
33.520       153
33.530       167
33.540       173
33.550       160
33.560       147
33.570       140
33.580       240
33.590       160
33.600       120
33.610       173
33.620       147
33.630       133
33.640       140
33.650       140
33.660       133
33.670       100
33.680       100
33.690       140
33.700       167
33.710       167
33.720        73
33.730       147
33.740       133
33.750       107
33.760       127
33.770       120
33.780       100
33.790       100
33.800       140
33.810       147
33.820       167
33.830       127
33.840       147
33.850       100
33.860       193
33.870       133
33.880       127
33.890       167
33.900        87
33.910       140
33.920       127
33.930       120
33.940       167
33.950       113
33.960       133
33.970       127
33.980       147
33.990       147
34.000       133
34.010       107
34.020        93
34.030       147
34.040       187
34.050       107
34.060       133
34.070       153
34.080       153
34.090       160
34.100       167
34.110       107
34.120       133
34.130       127
34.140       120
34.150        80
34.160       107
34.170       153
34.180       107
34.190        73
34.200       127
34.210       160
34.220       113
34.230        80
34.240        80
34.250       140
34.260        80
34.270       140
34.280       113
34.290       133
34.300        80
34.310        80
34.320       160
34.330       153
34.340       140
34.350       127
34.360       167
34.370       133
34.380       127
34.390       127
34.400       127
34.410       187
34.420       127
34.430       147
34.440       120
34.450       120
34.460       173
34.470       133
34.480       140
34.490       127
34.500       160
34.510       133
34.520        93
34.530       127
34.540       100
34.550       100
34.560       160
34.570        80
34.580       127
34.590        87
34.600       113
34.610        87
34.620       113
34.630        80
34.640       173
34.650        93
34.660        73
34.670        87
34.680        80
34.690       113
34.700       107
34.710       147
34.720       107
34.730       127
34.740       127
34.750       113
34.760       133
34.770        80
34.780       133
34.790       127
34.800       107
34.810       113
34.820        93
34.830       107
34.840       167
34.850        87
34.860        93
34.870       127
34.880       153
34.890       147
34.900       120
34.910        60
34.920        87
34.930       100
34.940       140
34.950        87
34.960       100
34.970       133
34.980       100
34.990       160
35.000       120
35.010       107
35.020       153
35.030       107
35.040       133
35.050       140
35.060        87
35.070       113
35.080       127
35.090       113
35.100        80
35.110       147
35.120       167
35.130       100
35.140       107
35.150        80
35.160       127
35.170        93
35.180       153
35.190       107
35.200       113
35.210       113
35.220       153
35.230       100
35.240       100
35.250        80
35.260        87
35.270       120
35.280        80
35.290       127
35.300       100
35.310       107
35.320        60
35.330       113
35.340       100
35.350       113
35.360       113
35.370       107
35.380        93
35.390        80
35.400        93
35.410       127
35.420       127
35.430        93
35.440       100
35.450       107
35.460        73
35.470       100
35.480       107
35.490        53
35.500       127
35.510       107
35.520       113
35.530        60
35.540       127
35.550       100
35.560        73
35.570       127
35.580       107
35.590       100
35.600        80
35.610        73
35.620       133
35.630       100
35.640       147
35.650        33
35.660       133
35.670       107
35.680        93
35.690       167
35.700       147
35.710       127
35.720       107
35.730       100
35.740       113
35.750       120
35.760        73
35.770       100
35.780       100
35.790        87
35.800       113
35.810        53
35.820       107
35.830        73
35.840       107
35.850       113
35.860       113
35.870        27
35.880       127
35.890        47
35.900        67
35.910       100
35.920        73
35.930       107
35.940        33
35.950        80
35.960        80
35.970        80
35.980        93
35.990        53
36.000        60
36.010        67
36.020        73
36.030       100
36.040       120
36.050       107
36.060        87
36.070        80
36.080       113
36.090       113
36.100        93
36.110       120
36.120       100
36.130        73
36.140        73
36.150        87
36.160        53
36.170        40
36.180        87
36.190        93
36.200        93
36.210        67
36.220        53
36.230        93
36.240        93
36.250        87
36.260        73
36.270        80
36.280        87
36.290       107
36.300        73
36.310        80
36.320        60
36.330        73
36.340       153
36.350        27
36.360        53
36.370        67
36.380        93
36.390       100
36.400        87
36.410        93
36.420        73
36.430        73
36.440       140
36.450       100
36.460        73
36.470        60
36.480        67
36.490       127
36.500        93
36.510        73
36.520       100
36.530       107
36.540        33
36.550        53
36.560        60
36.570       113
36.580        87
36.590        67
36.600        93
36.610       100
36.620        67
36.630        53
36.640        60
36.650       107
36.660        67
36.670        93
36.680        67
36.690       113
36.700        73
36.710       127
36.720       107
36.730       100
36.740       107
36.750        73
36.760       100
36.770        67
36.780        87
36.790        60
36.800        60
36.810        87
36.820        80
36.830        80
36.840        67
36.850        93
36.860        60
36.870        80
36.880       100
36.890        73
36.900       100
36.910        53
36.920        80
36.930        60
36.940        73
36.950        67
36.960        93
36.970        87
36.980        87
36.990        67
37.000        87
37.010        67
37.020        67
37.030        67
37.040        93
37.050        73
37.060        73
37.070        73
37.080        60
37.090       133
37.100        87
37.110        53
37.120       120
37.130        53
37.140       100
37.150        60
37.160        60
37.170        93
37.180        67
37.190        87
37.200        80
37.210        47
37.220        40
37.230        47
37.240        67
37.250        60
37.260        67
37.270        60
37.280        60
37.290        33
37.300        40
37.310        53
37.320        67
37.330        60
37.340        87
37.350        53
37.360        87
37.370        40
37.380        67
37.390        53
37.400        27
37.410       100
37.420        87
37.430        47
37.440        67
37.450       107
37.460        60
37.470        73
37.480        73
37.490        53
37.500        60
37.510        40
37.520        93
37.530        73
37.540        67
37.550        33
37.560        53
37.570        53
37.580        60
37.590        93
37.600        73
37.610        73
37.620        73
37.630        40
37.640        80
37.650        33
37.660        73
37.670        80
37.680        80
37.690        93
37.700       120
37.710        67
37.720        40
37.730        33
37.740        47
37.750        73
37.760        80
37.770        73
37.780        73
37.790        67
37.800        67
37.810        40
37.820        47
37.830        80
37.840        80
37.850       100
37.860        60
37.870       100
37.880        67
37.890       107
37.900        47
37.910        80
37.920        60
37.930        33
37.940        73
37.950        47
37.960        60
37.970        47
37.980        73
37.990        87
38.000        60
38.010        53
38.020        60
38.030        53
38.040        67
38.050        80
38.060        33
38.070        87
38.080        73
38.090        53
38.100        87
38.110        73
38.120       113
38.130        53
38.140        53
38.150        80
38.160        40
38.170        13
38.180        73
38.190        60
38.200        80
38.210        47
38.220        53
38.230        27
38.240        73
38.250        67
38.260        87
38.270       100
38.280        67
38.290        60
38.300        60
38.310        67
38.320       100
38.330        60
38.340        87
38.350        47
38.360        67
38.370        60
38.380        87
38.390        73
38.400        40
38.410        87
38.420        60
38.430        60
38.440        53
38.450        67
38.460        80
38.470        53
38.480        73
38.490        73
38.500        47
38.510        67
38.520        40
38.530        20
38.540        80
38.550        53
38.560        53
38.570        47
38.580        67
38.590        27
38.600        73
38.610        20
38.620        87
38.630        47
38.640        67
38.650        53
38.660        53
38.670        67
38.680        67
38.690        53
38.700        53
38.710        67
38.720        67
38.730        60
38.740        60
38.750        67
38.760        53
38.770        60
38.780        47
38.790        80
38.800        27
38.810        33
38.820        67
38.830        40
38.840        73
38.850        80
38.860        47
38.870        60
38.880        53
38.890        60
38.900        53
38.910       100
38.920        20
38.930        73
38.940        60
38.950        80
38.960        73
38.970        67
38.980        73
38.990        93
39.000        40
39.010       107
39.020        47
39.030        87
39.040        87
39.050       120
39.060        53
39.070        53
39.080        20
39.090        20
39.100        60
39.110        87
39.120        60
39.130        87
39.140        40
39.150        53
39.160        40
39.170        40
39.180        60
39.190        53
39.200        33
39.210        73
39.220        60
39.230        60
39.240        40
39.250        47
39.260        60
39.270        60
39.280        47
39.290        53
39.300        67
39.310        53
39.320        60
39.330        73
39.340        67
39.350        60
39.360        73
39.370        73
39.380        80
39.390        40
39.400        33
39.410        40
39.420        60
39.430        33
39.440        73
39.450        40
39.460        40
39.470        80
39.480        80
39.490        67
39.500        33
39.510        40
39.520        53
39.530        33
39.540        53
39.550        60
39.560        40
39.570        53
39.580        80
39.590        27
39.600        53
39.610        47
39.620        33
39.630        53
39.640        60
39.650        53
39.660        67
39.670        60
39.680        53
39.690        27
39.700        60
39.710        60
39.720        13
39.730        93
39.740        53
39.750        60
39.760        53
39.770        73
39.780        13
39.790        60
39.800        67
39.810        40
39.820        53
39.830        33
39.840        67
39.850        53
39.860        67
39.870        60
39.880        60
39.890        67
39.900        27
39.910        60
39.920        67
39.930        40
39.940        60
39.950        53
39.960        33
39.970        67
39.980        60
39.990        93
40.000        73
40.010        33
40.020        47
40.030        60
40.040        27
40.050        60
40.060        60
40.070        40
40.080        67
40.090        60
40.100        47
40.110        33
40.120        33
40.130        60
40.140        67
40.150        40
40.160        73
40.170        27
40.180        87
40.190        27
40.200        27
40.210        20
40.220        47
40.230        47
40.240        40
40.250        53
40.260        53
40.270        87
40.280        20
40.290        53
40.300        13
40.310        53
40.320        13
40.330        73
40.340        73
40.350        40
40.360        60
40.370        40
40.380        73
40.390        33
40.400        73
40.410        53
40.420        33
40.430        33
40.440        53
40.450        73
40.460        40
40.470        60
40.480        60
40.490        33
40.500        80
40.510        47
40.520        67
40.530        40
40.540        53
40.550        60
40.560        40
40.570        60
40.580        80
40.590        27
40.600        53
40.610        40
40.620        53
40.630        53
40.640        40
40.650        33
40.660        47
40.670        20
40.680        53
40.690        53
40.700        47
40.710        27
40.720        60
40.730        53
40.740        40
40.750        33
40.760        33
40.770        27
40.780        40
40.790        33
40.800        40
40.810        20
40.820        47
40.830        53
40.840        13
40.850        33
40.860        40
40.870        53
40.880        40
40.890        53
40.900        20
40.910        33
40.920        60
40.930        53
40.940        40
40.950        40
40.960        53
40.970        27
40.980        60
40.990        53
41.000        40
41.010        27
41.020        53
41.030        67
41.040        40
41.050        60
41.060        20
41.070        27
41.080        47
41.090         7
41.100        47
41.110        27
41.120        53
41.130        40
41.140        40
41.150        53
41.160        33
41.170        33
41.180         7
41.190        27
41.200        33
41.210        33
41.220        20
41.230        40
41.240        47
41.250        33
41.260        67
41.270        47
41.280        40
41.290        27
41.300        27
41.310        60
41.320        47
41.330        40
41.340        47
41.350        47
41.360        40
41.370        67
41.380        80
41.390        33
41.400        27
41.410        27
41.420        40
41.430        40
41.440        67
41.450        33
41.460        60
41.470        40
41.480        27
41.490        27
41.500        40
41.510        53
41.520        47
41.530        40
41.540        40
41.550        40
41.560        53
41.570        47
41.580        40
41.590        47
41.600        47
41.610        27
41.620        40
41.630        27
41.640        20
41.650        13
41.660        53
41.670        27
41.680        33
41.690        47
41.700        40
41.710        53
41.720        47
41.730        27
41.740        27
41.750        67
41.760        53
41.770        40
41.780        27
41.790        40
41.800        27
41.810        47
41.820        33
41.830        33
41.840        47
41.850        33
41.860        67
41.870        40
41.880        40
41.890        33
41.900        40
41.910        67
41.920        27
41.930        80
41.940        20
41.950        27
41.960        33
41.970        47
41.980        33
41.990        33
42.000        20
42.010        47
42.020         7
42.030        53
42.040        47
42.050        60
42.060        40
42.070        40
42.080        60
42.090        40
42.100        53
42.110        13
42.120        33
42.130        20
42.140        60
42.150        47
42.160        40
42.170        33
42.180        27
42.190        47
42.200        20
42.210        20
42.220        27
42.230        47
42.240         7
42.250        27
42.260        27
42.270        33
42.280        73
42.290        53
42.300        33
42.310        40
42.320        67
42.330        40
42.340        33
42.350        20
42.360        33
42.370        47
42.380        13
42.390        20
42.400        47
42.410        20
42.420        47
42.430        47
42.440        33
42.450        20
42.460        27
42.470        40
42.480        27
42.490        47
42.500        47
42.510        27
42.520        47
42.530        20
42.540        40
42.550        33
42.560        13
42.570        40
42.580        80
42.590        20
42.600        53
42.610        67
42.620        60
42.630        13
42.640        40
42.650        13
42.660        33
42.670        33
42.680        47
42.690        27
42.700        47
42.710        60
42.720        47
42.730        40
42.740        27
42.750        40
42.760        27
42.770        33
42.780        47
42.790        47
42.800        53
42.810        20
42.820        27
42.830        27
42.840        27
42.850        40
42.860        80
42.870        40
42.880        47
42.890        53
42.900        47
42.910        20
42.920        33
42.930        33
42.940        40
42.950        47
42.960        47
42.970        20
42.980        47
42.990        27
43.000        33
43.010        73
43.020        27
43.030        20
43.040        40
43.050        73
43.060        47
43.070        47
43.080        27
43.090        33
43.100        27
43.110        20
43.120        33
43.130        40
43.140        40
43.150        20
43.160        13
43.170        27
43.180        13
43.190        60
43.200        67
43.210         7
43.220         7
43.230        40
43.240        40
43.250        33
43.260        33
43.270         7
43.280        47
43.290        20
43.300        20
43.310        40
43.320        40
43.330        60
43.340        40
43.350        40
43.360        67
43.370        40
43.380        40
43.390        33
43.400        47
43.410        20
43.420        60
43.430        33
43.440        60
43.450        53
43.460        53
43.470        47
43.480        27
43.490        67
43.500        47
43.510        40
43.520        20
43.530        27
43.540        27
43.550        40
43.560        13
43.570        13
43.580         7
43.590        27
43.600        27
43.610        27
43.620        27
43.630        20
43.640        40
43.650        27
43.660        20
43.670        20
43.680        60
43.690        40
43.700        27
43.710        53
43.720        47
43.730        33
43.740        33
43.750        20
43.760        53
43.770        20
43.780        27
43.790        40
43.800        27
43.810         7
43.820        40
43.830        47
43.840        47
43.850        53
43.860        20
43.870        33
43.880        53
43.890        40
43.900        47
43.910        40
43.920        27
43.930        13
43.940        27
43.950        47
43.960        20
43.970        27
43.980        13
43.990        47
44.000         7
44.010        40
44.020        20
44.030        73
44.040        13
44.050        53
44.060        20
44.070        27
44.080        53
44.090        47
44.100        33
44.110        27
44.120        27
44.130        27
44.140        13
44.150        33
44.160        40
44.170        33
44.180        13
44.190        27
44.200        27
44.210        40
44.220        80
44.230        53
44.240        47
44.250        13
44.260        33
44.270        47
44.280        27
44.290        27
44.300        40
44.310        40
44.320        20
44.330        20
44.340        13
44.350        27
44.360        40
44.370        13
44.380        27
44.390        40
44.400        13
44.410        33
44.420        33
44.430        20
44.440        33
44.450        13
44.460        67
44.470        33
44.480        33
44.490         7
44.500        20
44.510         7
44.520        53
44.530        20
44.540         7
44.550        67
44.560         7
44.570        13
44.580        33
44.590        27
44.600        27
44.610        20
44.620        20
44.630        40
44.640        40
44.650        20
44.660        27
44.670        27
44.680        60
44.690        40
44.700        73
44.710        33
44.720        33
44.730        20
44.740        33
44.750        13
44.760        27
44.770        20
44.780        40
44.790        33
44.800        33
44.810        53
44.820        33
44.830        53
44.840        60
44.850        60
44.860        33
44.870        33
44.880        53
44.890        40
44.900        27
44.910         7
44.920        40
44.930        33
44.940        20
44.950        40
44.960        47
44.970        47
44.980        20
44.990        27
45.000        40
45.010        40
45.020        47
45.030        27
45.040        47
45.050        20
45.060        27
45.070        40
45.080        47
45.090        27
45.100        47
45.110        20
45.120        33
45.130         7
45.140        80
45.150        33
45.160        47
45.170        33
45.180        20
45.190        40
45.200        20
45.210        73
45.220        33
45.230        20
45.240         0
45.250        33
45.260        13
45.270        13
45.280        40
45.290        13
45.300        47
45.310        47
45.320        27
45.330        27
45.340        33
45.350        40
45.360        20
45.370        20
45.380        47
45.390        27
45.400        27
45.410        53
45.420        67
45.430        20
45.440        40
45.450        33
45.460        27
45.470        53
45.480        40
45.490        20
45.500        60
45.510        13
45.520        33
45.530        20
45.540        40
45.550        20
45.560        27
45.570        27
45.580        33
45.590        27
45.600        20
45.610        47
45.620        20
45.630        60
45.640        13
45.650        40
45.660        33
45.670        13
45.680        20
45.690         7
45.700        13
45.710        27
45.720        33
45.730        27
45.740        13
45.750        40
45.760        20
45.770        20
45.780        13
45.790         7
45.800        33
45.810        13
45.820        40
45.830        27
45.840        47
45.850        20
45.860        27
45.870        27
45.880        20
45.890        33
45.900        20
45.910        33
45.920        40
45.930        20
45.940        53
45.950        60
45.960        33
45.970        13
45.980        47
45.990        40
46.000        40
46.010        67
46.020        33
46.030        33
46.040        47
46.050        33
46.060        60
46.070        40
46.080        33
46.090        47
46.100        40
46.110        53
46.120        53
46.130        40
46.140        13
46.150        20
46.160         7
46.170        20
46.180        20
46.190        40
46.200        40
46.210        27
46.220        13
46.230         7
46.240        20
46.250        40
46.260        20
46.270        40
46.280        40
46.290        40
46.300        27
46.310        27
46.320        47
46.330        27
46.340        27
46.350        13
46.360        47
46.370        27
46.380        33
46.390        27
46.400        33
46.410        20
46.420        47
46.430        27
46.440         7
46.450        47
46.460        20
46.470        47
46.480        13
46.490        60
46.500        33
46.510        33
46.520        47
46.530        20
46.540        60
46.550        40
46.560        67
46.570        27
46.580        33
46.590        33
46.600        40
46.610        27
46.620        67
46.630        67
46.640        27
46.650        40
46.660        27
46.670        33
46.680         7
46.690        33
46.700        53
46.710        27
46.720        33
46.730        13
46.740        60
46.750        60
46.760        80
46.770        47
46.780        47
46.790        67
46.800        53
46.810        60
46.820        80
46.830        87
46.840        80
46.850        67
46.860        93
46.870       100
46.880        87
46.890        67
46.900        33
46.910        87
46.920        40
46.930        60
46.940        60
46.950        73
46.960        73
46.970        67
46.980        80
46.990        67
47.000        93
47.010        67
47.020        73
47.030        53
47.040        80
47.050        87
47.060       107
47.070        93
47.080        60
47.090        67
47.100        93
47.110       113
47.120       113
47.130       100
47.140       187
47.150       227
47.160       260
47.170       393
47.180       426
47.190       586
47.200       900
47.210      1220
47.220      1240
47.230      1333
47.240      1479
47.250      1206
47.260      1053
47.270       860
47.280       720
47.290       580
47.300       367
47.310       293
47.320       180
47.330       213
47.340       153
47.350       187
47.360       147
47.370       127
47.380       147
47.390       127
47.400       127
47.410       120
47.420        87
47.430        67
47.440       100
47.450        87
47.460        87
47.470       100
47.480        93
47.490       100
47.500        73
47.510        93
47.520        73
47.530        60
47.540        87
47.550        60
47.560       113
47.570       133
47.580        47
47.590        67
47.600        87
47.610        73
47.620        40
47.630        27
47.640        73
47.650        53
47.660        93
47.670        60
47.680        53
47.690        40
47.700        53
47.710        47
47.720        47
47.730        47
47.740        40
47.750         0
47.760        47
47.770        73
47.780        40
47.790        60
47.800        40
47.810        13
47.820        20
47.830        60
47.840        80
47.850        60
47.860        73
47.870        33
47.880        40
47.890        67
47.900        33
47.910        53
47.920        27
47.930        13
47.940        47
47.950        47
47.960        60
47.970        47
47.980        20
47.990        47
48.000        40
48.010        47
48.020        33
48.030        67
48.040        40
48.050        47
48.060        27
48.070        47
48.080        67
48.090        40
48.100        27
48.110        33
48.120        40
48.130        47
48.140         7
48.150        40
48.160        53
48.170        53
48.180        53
48.190        40
48.200        73
48.210        47
48.220        33
48.230        53
48.240        40
48.250        27
48.260        27
48.270        53
48.280        73
48.290        33
48.300        47
48.310        40
48.320        27
48.330        20
48.340        53
48.350        53
48.360        40
48.370        53
48.380        60
48.390        20
48.400        13
48.410        13
48.420        40
48.430        67
48.440        73
48.450        47
48.460        47
48.470        40
48.480        33
48.490        40
48.500        40
48.510        67
48.520        33
48.530        47
48.540        53
48.550        40
48.560        33
48.570        33
48.580        33
48.590        47
48.600        40
48.610        47
48.620        33
48.630        40
48.640        47
48.650        33
48.660        60
48.670        60
48.680        33
48.690        13
48.700        47
48.710        20
48.720        33
48.730        33
48.740        47
48.750        20
48.760        33
48.770        53
48.780        27
48.790        40
48.800        53
48.810        47
48.820        47
48.830        47
48.840        40
48.850        33
48.860        60
48.870        80
48.880        53
48.890        60
48.900        53
48.910        53
48.920        60
48.930        53
48.940        33
48.950        27
48.960        53
48.970        47
48.980        20
48.990        60
49.000        33
49.010        67
49.020        13
49.030        27
49.040        20
49.050        47
49.060        27
49.070        27
49.080        40
49.090        40
49.100        20
49.110        20
49.120        27
49.130        27
49.140        53
49.150        27
49.160        20
49.170        60
49.180        20
49.190        40
49.200        40
49.210        47
49.220        40
49.230        13
49.240        27
49.250        27
49.260        60
49.270        33
49.280        27
49.290        53
49.300        27
49.310        33
49.320        47
49.330        33
49.340        40
49.350        27
49.360        33
49.370        13
49.380        33
49.390        27
49.400        20
49.410        33
49.420        60
49.430        40
49.440        40
49.450        40
49.460        53
49.470        33
49.480        33
49.490        33
49.500        40
49.510        47
49.520        47
49.530        80
49.540        27
49.550        47
49.560        40
49.570        47
49.580        33
49.590        40
49.600        27
49.610        47
49.620        47
49.630        40
49.640        27
49.650        47
49.660        33
49.670        33
49.680        20
49.690        27
49.700        40
49.710        40
49.720        33
49.730        67
49.740        20
49.750        47
49.760        40
49.770        40
49.780        53
49.790        27
49.800        40
49.810        27
49.820        47
49.830        53
49.840        60
49.850        40
49.860        53
49.870        33
49.880         7
49.890        40
49.900        33
49.910        40
49.920        27
49.930        33
49.940         7
49.950        40
49.960        13
49.970        40
49.980        27
49.990        27
50.000        40
50.010        27
50.020        53
50.030        53
50.040        27
50.050        27
50.060        27
50.070        53
50.080        33
50.090        33
50.100        20
50.110        40
50.120        20
50.130        33
50.140        33
50.150        13
50.160        33
50.170        20
50.180        67
50.190        47
50.200        27
50.210        33
50.220        20
50.230        47
50.240        33
50.250        73
50.260        40
50.270        53
50.280        40
50.290        60
50.300        33
50.310        27
50.320        40
50.330        40
50.340        33
50.350        33
50.360        40
50.370        27
50.380        40
50.390        40
50.400        33
50.410        53
50.420        53
50.430        73
50.440        33
50.450        20
50.460        53
50.470        53
50.480        20
50.490        53
50.500        40
50.510        27
50.520        27
50.530        53
50.540        60
50.550        27
50.560        33
50.570        33
50.580        80
50.590        67
50.600        40
50.610        53
50.620        60
50.630        67
50.640        67
50.650        73
50.660        73
50.670       113
50.680       160
50.690       140
50.700       127
50.710       147
50.720       307
50.730       240
50.740       267
50.750       313
50.760       307
50.770       407
50.780       253
50.790       327
50.800       407
50.810       327
50.820       280
50.830       500
50.840       420
50.850       400
50.860       267
50.870       260
50.880       327
50.890       493
50.900       373
50.910       353
50.920       340
50.930       333
50.940       320
50.950       340
50.960       367
50.970       486
50.980       300
50.990       387
51.000       307
51.010       387
51.020       400
51.030       320
51.040       393
51.050       300
51.060       327
51.070       400
51.080       380
51.090       393
51.100       360
51.110       360
51.120       407
51.130       387
51.140       446
51.150       347
51.160       313
51.170       360
51.180       380
51.190       526
51.200       333
51.210       387
51.220       393
51.230       387
51.240       333
51.250       393
51.260       300
51.270       387
51.280       340
51.290       380
51.300       460
51.310       373
51.320       340
51.330       333
51.340       340
51.350       380
51.360       486
51.370       426
51.380       293
51.390       360
51.400       426
51.410       320
51.420       420
51.430       313
51.440       340
51.450       367
51.460       413
51.470       387
51.480       353
51.490       307
51.500       313
51.510       393
51.520       313
51.530       360
51.540       360
51.550       287
51.560       380
51.570       333
51.580       407
51.590       373
51.600       373
51.610       453
51.620       453
51.630       493
51.640       446
51.650       440
51.660       367
51.670       373
51.680       460
51.690       446
51.700       333
51.710       333
51.720       440
51.730       340
51.740       387
51.750       407
51.760       446
51.770       460
51.780       367
51.790       407
51.800       513
51.810       393
51.820       387
51.830       327
51.840       373
51.850       506
51.860       340
51.870       280
51.880       426
51.890       566
51.900       446
51.910       480
51.920       373
51.930       440
51.940       533
51.950       440
51.960       473
51.970       480
51.980       453
51.990       460
52.000       413
52.010       560
52.020       646
52.030       613
52.040       446
52.050       486
52.060       400
52.070       566
52.080       580
52.090       413
52.100       540
52.110       566
52.120       600
52.130       626
52.140       626
52.150       613
52.160       546
52.170       566
52.180       640
52.190       700
52.200       660
52.210       686
52.220       746
52.230       726
52.240       806
52.250       840
52.260       893
52.270       973
52.280       906
52.290      1033
52.300      1120
52.310      1173
52.320      1293
52.330      1439
52.340      1593
52.350      1979
52.360      2306
52.370      2486
52.380      2392
52.390      2859
52.400      3019
52.410      3059
52.420      3065
52.430      3025
52.440      3512
52.450      3565
52.460      3972
52.470      4205
52.480      5158
52.490      5811
52.500      7004
52.510      7590
52.520      9523
52.530     11335
52.540     13255
52.550     15500
52.560     19919
52.570     27496
52.580     44282
52.590     69625
52.600    103412
52.610    132774
52.620    152166
52.630    159410
52.640    161382
52.650    159296
52.660    142110
52.670    116134
52.680     82740
52.690     56011
52.700     40817
52.710     34633
52.720     38131
52.730     48221
52.740     64854
52.750     79242
52.760     90550
52.770     96208
52.780     96495
52.790     91323
52.800     81567
52.810     64994
52.820     44649
52.830     29462
52.840     18926
52.850     13448
52.860     10502
52.870      9230
52.880      8257
52.890      7564
52.900      7197
52.910      6064
52.920      5378
52.930      4878
52.940      3878
52.950      3445
52.960      2899
52.970      2372
52.980      2079
52.990      1819
53.000      1593
53.010      1513
53.020      1386
53.030      1333
53.040      1299
53.050      1266
53.060      1193
53.070      1040
53.080      1140
53.090      1080
53.100       846
53.110       813
53.120       906
53.130       880
53.140       800
53.150       886
53.160       800
53.170       833
53.180       733
53.190       846
53.200       633
53.210       753
53.220       633
53.230       760
53.240       566
53.250       653
53.260       766
53.270       733
53.280       713
53.290       586
53.300       633
53.310       706
53.320       486
53.330       520
53.340       506
53.350       560
53.360       560
53.370       513
53.380       540
53.390       653
53.400       526
53.410       407
53.420       453
53.430       593
53.440       580
53.450       500
53.460       373
53.470       500
53.480       400
53.490       393
53.500       387
53.510       506
53.520       333
53.530       466
53.540       486
53.550       407
53.560       440
53.570       506
53.580       440
53.590       380
53.600       460
53.610       353
53.620       320
53.630       360
53.640       413
53.650       367
53.660       340
53.670       387
53.680       400
53.690       426
53.700       387
53.710       347
53.720       367
53.730       300
53.740       433
53.750       307
53.760       387
53.770       360
53.780       393
53.790       407
53.800       407
53.810       400
53.820       347
53.830       313
53.840       333
53.850       360
53.860       387
53.870       400
53.880       446
53.890       293
53.900       287
53.910       353
53.920       287
53.930       287
53.940       373
53.950       413
53.960       327
53.970       340
53.980       413
53.990       446
54.000       307
54.010       340
54.020       347
54.030       233
54.040       307
54.050       300
54.060       340
54.070       300
54.080       227
54.090       267
54.100       247
54.110       280
54.120       253
54.130       267
54.140       267
54.150       273
54.160       333
54.170       233
54.180       240
54.190       280
54.200       187
54.210       307
54.220       300
54.230       287
54.240       273
54.250       347
54.260       293
54.270       393
54.280       373
54.290       200
54.300       260
54.310       267
54.320       320
54.330       340
54.340       273
54.350       260
54.360       293
54.370       307
54.380       287
54.390       287
54.400       273
54.410       247
54.420       273
54.430       327
54.440       367
54.450       327
54.460       333
54.470       200
54.480       313
54.490       173
54.500       327
54.510       287
54.520       273
54.530       253
54.540       240
54.550       233
54.560       307
54.570       240
54.580       280
54.590       207
54.600       327
54.610       227
54.620       187
54.630       207
54.640       180
54.650       227
54.660       313
54.670       293
54.680       220
54.690       273
54.700       247
54.710       293
54.720       307
54.730       287
54.740       320
54.750       227
54.760       213
54.770       247
54.780       307
54.790       267
54.800       253
54.810       173
54.820       207
54.830       240
54.840       200
54.850       200
54.860       227
54.870       200
54.880       207
54.890       227
54.900       247
54.910       207
54.920       340
54.930       240
54.940       260
54.950       207
54.960       187
54.970       280
54.980       207
54.990       213
55.000       273
55.010       240
55.020       240
55.030       227
55.040       187
55.050       260
55.060       213
55.070       187
55.080       187
55.090       180
55.100       180
55.110       147
55.120       187
55.130       187
55.140       227
55.150       220
55.160       280
55.170       200
55.180       213
55.190       260
55.200       193
55.210       200
55.220       333
55.230       167
55.240       313
55.250       200
55.260       173
55.270       220
55.280       260
55.290       200
55.300       207
55.310       307
55.320       253
55.330       280
55.340       240
55.350       300
55.360       240
55.370       207
55.380       287
55.390       193
55.400       247
55.410       247
55.420       273
55.430       180
55.440       213
55.450       287
55.460       213
55.470       260
55.480       207
55.490       253
55.500       173
55.510       233
55.520       187
55.530       187
55.540       247
55.550       167
55.560       167
55.570       180
55.580       200
55.590       147
55.600       147
55.610       160
55.620       260
55.630       127
55.640       300
55.650       207
55.660       207
55.670       233
55.680       233
55.690       133
55.700       213
55.710       247
55.720       240
55.730       167
55.740       213
55.750       227
55.760       180
55.770       220
55.780       260
55.790       200
55.800       247
55.810       253
55.820       127
55.830       160
55.840       140
55.850       153
55.860       200
55.870       253
55.880       200
55.890       187
55.900       153
55.910       207
55.920       233
55.930       220
55.940       227
55.950       260
55.960       173
55.970       193
55.980       180
55.990       233
56.000       247
56.010       233
56.020       173
56.030       227
56.040       140
56.050       220
56.060       213
56.070       200
56.080       107
56.090       227
56.100       193
56.110       227
56.120       153
56.130       193
56.140       280
56.150       193
56.160       160
56.170       147
56.180       167
56.190       180
56.200       207
56.210       173
56.220       287
56.230       187
56.240       193
56.250       187
56.260       167
56.270       180
56.280       200
56.290       140
56.300       167
56.310       160
56.320       207
56.330       200
56.340        93
56.350       173
56.360       147
56.370       220
56.380       207
56.390       160
56.400       207
56.410       160
56.420       160
56.430       173
56.440       213
56.450       133
56.460       220
56.470       207
56.480       173
56.490       187
56.500       187
56.510       227
56.520       193
56.530       153
56.540       213
56.550       193
56.560       200
56.570       133
56.580       153
56.590       187
56.600       187
56.610       233
56.620       187
56.630       140
56.640       173
56.650       280
56.660       173
56.670       173
56.680       173
56.690       213
56.700       193
56.710       147
56.720       167
56.730       233
56.740       207
56.750       233
56.760       220
56.770       227
56.780       207
56.790       207
56.800       153
56.810       200
56.820       133
56.830       193
56.840       100
56.850       140
56.860       153
56.870       173
56.880       133
56.890       120
56.900       153
56.910       227
56.920       153
56.930       140
56.940       227
56.950       180
56.960       227
56.970       200
56.980       147
56.990       213
57.000       193
57.010       173
57.020       153
57.030       240
57.040       133
57.050       187
57.060       193
57.070       193
57.080       173
57.090       167
57.100       100
57.110       120
57.120       127
57.130       260
57.140       160
57.150       200
57.160       240
57.170       120
57.180       200
57.190       133
57.200       147
57.210       187
57.220       133
57.230       200
57.240       147
57.250       173
57.260       127
57.270       167
57.280       173
57.290       100
57.300       107
57.310       160
57.320       167
57.330       160
57.340       133
57.350       233
57.360       160
57.370       193
57.380       133
57.390       133
57.400       153
57.410       147
57.420       147
57.430        93
57.440       127
57.450       193
57.460       180
57.470       173
57.480       167
57.490       147
57.500       133
57.510       107
57.520       160
57.530       160
57.540       113
57.550       153
57.560       107
57.570       140
57.580       167
57.590       240
57.600       147
57.610       120
57.620       107
57.630       153
57.640       187
57.650       140
57.660       220
57.670       207
57.680       233
57.690       133
57.700       127
57.710       187
57.720       107
57.730       127
57.740       120
57.750       153
57.760       133
57.770       127
57.780       140
57.790       247
57.800       113
57.810       153
57.820       107
57.830       187
57.840       153
57.850        87
57.860       147
57.870       133
57.880       267
57.890       107
57.900       187
57.910       133
57.920       173
57.930       193
57.940       160
57.950       127
57.960       147
57.970       153
57.980       167
57.990       160
58.000       167
58.010       160
58.020       187
58.030       180
58.040       153
58.050       227
58.060       160
58.070       140
58.080       120
58.090       147
58.100       167
58.110       133
58.120       167
58.130       173
58.140       133
58.150       147
58.160       147
58.170       113
58.180       127
58.190       200
58.200       220
58.210       120
58.220       153
58.230       167
58.240        87
58.250       147
58.260        60
58.270       127
58.280       133
58.290       140
58.300       160
58.310       160
58.320       180
58.330       153
58.340       160
58.350       133
58.360       127
58.370       133
58.380       120
58.390       160
58.400       193
58.410       120
58.420       147
58.430       127
58.440       147
58.450       147
58.460       113
58.470       173
58.480       140
58.490       120
58.500       173
58.510        87
58.520       180
58.530        93
58.540       127
58.550       107
58.560       113
58.570       133
58.580       120
58.590       147
58.600       113
58.610       147
58.620       127
58.630       160
58.640       133
58.650       167
58.660       160
58.670       147
58.680       127
58.690       133
58.700       153
58.710       127
58.720       113
58.730       140
58.740       153
58.750       180
58.760       113
58.770        87
58.780       120
58.790       120
58.800       100
58.810        80
58.820       120
58.830       113
58.840       133
58.850       100
58.860       133
58.870       127
58.880       107
58.890        80
58.900       133
58.910       100
58.920       127
58.930       180
58.940        73
58.950       173
58.960       167
58.970       147
58.980       173
58.990       173
59.000       120
59.010       127
59.020       147
59.030       173
59.040        93
59.050       113
59.060       140
59.070        80
59.080        80
59.090       100
59.100       140
59.110       113
59.120       153
59.130       113
59.140        80
59.150       147
59.160        73
59.170       147
59.180       113
59.190       200
59.200       120
59.210       140
59.220       133
59.230       160
59.240       160
59.250       153
59.260       107
59.270       160
59.280       113
59.290       133
59.300       133
59.310        80
59.320       120
59.330        53
59.340       153
59.350       153
59.360       120
59.370       160
59.380        80
59.390       113
59.400       120
59.410       113
59.420       167
59.430       133
59.440       113
59.450        87
59.460       160
59.470       100
59.480        93
59.490       133
59.500       127
59.510        93
59.520       147
59.530       127
59.540       113
59.550       133
59.560       100
59.570        87
59.580       140
59.590       127
59.600        73
59.610       113
59.620       100
59.630       113
59.640       113
59.650       113
59.660       160
59.670       160
59.680       173
59.690       113
59.700       167
59.710       133
59.720       120
59.730       113
59.740        93
59.750       107
59.760        80
59.770       140
59.780       140
59.790       140
59.800       147
59.810        93
59.820        80
59.830       173
59.840       107
59.850        73
59.860       133
59.870       147
59.880       120
59.890       120
59.900        87
59.910       127
59.920       160
59.930       133
59.940       140
59.950       113
59.960       167
59.970        87
59.980        73
59.990       133
60.000        93
