28.000       434
28.010       448
28.020       441
28.030       445
28.040       468
28.050       433
28.060       450
28.070       465
28.080       439
28.090       451
28.100       437
28.110       433
28.120       436
28.130       453
28.140       426
28.150       425
28.160       430
28.170       435
28.180       427
28.190       444
28.200       433
28.210       427
28.220       421
28.230       435
28.240       447
28.250       443
28.260       430
28.270       412
28.280       432
28.290       416
28.300       430
28.310       424
28.320       434
28.330       410
28.340       424
28.350       420
28.360       420
28.370       438
28.380       417
28.390       407
28.400       449
28.410       405
28.420       386
28.430       421
28.440       424
28.450       419
28.460       408
28.470       421
28.480       402
28.490       434
28.500       397
28.510       402
28.520       404
28.530       392
28.540       417
28.550       426
28.560       411
28.570       416
28.580       399
28.590       397
28.600       407
28.610       395
28.620       409
28.630       407
28.640       399
28.650       392
28.660       418
28.670       380
28.680       407
28.690       404
28.700       398
28.710       396
28.720       407
28.730       385
28.740       383
28.750       385
28.760       397
28.770       408
28.780       401
28.790       385
28.800       391
28.810       396
28.820       393
28.830       366
28.840       411
28.850       375
28.860       401
28.870       397
28.880       399
28.890       399
28.900       390
28.910       391
28.920       375
28.930       396
28.940       383
28.950       392
28.960       366
28.970       394
28.980       389
28.990       378
29.000       395
29.010       394
29.020       394
29.030       369
29.040       393
29.050       400
29.060       391
29.070       392
29.080       388
29.090       410
29.100       369
29.110       397
29.120       407
29.130       408
29.140       401
29.150       373
29.160       406
29.170       390
29.180       406
29.190       374
29.200       386
29.210       370
29.220       405
29.230       405
29.240       387
29.250       396
29.260       402
29.270       390
29.280       419
29.290       393
29.300       393
29.310       389
29.320       381
29.330       387
29.340       384
29.350       386
29.360       376
29.370       374
29.380       363
29.390       375
29.400       391
29.410       363
29.420       350
29.430       359
29.440       373
29.450       350
29.460       375
29.470       398
29.480       358
29.490       366
29.500       344
29.510       352
29.520       356
29.530       350
29.540       362
29.550       351
29.560       378
29.570       356
29.580       355
29.590       340
29.600       363
29.610       371
29.620       372
29.630       369
29.640       350
29.650       348
29.660       344
29.670       350
29.680       331
29.690       342
29.700       339
29.710       343
29.720       365
29.730       346
29.740       359
29.750       347
29.760       348
29.770       326
29.780       336
29.790       341
29.800       327
29.810       344
29.820       326
29.830       335
29.840       333
29.850       316
29.860       341
29.870       331
29.880       347
29.890       330
29.900       332
29.910       327
29.920       325
29.930       322
29.940       326
29.950       352
29.960       322
29.970       339
29.980       334
29.990       319
30.000       305
30.010       323
30.020       338
30.030       331
30.040       319
30.050       313
30.060       321
30.070       321
30.080       337
30.090       325
30.100       315
30.110       318
30.120       324
30.130       331
30.140       309
30.150       310
30.160       307
30.170       305
30.180       315
30.190       305
30.200       299
30.210       315
30.220       321
30.230       295
30.240       322
30.250       315
30.260       313
30.270       307
30.280       326
30.290       297
30.300       305
30.310       295
30.320       299
30.330       303
30.340       308
30.350       288
30.360       294
30.370       319
30.380       297
30.390       311
30.400       303
30.410       295
30.420       305
30.430       304
30.440       298
30.450       293
30.460       295
30.470       292
30.480       289
30.490       281
30.500       303
30.510       297
30.520       304
30.530       299
30.540       297
30.550       276
30.560       299
30.570       266
30.580       295
30.590       287
30.600       288
30.610       263
30.620       291
30.630       285
30.640       292
30.650       268
30.660       294
30.670       295
30.680       286
30.690       287
30.700       281
30.710       284
30.720       267
30.730       285
30.740       287
30.750       266
30.760       284
30.770       270
30.780       270
30.790       292
30.800       282
30.810       289
30.820       265
30.830       275
30.840       266
30.850       272
30.860       268
30.870       280
30.880       273
30.890       270
30.900       260
30.910       276
30.920       257
30.930       275
30.940       275
30.950       253
30.960       256
30.970       275
30.980       273
30.990       258
31.000       267
31.010       265
31.020       269
31.030       276
31.040       248
31.050       261
31.060       263
31.070       255
31.080       250
31.090       257
31.100       261
31.110       255
31.120       242
31.130       272
31.140       267
31.150       260
31.160       258
31.170       254
31.180       265
31.190       264
31.200       233
31.210       239
31.220       248
31.230       246
31.240       248
31.250       242
31.260       254
31.270       244
31.280       252
31.290       240
31.300       246
31.310       241
31.320       235
31.330       245
31.340       239
31.350       232
31.360       252
31.370       247
31.380       234
31.390       238
31.400       227
31.410       240
31.420       243
31.430       237
31.440       246
31.450       224
31.460       245
31.470       246
31.480       238
31.490       236
31.500       229
31.510       236
31.520       228
31.530       226
31.540       240
31.550       237
31.560       240
31.570       251
31.580       219
31.590       235
31.600       214
31.610       233
31.620       244
31.630       236
31.640       233
31.650       236
31.660       220
31.670       237
31.680       231
31.690       237
31.700       220
31.710       228
31.720       223
31.730       211
31.740       221
31.750       229
31.760       205
31.770       219
31.780       205
31.790       206
31.800       211
31.810       220
31.820       223
31.830       212
31.840       233
31.850       222
31.860       220
31.870       198
31.880       233
31.890       226
31.900       217
31.910       211
31.920       207
31.930       202
31.940       225
31.950       220
31.960       216
31.970       206
31.980       209
31.990       226
32.000       217
32.010       211
32.020       207
32.030       219
32.040       205
32.050       232
32.060       207
32.070       211
32.080       222
32.090       211
32.100       205
32.110       205
32.120       216
32.130       209
32.140       197
32.150       215
32.160       211
32.170       215
32.180       198
32.190       205
32.200       200
32.210       213
32.220       212
32.230       203
32.240       206
32.250       209
32.260       198
32.270       194
32.280       203
32.290       204
32.300       211
32.310       201
32.320       199
32.330       196
32.340       208
32.350       190
32.360       209
32.370       203
32.380       212
32.390       200
32.400       200
32.410       204
32.420       196
32.430       193
32.440       205
32.450       202
32.460       209
32.470       200
32.480       192
32.490       204
32.500       200
32.510       193
32.520       194
32.530       191
32.540       193
32.550       183
32.560       190
32.570       190
32.580       186
32.590       193
32.600       188
32.610       207
32.620       179
32.630       192
32.640       193
32.650       203
32.660       195
32.670       193
32.680       191
32.690       205
32.700       188
32.710       190
32.720       180
32.730       190
32.740       190
32.750       188
32.760       196
32.770       190
32.780       185
32.790       182
32.800       190
32.810       186
32.820       195
32.830       179
32.840       177
32.850       197
32.860       184
32.870       179
32.880       180
32.890       179
32.900       183
32.910       177
32.920       188
32.930       196
32.940       176
32.950       182
32.960       179
32.970       181
32.980       184
32.990       183
33.000       180
33.010       189
33.020       188
33.030       168
33.040       176
33.050       183
33.060       187
33.070       175
33.080       175
33.090       169
33.100       161
33.110       170
33.120       176
33.130       161
33.140       164
33.150       177
33.160       174
33.170       167
33.180       169
33.190       173
33.200       173
33.210       164
33.220       173
33.230       186
33.240       168
33.250       167
33.260       176
33.270       177
33.280       158
33.290       164
33.300       163
33.310       168
33.320       170
33.330       160
33.340       175
33.350       165
33.360       172
33.370       170
33.380       169
33.390       178
33.400       165
33.410       160
33.420       163
33.430       165
33.440       165
33.450       173
33.460       166
33.470       173
33.480       179
33.490       160
33.500       148
33.510       148
33.520       167
33.530       157
33.540       163
33.550       160
33.560       168
33.570       156
33.580       161
33.590       162
33.600       169
33.610       155
33.620       155
33.630       171
33.640       166
33.650       169
33.660       168
33.670       160
33.680       147
33.690       154
33.700       158
33.710       159
33.720       152
33.730       157
33.740       156
33.750       154
33.760       143
33.770       146
33.780       151
33.790       161
33.800       154
33.810       150
33.820       171
33.830       148
33.840       143
33.850       150
33.860       160
33.870       140
33.880       141
33.890       149
33.900       161
33.910       173
33.920       147
33.930       141
33.940       140
33.950       137
33.960       143
33.970       158
33.980       146
33.990       144
34.000       137
