20.000        43
20.020        43
20.040        50
20.060        48
20.080        40
20.100        42
20.120        57
20.140        35
20.160        58
20.180        38
20.200        37
20.220        52
20.240        42
20.260        43
20.280        50
20.300        32
20.320        42
20.340        60
20.360        35
20.380        48
20.400        30
20.420        40
20.440        23
20.460        42
20.480        55
20.500        50
20.520        48
20.540        40
20.560        53
20.580        42
20.600        35
20.620        38
20.640        28
20.660        28
20.680        27
20.700        35
20.720        63
20.740        40
20.760        45
20.780        58
20.800        33
20.820        48
20.840        40
20.860        33
20.880        63
20.900        30
20.920        25
20.940        45
20.960        47
20.980        38
21.000        50
21.020        45
21.040        32
21.060        53
21.080        47
21.100        43
21.120        32
21.140        37
21.160        48
21.180        53
21.200        27
21.220        57
21.240        30
21.260        42
21.280        38
21.300        40
21.320        40
21.340        37
21.360        38
21.380        43
21.400        43
21.420        33
21.440        43
21.460        43
21.480        45
21.500        38
21.520        40
21.540        35
21.560        32
21.580        28
21.600        35
21.620        27
21.640        38
21.660        35
21.680        42
21.700        30
21.720        30
21.740        38
21.760        30
21.780        33
21.800        42
21.820        32
21.840        37
21.860        25
21.880        28
21.900        45
21.920        27
21.940        28
21.960        43
21.980        53
22.000        48
22.020        23
22.040        35
22.060        30
22.080        33
22.100        42
22.120        37
22.140        32
22.160        23
22.180        27
22.200        37
22.220        47
22.240        42
22.260        30
22.280        27
22.300        53
22.320        32
22.340        40
22.360        40
22.380        33
22.400        47
22.420        37
22.440        55
22.460        33
22.480        45
22.500        33
22.520        50
22.540        50
22.560        40
22.580        33
22.600        33
22.620        52
22.640        48
22.660        43
22.680        37
22.700        38
22.720        47
22.740        50
22.760        38
22.780        42
22.800        40
22.820        42
22.840        28
22.860        32
22.880        28
22.900        50
22.920        40
22.940        55
22.960        57
22.980        42
23.000        50
23.020        43
23.040        35
23.060        33
23.080        33
23.100        47
23.120        25
23.140        30
23.160        47
23.180        47
23.200        38
23.220        38
23.240        35
23.260        38
23.280        38
23.300        47
23.320        40
23.340        48
23.360        43
23.380        43
23.400        28
23.420        55
23.440        42
23.460        50
23.480        52
23.500        28
23.520        42
23.540        40
23.560        43
23.580        63
23.600        35
23.620        37
23.640        37
23.660        67
23.680        40
23.700        42
23.720        40
23.740        50
23.760        48
23.780        35
23.800        37
23.820        33
23.840        35
23.860        45
23.880        30
23.900        35
23.920        42
23.940        35
23.960        33
23.980        30
24.000        40
24.020        37
24.040        33
24.060        33
24.080        32
24.100        35
24.120        45
24.140        40
24.160        43
24.180        43
24.200        27
24.220        53
24.240        27
24.260        22
24.280        32
24.300        25
24.320        32
24.340        30
24.360        47
24.380        35
24.400        52
24.420        30
24.440        43
24.460        43
24.480        45
24.500        40
24.520        40
24.540        37
24.560        33
24.580        45
24.600        48
24.620        43
24.640        45
24.660        43
24.680        58
24.700        38
24.720        27
24.740        63
24.760        60
24.780        50
24.800        53
24.820        50
24.840        48
24.860        40
24.880        50
24.900        42
24.920        60
24.940        47
24.960        53
24.980        48
25.000        57
25.020        48
25.040        55
25.060        45
25.080        65
25.100        58
25.120        43
25.140        53
25.160        55
25.180        57
25.200        50
25.220        68
25.240        60
25.260        75
25.280        87
25.300       170
25.320       292
25.340       561
25.360       901
25.380      1205
25.400      1763
25.420      2212
25.440      2462
25.460      2339
25.480      2306
25.500      2023
25.520      1633
25.540      1331
25.560      1006
25.580       791
25.600       760
25.620       621
25.640       630
25.660       566
25.680       405
25.700       288
25.720       277
25.740       198
25.760       123
25.780       102
25.800        68
25.820        75
25.840        68
25.860        62
25.880        63
25.900        65
25.920        38
25.940        57
25.960        48
25.980        52
26.000        53
26.020        52
26.040        45
26.060        48
26.080        42
26.100        42
26.120        57
26.140        48
26.160        50
26.180        53
26.200        68
26.220        57
26.240        60
26.260        50
26.280        53
26.300        62
26.320        48
26.340        55
26.360        42
26.380        35
26.400        55
26.420        47
26.440        37
26.460        52
26.480        53
26.500        48
26.520        57
26.540        53
26.560        45
26.580        47
26.600        38
26.620        48
26.640        45
26.660        60
26.680        42
26.700        43
26.720        55
26.740        32
26.760        50
26.780        50
26.800        40
26.820        45
26.840        45
26.860        65
26.880        37
26.900        38
26.920        40
26.940        48
26.960        37
26.980        48
27.000        50
27.020        42
27.040        43
27.060        43
27.080        62
27.100        38
27.120        38
27.140        45
27.160        43
27.180        37
27.200        38
27.220        32
27.240        40
27.260        50
27.280        55
27.300        55
27.320        57
27.340        55
27.360        62
27.380        45
27.400        40
27.420        38
27.440        58
27.460        35
27.480        40
27.500        48
27.520        47
27.540        58
27.560        47
27.580        43
27.600        42
27.620        42
27.640        52
27.660        50
27.680        42
27.700        43
27.720        52
27.740        45
27.760        60
27.780        45
27.800        50
27.820        43
27.840        60
27.860        55
27.880        53
27.900        38
27.920        42
27.940        40
27.960        48
27.980        35
28.000        47
28.020        42
28.040        63
28.060        47
28.080        62
28.100        50
28.120        35
28.140        42
28.160        40
28.180        38
28.200        40
28.220        47
28.240        43
28.260        50
28.280        58
28.300        62
28.320        63
28.340        50
28.360        67
28.380        50
28.400        43
28.420        40
28.440        57
28.460        60
28.480        62
28.500        67
28.520        70
28.540        72
28.560        50
28.580        62
28.600        63
28.620        60
28.640        47
28.660        57
28.680        65
28.700        52
28.720        55
28.740        43
28.760        70
28.780        48
28.800        35
28.820        62
28.840        70
28.860        60
28.880        48
28.900        57
28.920        68
28.940        62
28.960        50
28.980        60
29.000        60
29.020        63
29.040        80
29.060        73
29.080       103
29.100        82
29.120        75
29.140        48
29.160        65
29.180        92
29.200        78
29.220        83
29.240        68
29.260        93
29.280        67
29.300        57
29.320        62
29.340        70
29.360        83
29.380        62
29.400        62
29.420        70
29.440        62
29.460        62
29.480        62
29.500        40
29.520        40
29.540        67
29.560        60
29.580        55
29.600        58
29.620        50
29.640        63
29.660        70
29.680        67
29.700        57
29.720        45
29.740        50
29.760        70
29.780        60
29.800        68
29.820        65
29.840        77
29.860        62
29.880        57
29.900        43
29.920        63
29.940        72
29.960        70
29.980        60
30.000        68
30.020        67
30.040        72
30.060        67
30.080        63
30.100        70
30.120        58
30.140        75
30.160        83
30.180        63
30.200        63
30.220        63
30.240        52
30.260        98
30.280        55
30.300        60
30.320        75
30.340        80
30.360        63
30.380        50
30.400        55
30.420        77
30.440        63
30.460        83
30.480        72
30.500        73
30.520        73
30.540        78
30.560        73
30.580        58
30.600        82
30.620        72
30.640        97
30.660        70
30.680        67
30.700        73
30.720        82
30.740        73
30.760        65
30.780        78
30.800        75
30.820        93
30.840        75
30.860        78
30.880        65
30.900        55
30.920        82
30.940        87
30.960        72
30.980        87
31.000        83
31.020        98
31.040        75
31.060        80
31.080        93
31.100        68
31.120        92
31.140        82
31.160        75
31.180        92
31.200        70
31.220       107
31.240       100
31.260        97
31.280        90
31.300       110
31.320        77
31.340       105
31.360        78
31.380        95
31.400        98
31.420        90
31.440        73
31.460        82
31.480        83
31.500        67
31.520       115
31.540       112
31.560       100
31.580        63
31.600       102
31.620       100
31.640        97
31.660       112
31.680        95
31.700       100
31.720        92
31.740       125
31.760        87
31.780       103
31.800        83
31.820       110
31.840       115
31.860       117
31.880        68
31.900        87
31.920        98
31.940        87
31.960        90
31.980        85
32.000       107
32.020       127
32.040       112
32.060       102
32.080       113
32.100       103
32.120        97
32.140       117
32.160        90
32.180       105
32.200       108
32.220       112
32.240       115
32.260        87
32.280        97
32.300       118
32.320       125
32.340       113
32.360       138
32.380        93
32.400        92
32.420       123
32.440        95
32.460        83
32.480        82
32.500        95
32.520       107
32.540       122
32.560       112
32.580       105
32.600        70
32.620       103
32.640       103
32.660        88
32.680       112
32.700        70
32.720        83
32.740        72
32.760        75
32.780        85
32.800       108
32.820       118
32.840       103
32.860        98
32.880       117
32.900       110
32.920        70
32.940       108
32.960       108
32.980       105
33.000        87
33.020        82
33.040        82
33.060        93
33.080        92
33.100       108
33.120        90
33.140        97
33.160        87
33.180       102
33.200        67
33.220        97
33.240        60
33.260        82
33.280       105
33.300        97
33.320        92
33.340        65
33.360       100
33.380        75
33.400        77
33.420        87
33.440       112
33.460        95
33.480        93
33.500        60
33.520        97
33.540        70
33.560        78
33.580       102
33.600        70
33.620        78
33.640        80
33.660        92
33.680        88
33.700        97
33.720       103
33.740       102
33.760        92
33.780        98
33.800        78
33.820        85
33.840        92
33.860       108
33.880        98
33.900        92
33.920        93
33.940        93
33.960        85
33.980        80
34.000        97
34.020        83
34.040        73
34.060        90
34.080        95
34.100        85
34.120        93
34.140        87
34.160       107
34.180        77
34.200        82
34.220        68
34.240       102
34.260        68
34.280       113
34.300        88
34.320       100
34.340       102
34.360        90
34.380        88
34.400        83
34.420        77
34.440        85
34.460        92
34.480        93
34.500        97
34.520        80
34.540        75
34.560        80
34.580        83
34.600        77
34.620        60
34.640        77
34.660        95
34.680        83
34.700        73
34.720        67
34.740        53
34.760       108
34.780        88
34.800        80
34.820        75
34.840        77
34.860        90
34.880        68
34.900        78
34.920        92
34.940        70
34.960        82
34.980        63
35.000        82
35.020        90
35.040        70
35.060        90
35.080        68
35.100        80
35.120        93
35.140        68
35.160        50
35.180        85
35.200        87
35.220        78
35.240        90
35.260        78
35.280        62
35.300        62
35.320        70
35.340        68
35.360        67
35.380        70
35.400        78
35.420        82
35.440        92
35.460        55
35.480        77
35.500        63
35.520        83
35.540        68
35.560        67
35.580        78
35.600        83
35.620        67
35.640        85
35.660        75
35.680        63
35.700        73
35.720        67
35.740        80
35.760        68
35.780        82
35.800        60
35.820       107
35.840        73
35.860        48
35.880        52
35.900        73
35.920        70
35.940        75
35.960        63
35.980        72
36.000        57
36.020        77
36.040        82
36.060        73
36.080        70
36.100        57
36.120        80
36.140        65
36.160        82
36.180        57
36.200        70
36.220        70
36.240        85
36.260        70
36.280        63
36.300        53
36.320        67
36.340        80
36.360        90
36.380        63
36.400        72
36.420        83
36.440        68
36.460        63
36.480        68
36.500        67
36.520        63
36.540        60
36.560        73
36.580        63
36.600        70
36.620        58
36.640        60
36.660        62
36.680        58
36.700        68
36.720        60
36.740        45
36.760        58
36.780        60
36.800        62
36.820        77
36.840        88
36.860        60
36.880        57
36.900        63
36.920        70
36.940        45
36.960        52
36.980        97
37.000        58
37.020        50
37.040        68
37.060        62
37.080        73
37.100        68
37.120        63
37.140        48
37.160        50
37.180        60
37.200        48
37.220        62
37.240        58
37.260        57
37.280        70
37.300        57
37.320        60
37.340        58
37.360        68
37.380        62
37.400        75
37.420        48
37.440        63
37.460        57
37.480        48
37.500        53
37.520        65
37.540        55
37.560        53
37.580        62
37.600        50
37.620        55
37.640        65
37.660        50
37.680        63
37.700        37
37.720        78
37.740        47
37.760        65
37.780        43
37.800        53
37.820        67
37.840        60
37.860        50
37.880        45
37.900        40
37.920        53
37.940        42
37.960        60
37.980        62
38.000        63
38.020        55
38.040        63
38.060        32
38.080        57
38.100        52
38.120        55
38.140        62
38.160        57
38.180        35
38.200        48
38.220        63
38.240        72
38.260        63
38.280        52
38.300        35
38.320        78
38.340        60
38.360        43
38.380        47
38.400        55
38.420        53
38.440        60
38.460        32
38.480        47
38.500        35
38.520        68
38.540        58
38.560        57
38.580        43
38.600        50
38.620        65
38.640        57
38.660        47
38.680        53
38.700        37
38.720        43
38.740        45
38.760        42
38.780        37
38.800        55
38.820        45
38.840        37
38.860        57
38.880        38
38.900        43
38.920        48
38.940        47
38.960        45
38.980        47
39.000        43
39.020        37
39.040        45
39.060        57
39.080        67
39.100        55
39.120        53
39.140        63
39.160        58
39.180        55
39.200        40
39.220        58
39.240        45
39.260        65
39.280        43
39.300        52
39.320        48
39.340        37
39.360        58
39.380        52
39.400        38
39.420        37
39.440        45
39.460        48
39.480        47
39.500        32
39.520        40
39.540        45
39.560        33
39.580        47
39.600        45
39.620        38
39.640        42
39.660        48
39.680        45
39.700        65
39.720        48
39.740        37
39.760        45
39.780        52
39.800        48
39.820        43
39.840        38
39.860        53
39.880        55
39.900        50
39.920        35
39.940        33
39.960        43
39.980        40
40.000        43
40.020        58
40.040        48
40.060        40
40.080        63
40.100        35
40.120        33
40.140        40
40.160        58
40.180        50
40.200        40
40.220        45
40.240        45
40.260        45
40.280        35
40.300        37
40.320        55
40.340        63
40.360        58
40.380        37
40.400        22
40.420        35
40.440        45
40.460        55
40.480        35
40.500        28
40.520        33
40.540        58
40.560        35
40.580        43
40.600        43
40.620        38
40.640        38
40.660        17
40.680        58
40.700        38
40.720        43
40.740        43
40.760        48
40.780        45
40.800        57
40.820        33
40.840        28
40.860        33
40.880        57
40.900        48
40.920        32
40.940        32
40.960        60
40.980        43
41.000        25
41.020        33
41.040        42
41.060        52
41.080        48
41.100        58
41.120        37
41.140        37
41.160        30
41.180        30
41.200        47
41.220        37
41.240        43
41.260        38
41.280        43
41.300        37
41.320        48
41.340        30
41.360        37
41.380        40
41.400        52
41.420        43
41.440        37
41.460        27
41.480        47
41.500        43
41.520        28
41.540        43
41.560        50
41.580        40
41.600        55
41.620        50
41.640        40
41.660        50
41.680        52
41.700        32
41.720        35
41.740        30
41.760        45
41.780        33
41.800        43
41.820        42
41.840        28
41.860        55
41.880        33
41.900        50
41.920        47
41.940        50
41.960        53
41.980        22
42.000        40
42.020        42
42.040        47
42.060        32
42.080        47
42.100        43
42.120        62
42.140        40
42.160        30
42.180        45
42.200        37
42.220        37
42.240        53
42.260        47
42.280        27
42.300        42
42.320        43
42.340        27
42.360        47
42.380        42
42.400        40
42.420        43
42.440        50
42.460        37
42.480        42
42.500        37
42.520        43
42.540        45
42.560        40
42.580        27
42.600        45
42.620        45
42.640        35
42.660        27
42.680        37
42.700        47
42.720        38
42.740        55
42.760        30
42.780        32
42.800        30
42.820        40
42.840        25
42.860        37
42.880        33
42.900        40
42.920        45
42.940        40
42.960        62
42.980        37
43.000        33
43.020        37
43.040        40
43.060        33
43.080        37
43.100        53
43.120        53
43.140        48
43.160        55
43.180        42
43.200        38
43.220        32
43.240        35
43.260        38
43.280        33
43.300        37
43.320        32
43.340        53
43.360        43
43.380        35
43.400        52
43.420        43
43.440        48
43.460        37
43.480        30
43.500        42
43.520        38
43.540        42
43.560        32
43.580        37
43.600        33
43.620        38
43.640        37
43.660        40
43.680        35
43.700        38
43.720        32
43.740        30
43.760        30
43.780        50
43.800        33
43.820        18
43.840        30
43.860        35
43.880        40
43.900        42
43.920        37
43.940        50
43.960        38
43.980        42
44.000        43
44.020        33
44.040        30
44.060        33
44.080        38
44.100        33
44.120        45
44.140        43
44.160        35
44.180        28
44.200        33
44.220        20
44.240        35
44.260        38
44.280        27
44.300        38
44.320        38
44.340        30
44.360        42
44.380        43
44.400        22
44.420        25
44.440        27
44.460        33
44.480        32
44.500        28
44.520        27
44.540        40
44.560        38
44.580        37
44.600        28
44.620        30
44.640        43
44.660        45
44.680        38
44.700        35
44.720        32
44.740        28
44.760        30
44.780        30
44.800        28
44.820        37
44.840        33
44.860        23
44.880        38
44.900        25
44.920        35
44.940        37
44.960        27
44.980        22
45.000        38
45.020        37
45.040        45
45.060        48
45.080        43
45.100        23
45.120        42
45.140        35
45.160        35
45.180        37
45.200        32
45.220        43
45.240        30
45.260        27
45.280        28
45.300        43
45.320        22
45.340        13
45.360        37
45.380        28
45.400        47
45.420        33
45.440        25
45.460        52
45.480        25
45.500        48
45.520        27
45.540        35
45.560        38
45.580        35
45.600        45
45.620        28
45.640        43
45.660        40
45.680        33
45.700        22
45.720        33
45.740        27
45.760        27
45.780        38
45.800        38
45.820        37
45.840        45
45.860        55
45.880        32
45.900        35
45.920        30
45.940        52
45.960        33
45.980        27
46.000        27
46.020        42
46.040        43
46.060        22
46.080        40
46.100        42
46.120        35
46.140        37
46.160        37
46.180        32
46.200        33
46.220        35
46.240        32
46.260        42
46.280        32
46.300        35
46.320        38
46.340        28
46.360        40
46.380        35
46.400        43
46.420        37
46.440        43
46.460        35
46.480        38
46.500        42
46.520        32
46.540        27
46.560        38
46.580        42
46.600        43
46.620        30
46.640        27
46.660        30
46.680        33
46.700        32
46.720        40
46.740        42
46.760        47
46.780        47
46.800        70
46.820        63
46.840        52
46.860        63
46.880        60
46.900        67
46.920        67
46.940        67
46.960        63
46.980       100
47.000        70
47.020       122
47.040       122
47.060       122
47.080       127
47.100       135
47.120       207
47.140       295
47.160       545
47.180       988
47.200      1246
47.220      1273
47.240      1038
47.260       521
47.280       315
47.300       198
47.320        98
47.340       128
47.360       122
47.380        95
47.400        82
47.420        70
47.440        80
47.460        73
47.480        72
47.500        73
47.520        72
47.540        65
47.560        58
47.580        70
47.600        83
47.620        53
47.640        60
47.660        53
47.680        58
47.700        60
47.720        67
47.740        65
47.760        40
47.780        53
47.800        42
47.820        55
47.840        52
47.860        60
47.880        70
47.900        47
47.920        52
47.940        33
47.960        42
47.980        40
48.000        32
48.020        45
48.040        37
48.060        45
48.080        47
48.100        50
48.120        37
48.140        33
48.160        40
48.180        42
48.200        42
48.220        28
48.240        45
48.260        45
48.280        57
48.300        52
48.320        55
48.340        52
48.360        33
48.380        55
48.400        50
48.420        63
48.440        58
48.460        42
48.480        55
48.500        42
48.520        42
48.540        30
48.560        48
48.580        45
48.600        33
48.620        53
48.640        37
48.660        43
48.680        33
48.700        50
48.720        55
48.740        38
48.760        43
48.780        40
48.800        37
48.820        37
48.840        37
48.860        45
48.880        37
48.900        48
48.920        47
48.940        43
48.960        27
48.980        55
49.000        30
49.020        43
49.040        43
49.060        40
49.080        23
49.100        50
49.120        25
49.140        28
49.160        50
49.180        33
49.200        32
49.220        38
49.240        42
49.260        57
49.280        28
49.300        28
49.320        38
49.340        43
49.360        20
49.380        38
49.400        33
49.420        37
49.440        47
49.460        40
49.480        48
49.500        55
49.520        32
49.540        42
49.560        32
49.580        37
49.600        37
49.620        32
49.640        38
49.660        32
49.680        42
49.700        35
49.720        37
49.740        38
49.760        37
49.780        40
49.800        57
49.820        38
49.840        40
49.860        47
49.880        35
49.900        38
49.920        52
49.940        32
49.960        38
49.980        47
50.000        40
50.020        43
50.040        42
50.060        38
50.080        32
50.100        30
50.120        42
50.140        43
50.160        38
50.180        37
50.200        45
50.220        38
50.240        38
50.260        38
50.280        50
50.300        42
50.320        48
50.340        35
50.360        37
50.380        48
50.400        42
50.420        28
50.440        35
50.460        45
50.480        48
50.500        33
50.520        47
50.540        52
50.560        65
50.580        98
50.600        72
50.620        80
50.640       115
50.660       158
50.680       243
50.700       315
50.720       363
50.740       358
50.760       382
50.780       360
50.800       372
50.820       347
50.840       368
50.860       395
50.880       382
50.900       395
50.920       340
50.940       342
50.960       395
50.980       405
51.000       358
51.020       390
51.040       387
51.060       352
51.080       408
51.100       417
51.120       345
51.140       387
51.160       387
51.180       428
51.200       400
51.220       368
51.240       405
51.260       393
51.280       380
51.300       388
51.320       373
51.340       436
51.360       398
51.380       388
51.400       377
51.420       431
51.440       392
51.460       392
51.480       468
51.500       436
51.520       387
51.540       415
51.560       398
51.580       420
51.600       413
51.620       458
51.640       465
51.660       463
51.680       382
51.700       456
51.720       465
51.740       473
51.760       410
51.780       478
51.800       440
51.820       460
51.840       501
51.860       521
51.880       485
51.900       518
51.920       446
51.940       511
51.960       495
51.980       571
52.000       541
52.020       570
52.040       560
52.060       641
52.080       681
52.100       676
52.120       698
52.140       780
52.160       836
52.180       898
52.200       905
52.220       990
52.240      1205
52.260      1369
52.280      1691
52.300      2234
52.320      3172
52.340      4447
52.360      5709
52.380      6874
52.400      7940
52.420      8665
52.440      9619
52.460     10512
52.480     12312
52.500     16495
52.520     24710
52.540     47826
52.560     99500
52.580    153119
52.600    175606
52.620    161990
52.640    106787
52.660     53279
52.680     40337
52.700     60781
52.720     88618
52.740    101606
52.760     91700
52.780     57460
52.800     25465
52.820     11192
52.840      6714
52.860      4635
52.880      3544
52.900      2626
52.920      2317
52.940      1956
52.960      1869
52.980      1506
53.000      1301
53.020      1311
53.040      1155
53.060      1051
53.080       986
53.100       965
53.120       845
53.140       875
53.160       845
53.180       800
53.200       768
53.220       656
53.240       701
53.260       665
53.280       628
53.300       588
53.320       618
53.340       588
53.360       621
53.380       553
53.400       533
53.420       508
53.440       520
53.460       530
53.480       526
53.500       463
53.520       540
53.540       516
53.560       486
53.580       460
53.600       445
53.620       423
53.640       428
53.660       428
53.680       458
53.700       415
53.720       387
53.740       370
53.760       430
53.780       423
53.800       360
53.820       430
53.840       358
53.860       320
53.880       355
53.900       368
53.920       426
53.940       340
53.960       363
53.980       350
54.000       398
54.020       373
54.040       365
54.060       355
54.080       350
54.100       335
54.120       332
54.140       360
54.160       310
54.180       365
54.200       327
54.220       333
54.240       377
54.260       287
54.280       330
54.300       288
54.320       312
54.340       280
54.360       290
54.380       332
54.400       317
54.420       312
54.440       268
54.460       297
54.480       322
54.500       290
54.520       352
54.540       357
54.560       278
54.580       262
54.600       263
54.620       307
54.640       297
54.660       295
54.680       318
54.700       283
54.720       318
54.740       302
54.760       290
54.780       297
54.800       272
54.820       235
54.840       267
54.860       275
54.880       248
54.900       288
54.920       262
54.940       295
54.960       265
54.980       238
55.000       227
55.020       257
55.040       235
55.060       297
55.080       293
55.100       208
55.120       245
55.140       257
55.160       273
55.180       255
55.200       260
55.220       247
55.240       267
55.260       285
55.280       232
55.300       245
55.320       242
55.340       247
55.360       257
55.380       230
55.400       250
55.420       250
55.440       265
55.460       238
55.480       242
55.500       247
55.520       228
55.540       248
55.560       238
55.580       210
55.600       257
55.620       230
55.640       270
55.660       245
55.680       233
55.700       278
55.720       225
55.740       230
55.760       218
55.780       253
55.800       243
55.820       243
55.840       238
55.860       188
55.880       197
55.900       240
55.920       197
55.940       207
55.960       192
55.980       190
56.000       198
56.020       218
56.040       182
56.060       233
56.080       232
56.100       197
56.120       237
56.140       207
56.160       213
56.180       227
56.200       180
56.220       243
56.240       202
56.260       200
56.280       192
56.300       218
56.320       215
56.340       243
56.360       215
56.380       227
56.400       227
56.420       195
56.440       247
56.460       203
56.480       225
56.500       223
56.520       217
56.540       233
56.560       192
56.580       202
56.600       208
56.620       190
56.640       188
56.660       208
56.680       183
56.700       207
56.720       193
56.740       182
56.760       168
56.780       228
56.800       195
56.820       213
56.840       190
56.860       188
56.880       213
56.900       163
56.920       192
56.940       183
56.960       170
56.980       195
57.000       173
57.020       188
57.040       178
57.060       183
57.080       155
57.100       200
57.120       218
57.140       192
57.160       225
57.180       183
57.200       170
57.220       217
57.240       195
57.260       160
57.280       183
57.300       217
57.320       182
57.340       187
57.360       188
57.380       197
57.400       192
57.420       172
57.440       195
57.460       157
57.480       168
57.500       187
57.520       173
57.540       223
57.560       175
57.580       165
57.600       172
57.620       207
57.640       168
57.660       173
57.680       165
57.700       180
57.720       215
57.740       170
57.760       163
57.780       172
57.800       172
57.820       172
57.840       165
57.860       170
57.880       190
57.900       193
57.920       183
57.940       177
57.960       172
57.980       195
58.000       173
58.020       160
58.040       160
58.060       158
58.080       188
58.100       132
58.120       187
58.140       142
58.160       182
58.180       183
58.200       158
58.220       168
58.240       170
58.260       155
58.280       175
58.300       178
58.320       170
58.340       175
58.360       162
58.380       197
58.400       160
58.420       140
58.440       193
58.460       165
58.480       152
58.500       143
58.520       168
58.540       158
58.560       165
58.580       123
58.600       150
58.620       152
58.640       175
58.660       143
58.680       153
58.700       152
58.720       130
58.740       147
58.760       153
58.780       157
58.800       147
58.820       168
58.840       142
58.860       145
58.880       157
58.900       153
58.920       152
58.940       153
58.960       167
58.980       163
59.000       152
59.020       160
59.040       162
59.060       138
59.080       152
59.100       157
59.120       152
59.140       175
59.160       148
59.180       127
59.200       138
59.220       165
59.240       135
59.260       152
59.280       133
59.300       132
59.320       138
59.340       132
59.360       142
59.380       165
59.400       150
59.420       138
59.440       145
59.460       152
59.480       128
59.500       118
59.520       112
59.540       153
59.560       163
59.580       137
59.600       143
59.620       157
59.640       155
59.660       142
59.680       162
59.700       150
59.720       137
59.740       123
59.760       147
59.780       135
59.800       140
59.820       140
59.840       147
59.860       108
59.880       132
59.900       132
59.920       112
59.940       148
59.960       122
59.980        77
60.000        77
