20.000        70
20.020        70
20.040        50
20.060        63
20.080        77
20.100        63
20.120        63
20.140        53
20.160        43
20.180        43
20.200        53
20.220        30
20.240        57
20.260        73
20.280        50
20.300        60
20.320        50
20.340        40
20.360        43
20.380        70
20.400        37
20.420        43
20.440        40
20.460        40
20.480        73
20.500        47
20.520        43
20.540        33
20.560        60
20.580        50
20.600        40
20.620        23
20.640        40
20.660        40
20.680        57
20.700        43
20.720        70
20.740        40
20.760        80
20.780        63
20.800        43
20.820        57
20.840        37
20.860        30
20.880        33
20.900        27
20.920        57
20.940        37
20.960        43
20.980        73
21.000        50
21.020        53
21.040        40
21.060        57
21.080        40
21.100        43
21.120        40
21.140        43
21.160        43
21.180        50
21.200        40
21.220        53
21.240        47
21.260        53
21.280        43
21.300        47
21.320        63
21.340        40
21.360        50
21.380        43
21.400        47
21.420        33
21.440        37
21.460        47
21.480        40
21.500        43
21.520        47
21.540        40
21.560        67
21.580        70
21.600        63
21.620        80
21.640        37
21.660        47
21.680        13
21.700        50
21.720        40
21.740        53
21.760        23
21.780        27
21.800        30
21.820        53
21.840        47
21.860        17
21.880        43
21.900        37
21.920        23
21.940        47
21.960        37
21.980        50
22.000        33
22.020        33
22.040        60
22.060        23
22.080        40
22.100        50
22.120        47
22.140        50
22.160        47
22.180        47
22.200        47
22.220        40
22.240        37
22.260        27
22.280        63
22.300        43
22.320        53
22.340        67
22.360        80
22.380        80
22.400        53
22.420        80
22.440       133
22.460       157
22.480       170
22.500       147
22.520       203
22.540       220
22.560       157
22.580       177
22.600       157
22.620       227
22.640       183
22.660       183
22.680       143
22.700       187
22.720       150
22.740       120
22.760       150
22.780       137
22.800       143
22.820        97
22.840       133
22.860        97
22.880       110
22.900        87
22.920        80
22.940        47
22.960        83
22.980        37
23.000        57
23.020        53
23.040        60
23.060        53
23.080        77
23.100        43
23.120        70
23.140        40
23.160        57
23.180        30
23.200        27
23.220        53
23.240        23
23.260        57
23.280        47
23.300        40
23.320        43
23.340        33
23.360        50
23.380        80
23.400        30
23.420        50
23.440        43
23.460        33
23.480        50
23.500        37
23.520        50
23.540        53
23.560        33
23.580        37
23.600        37
23.620        50
23.640        53
23.660        40
23.680        33
23.700        40
23.720        57
23.740        50
23.760        43
23.780        37
23.800        30
23.820        30
23.840        40
23.860        33
23.880        80
23.900        43
23.920        23
23.940        33
23.960        40
23.980        47
24.000        40
24.020        37
24.040        43
24.060        40
24.080        20
24.100        57
24.120        47
24.140        63
24.160        43
24.180        23
24.200        23
24.220        37
24.240        47
24.260        50
24.280        50
24.300        40
24.320        43
24.340        57
24.360        47
24.380        40
24.400        27
24.420        33
24.440        53
24.460        37
24.480        47
24.500        23
24.520        47
24.540        57
24.560        40
24.580        43
24.600        53
24.620        40
24.640        27
24.660        40
24.680        43
24.700        47
24.720        70
24.740        23
24.760        23
24.780        40
24.800        43
24.820        27
24.840        33
24.860        50
24.880        43
24.900        17
24.920        37
24.940        37
24.960        27
24.980        60
25.000        23
25.020        43
25.040        37
25.060        50
25.080        40
25.100        37
25.120        43
25.140        43
25.160        23
25.180        43
25.200        20
25.220        37
25.240        37
25.260        17
25.280        27
25.300        37
25.320        43
25.340        37
25.360        43
25.380        53
25.400        50
25.420        27
25.440        43
25.460        40
25.480        57
25.500        23
25.520        20
25.540        37
25.560        67
25.580        40
25.600        53
25.620        20
25.640        53
25.660        57
25.680        27
25.700        37
25.720        23
25.740        50
25.760        27
25.780        37
25.800        37
25.820        30
25.840        27
25.860        37
25.880        33
25.900        37
25.920        40
25.940        57
25.960        40
25.980        20
26.000        43
26.020        30
26.040        30
26.060        23
26.080        33
26.100        43
26.120        43
26.140        53
26.160        30
26.180        70
26.200        37
26.220        17
26.240        47
26.260        37
26.280        43
26.300        20
26.320        33
26.340        37
26.360        37
26.380        50
26.400        40
26.420        30
26.440        40
26.460        30
26.480        20
26.500        33
26.520        37
26.540        20
26.560        30
26.580        43
26.600        40
26.620        13
26.640        33
26.660        30
26.680        30
26.700        60
26.720        33
26.740        37
26.760        23
26.780        20
26.800        37
26.820        30
26.840        40
26.860        40
26.880        30
26.900        37
26.920        23
26.940        40
26.960        50
26.980        37
27.000        23
27.020        43
27.040        27
27.060        40
27.080        27
27.100        23
27.120        30
27.140        17
27.160        17
27.180        43
27.200        33
27.220        40
27.240        33
27.260        37
27.280        20
27.300        50
27.320        37
27.340        20
27.360        57
27.380        47
27.400        57
27.420        23
27.440        23
27.460        50
27.480        50
27.500        40
27.520        33
27.540        33
27.560        27
27.580        30
27.600        63
27.620        40
27.640        30
27.660        43
27.680        30
27.700        37
27.720        17
27.740        57
27.760        30
27.780        33
27.800        17
27.820        20
27.840        50
27.860        40
27.880        37
27.900         7
27.920        47
27.940        40
27.960        27
27.980        33
28.000        37
28.020        37
28.040        27
28.060        30
28.080        43
28.100        33
28.120        47
28.140        20
28.160        43
28.180        33
28.200        47
28.220        47
28.240        30
28.260        47
28.280        37
28.300        33
28.320        33
28.340        40
28.360        27
28.380        40
28.400        30
28.420        40
28.440        33
28.460        20
28.480        33
28.500        30
28.520        27
28.540        23
28.560        30
28.580        37
28.600        27
28.620        33
28.640        30
28.660        57
28.680        43
28.700        67
28.720        37
28.740        47
28.760        50
28.780        43
28.800        57
28.820        60
28.840        77
28.860       110
28.880        67
28.900       123
28.920       100
28.940       107
28.960       123
28.980       187
29.000       217
29.020       130
29.040       100
29.060       123
29.080       113
29.100       110
29.120       103
29.140       140
29.160        90
29.180        73
29.200        53
29.220        60
29.240        77
29.260        73
29.280        47
29.300        57
29.320        37
29.340        40
29.360        43
29.380        53
29.400        27
29.420        43
29.440        17
29.460        33
29.480        33
29.500        30
29.520        50
29.540        23
29.560        30
29.580        37
29.600        33
29.620        27
29.640        43
29.660        37
29.680        13
29.700        37
29.720        33
29.740        37
29.760        23
29.780        40
29.800        33
29.820        47
29.840        33
29.860        30
29.880        50
29.900        33
29.920        33
29.940        50
29.960        33
29.980        23
30.000        40
30.020        27
30.040        30
30.060        37
30.080        47
30.100        37
30.120        47
30.140        30
30.160        17
30.180        23
30.200        43
30.220        20
30.240        17
30.260        40
30.280        30
30.300        23
30.320        33
30.340        37
30.360        57
30.380        40
30.400        60
30.420        50
30.440        53
30.460        27
30.480        40
30.500        40
30.520        47
30.540        20
30.560        30
30.580        43
30.600        27
30.620        33
30.640        30
30.660        20
30.680        47
30.700        27
30.720        10
30.740        13
30.760        23
30.780        30
30.800        40
30.820        17
30.840        40
30.860        20
30.880        23
30.900        27
30.920        30
30.940        17
30.960        27
30.980        23
31.000        27
31.020        33
31.040        10
31.060        30
31.080        20
31.100        43
31.120        30
31.140        30
31.160        67
31.180        40
31.200        20
31.220        33
31.240        50
31.260        17
31.280        30
31.300        27
31.320        37
31.340        27
31.360        43
31.380        20
31.400        33
31.420        30
31.440        53
31.460        40
31.480        50
31.500        23
31.520        27
31.540        40
31.560        43
31.580        23
31.600        33
31.620        37
31.640        30
31.660        40
31.680        33
31.700        47
31.720        23
31.740        23
31.760        20
31.780        33
31.800        30
31.820        40
31.840        17
31.860        43
31.880        33
31.900        27
31.920        37
31.940        43
31.960        27
31.980        33
32.000        30
32.020        20
32.040        47
32.060        33
32.080        53
32.100        40
32.120        47
32.140        40
32.160        30
32.180        37
32.200        53
32.220        70
32.240        53
32.260        63
32.280        40
32.300        60
32.320        67
32.340        53
32.360        80
32.380        83
32.400        90
32.420        77
32.440        53
32.460        77
32.480        57
32.500        63
32.520        53
32.540        60
32.560        53
32.580        87
32.600        67
32.620        40
32.640        27
32.660        53
32.680        47
32.700        40
32.720        20
32.740        23
32.760        27
32.780        20
32.800        47
32.820        30
32.840        43
32.860        23
32.880        27
32.900        40
32.920        47
32.940        17
32.960        20
32.980        37
33.000        33
33.020        23
33.040        23
33.060        23
33.080        17
33.100        10
33.120        50
33.140        30
33.160        23
33.180        40
33.200        33
33.220        33
33.240        23
33.260        20
33.280        30
33.300        37
33.320        37
33.340         7
33.360        33
33.380        47
33.400        20
33.420        27
33.440        17
33.460        33
33.480        33
33.500        27
33.520        33
33.540        17
33.560        37
33.580        27
33.600        13
33.620        30
33.640        27
33.660        33
33.680        33
33.700        43
33.720        30
33.740        20
33.760        23
33.780        20
33.800        27
33.820        17
33.840        20
33.860        27
33.880        20
33.900        23
33.920        27
33.940        30
33.960        23
33.980        33
34.000        27
34.020        30
34.040        23
34.060        23
34.080        37
34.100        10
34.120        37
34.140        20
34.160        23
34.180        47
34.200        23
34.220        23
34.240        13
34.260        37
34.280        27
34.300        23
34.320        30
34.340        40
34.360        27
34.380        33
34.400        27
34.420        13
34.440        23
34.460        43
34.480        27
34.500        40
34.520        40
34.540        13
34.560        50
34.580        37
34.600        17
34.620        33
34.640        43
34.660        33
34.680        40
34.700        27
34.720        50
34.740        50
34.760        53
34.780        43
34.800        30
34.820        87
34.840        17
34.860        17
34.880        20
34.900        27
34.920        37
34.940        30
34.960        40
34.980        47
35.000        30
35.020        50
35.040        57
35.060        33
35.080        20
35.100        30
35.120        37
35.140        53
35.160        77
35.180        40
35.200       107
35.220        60
35.240        83
35.260        87
35.280        33
35.300        37
35.320        63
35.340        43
35.360         7
35.380        20
35.400        30
35.420        30
35.440        27
35.460        27
35.480        20
35.500        10
35.520        30
35.540        17
35.560        43
35.580        10
35.600        47
35.620        20
35.640        37
35.660        23
35.680        17
35.700        23
35.720        23
35.740        27
35.760        17
35.780         7
35.800        27
35.820        33
35.840        17
35.860        27
35.880        10
35.900        10
35.920        37
35.940        27
35.960        20
35.980        27
36.000        13
36.020        23
36.040        23
36.060        30
36.080        33
36.100        33
36.120        17
36.140        27
36.160        17
36.180        30
36.200        27
36.220        27
36.240        47
36.260        30
36.280        37
36.300        33
36.320        20
36.340        30
36.360        40
36.380        17
36.400        20
36.420        20
36.440        37
36.460        37
36.480        10
36.500        23
36.520        17
36.540        20
36.560        20
36.580        20
36.600        27
36.620        13
36.640        20
36.660        17
36.680        17
36.700        20
36.720        17
36.740        13
36.760        20
36.780        30
36.800        43
36.820        30
36.840        30
36.860        13
36.880        20
36.900        37
36.920        30
36.940         7
36.960        27
36.980        30
37.000        20
37.020        30
37.040        37
37.060        23
37.080        20
37.100        27
37.120        13
37.140        43
37.160        27
37.180        17
37.200        27
37.220        33
37.240        33
37.260        17
37.280        13
37.300        13
37.320        33
37.340        27
37.360        23
37.380        33
37.400        23
37.420        17
37.440        27
37.460        33
37.480        20
37.500        30
37.520        37
37.540        27
37.560        30
37.580        13
37.600        13
37.620        30
37.640        10
37.660        23
37.680        40
37.700        20
37.720        17
37.740        20
37.760        27
37.780        27
37.800        33
37.820        27
37.840        23
37.860        20
37.880        17
37.900        30
37.920        33
37.940        27
37.960        20
37.980        10
38.000        40
38.020        23
38.040        20
38.060        40
38.080        17
38.100        23
38.120        17
38.140        23
38.160        20
38.180        17
38.200         7
38.220        20
38.240        23
38.260        40
38.280        37
38.300        10
38.320        23
38.340        33
38.360        17
38.380        30
38.400        17
38.420        27
38.440        23
38.460        23
38.480        27
38.500        23
38.520        20
38.540        27
38.560        30
38.580        27
38.600        20
38.620        17
38.640        27
38.660        30
38.680        13
38.700        33
38.720        33
38.740        20
38.760        23
38.780        23
38.800        10
38.820        30
38.840        27
38.860        37
38.880        17
38.900        13
38.920        13
38.940        37
38.960        20
38.980        23
39.000         7
39.020        37
39.040        17
39.060        27
39.080        37
39.100        40
39.120        33
39.140        17
39.160        47
39.180         3
39.200        30
39.220         7
39.240        30
39.260        33
39.280        23
39.300        13
39.320        23
39.340        23
39.360        23
39.380        17
39.400        23
39.420        30
39.440        27
39.460        30
39.480        33
39.500        17
39.520        23
39.540        17
39.560        63
39.580        30
39.600        33
39.620        23
39.640        40
39.660        47
39.680        40
39.700        33
39.720        43
39.740        57
39.760        57
39.780        60
39.800        90
39.820       110
39.840        67
39.860       107
39.880       127
39.900       153
39.920       150
39.940       187
39.960       173
39.980       233
40.000       187
40.020       253
40.040       193
40.060       253
40.080       240
40.100       223
40.120       250
40.140       210
40.160       193
40.180       187
40.200       160
40.220       200
40.240       213
40.260       153
40.280       187
40.300       157
40.320       163
40.340       123
40.360       123
40.380       160
40.400       137
40.420       163
40.440       117
40.460       113
40.480        93
40.500        70
40.520        83
40.540        63
40.560        67
40.580        53
40.600        60
40.620        50
40.640        70
40.660        70
40.680        47
40.700        30
40.720        43
40.740        47
40.760        40
40.780        40
40.800        43
40.820        30
40.840        43
40.860        57
40.880        43
40.900        30
40.920        27
40.940        40
40.960        53
40.980        30
41.000        30
41.020        30
41.040        33
41.060        33
41.080        37
41.100        23
41.120        17
41.140        33
41.160        47
41.180        50
41.200        37
41.220        33
41.240        40
41.260        30
41.280        27
41.300        33
41.320        23
41.340        40
41.360        37
41.380        27
41.400        43
41.420        23
41.440        30
41.460        27
41.480        37
41.500        37
41.520        73
41.540        23
41.560        33
41.580        70
41.600        37
41.620        47
41.640        77
41.660       100
41.680       107
41.700       110
41.720       113
41.740       147
41.760       123
41.780       167
41.800        63
41.820        77
41.840        77
41.860        63
41.880        43
41.900        30
41.920        33
41.940        20
41.960        27
41.980        20
42.000        50
42.020        43
42.040        40
42.060        33
42.080        43
42.100        37
42.120        30
42.140        27
42.160        17
42.180        37
42.200        37
42.220        33
42.240        43
42.260        27
42.280        37
42.300        30
42.320        40
42.340        33
42.360        27
42.380        30
42.400        20
42.420        30
42.440        27
42.460        17
42.480        30
42.500        13
42.520        27
42.540        43
42.560        30
42.580        10
42.600        27
42.620        40
42.640        30
42.660        37
42.680        27
42.700        33
42.720        33
42.740        33
42.760        33
42.780        30
42.800        43
42.820        47
42.840        27
42.860        27
42.880        27
42.900        43
42.920        13
42.940        30
42.960        23
42.980        47
43.000        23
43.020        33
43.040        17
43.060        33
43.080        30
43.100        27
43.120        43
43.140        37
43.160        43
43.180        47
43.200        33
43.220        40
43.240        37
43.260        47
43.280        37
43.300        43
43.320        27
43.340        60
43.360        47
43.380       107
43.400        80
43.420        87
43.440        53
43.460        33
43.480        40
43.500        53
43.520        50
43.540        30
43.560        43
43.580        20
43.600        27
43.620        33
43.640        20
43.660        30
43.680        10
43.700        27
43.720        43
43.740        20
43.760        47
43.780        33
43.800        37
43.820        47
43.840        20
43.860        33
43.880        37
43.900        30
43.920        20
43.940        17
43.960        33
43.980        20
44.000        27
44.020        23
44.040        27
44.060        33
44.080        30
44.100        33
44.120        43
44.140        33
44.160        43
44.180        23
44.200        27
44.220        37
44.240        33
44.260        30
44.280        23
44.300        17
44.320        27
44.340        27
44.360        40
44.380        27
44.400        47
44.420        70
44.440        27
44.460        37
44.480        30
44.500        33
44.520        23
44.540        43
44.560        27
44.580        53
44.600        47
44.620        40
44.640        43
44.660        40
44.680        47
44.700        17
44.720        13
44.740        57
44.760        23
44.780        30
44.800        50
44.820        40
44.840        67
44.860        47
44.880        57
44.900        40
44.920        50
44.940        37
44.960        60
44.980        53
45.000        43
45.020        33
45.040        43
45.060        80
45.080        70
45.100        40
45.120        53
45.140        50
45.160        67
45.180        67
45.200        57
45.220        67
45.240        33
45.260        40
45.280        60
45.300       103
45.320        77
45.340        73
45.360        53
45.380        90
45.400        90
45.420        60
45.440        87
45.460        87
45.480        97
45.500       103
45.520       110
45.540        93
45.560       103
45.580       140
45.600       123
45.620       120
45.640       157
45.660       183
45.680       170
45.700       217
45.720       250
45.740       227
45.760       227
45.780       343
45.800       290
45.820       277
45.840       350
45.860       453
45.880       466
45.900       466
45.920       453
45.940       540
45.960       463
45.980       666
46.000       536
46.020       636
46.040       623
46.060       660
46.080       650
46.100       833
46.120       696
46.140       893
46.160       903
46.180       866
46.200       836
46.220       813
46.240       990
46.260       960
46.280      1003
46.300      1083
46.320      1140
46.340      1060
46.360      1103
46.380      1066
46.400      1066
46.420      1210
46.440      1026
46.460      1046
46.480       953
46.500       886
46.520       940
46.540       910
46.560       763
46.580       863
46.600       723
46.620       676
46.640       640
46.660       653
46.680       566
46.700       530
46.720       460
46.740       466
46.760       476
46.780       357
46.800       310
46.820       357
46.840       337
46.860       350
46.880       263
46.900       290
46.920       197
46.940       223
46.960       230
46.980       213
47.000       170
47.020       180
47.040       133
47.060       143
47.080       140
47.100       123
47.120       120
47.140       103
47.160        90
47.180       127
47.200       113
47.220        70
47.240       103
47.260        77
47.280        93
47.300       100
47.320       110
47.340        90
47.360        73
47.380        70
47.400        83
47.420        60
47.440        27
47.460        80
47.480        77
47.500        53
47.520        40
47.540        40
47.560        43
47.580        63
47.600        37
47.620        33
47.640        60
47.660        47
47.680        67
47.700        47
47.720        43
47.740        23
47.760        57
47.780        40
47.800        37
47.820        63
47.840        43
47.860        30
47.880        60
47.900        40
47.920        47
47.940        40
47.960        17
47.980        37
48.000        47
48.020        47
48.040        40
48.060        40
48.080        60
48.100        33
48.120        23
48.140        23
48.160        40
48.180        53
48.200        33
48.220        47
48.240        43
48.260        33
48.280        30
48.300        40
48.320        43
48.340        37
48.360        37
48.380        30
48.400        40
48.420        43
48.440        60
48.460        27
48.480        40
48.500        37
48.520        47
48.540        33
48.560        33
48.580        40
48.600        43
48.620        33
48.640        43
48.660        27
48.680        33
48.700        33
48.720        33
48.740        30
48.760        23
48.780        30
48.800        50
48.820        23
48.840        43
48.860        13
48.880        37
48.900        20
48.920        23
48.940        37
48.960        27
48.980         7
49.000        40
49.020        30
49.040        37
49.060        30
49.080        20
49.100        27
49.120        30
49.140        23
49.160        10
49.180        27
49.200        17
49.220        33
49.240        17
49.260        27
49.280        30
49.300        23
49.320        33
49.340        30
49.360        23
49.380        17
49.400        30
49.420        50
49.440        43
49.460        40
49.480        27
49.500        13
49.520        27
49.540        27
49.560        40
49.580        20
49.600        27
49.620        23
49.640        17
49.660        33
49.680        37
49.700        40
49.720        37
49.740        20
49.760        10
49.780        27
49.800        23
49.820        40
49.840        23
49.860        17
49.880        23
49.900        50
49.920        17
49.940        23
49.960        27
49.980        27
50.000        27
50.020        23
50.040        27
50.060        10
50.080        53
50.100        20
50.120        30
50.140        30
50.160        23
50.180        33
50.200        30
50.220        33
50.240        47
50.260        57
50.280        27
50.300        33
50.320        30
50.340        23
50.360        23
50.380        30
50.400        37
50.420        33
50.440        37
50.460        17
50.480        33
50.500        23
50.520        23
50.540        33
50.560        17
50.580        33
50.600        10
50.620        17
50.640        30
50.660        40
50.680        37
50.700        33
50.720        17
50.740        43
50.760        47
50.780        17
50.800        33
50.820        27
50.840        33
50.860        27
50.880        17
50.900        23
50.920        33
50.940        37
50.960        27
50.980        13
51.000        23
51.020        33
51.040        37
51.060        17
51.080        27
51.100        33
51.120        13
51.140        40
51.160        17
51.180        33
51.200        43
51.220        30
51.240        30
51.260        27
51.280        23
51.300        20
51.320        37
51.340        20
51.360        30
51.380        23
51.400        37
51.420        27
51.440        40
51.460        33
51.480        30
51.500        37
51.520        33
51.540         7
51.560        20
51.580        27
51.600        43
51.620        20
51.640        80
51.660        17
51.680        20
51.700        27
51.720        27
51.740         7
51.760        40
51.780        13
51.800        30
51.820        30
51.840        33
51.860        20
51.880        23
51.900        27
51.920        20
51.940        30
51.960        23
51.980        37
52.000        23
52.020        37
52.040        30
52.060        43
52.080        27
52.100        20
52.120        30
52.140        23
52.160        40
52.180        30
52.200        23
52.220        10
52.240        37
52.260         3
52.280        33
52.300        17
52.320        20
52.340        23
52.360        20
52.380        40
52.400        13
52.420        23
52.440        30
52.460        53
52.480        43
52.500        40
52.520        37
52.540        43
52.560        33
52.580        20
52.600        37
52.620        30
52.640        37
52.660        37
52.680        33
52.700        17
52.720        20
52.740        47
52.760         3
52.780        30
52.800        27
52.820        20
52.840        30
52.860        13
52.880        10
52.900        23
52.920        33
52.940        13
52.960        20
52.980        20
53.000        20
53.020        10
53.040        30
53.060        13
53.080        20
53.100        20
53.120        23
53.140        37
53.160        20
53.180        17
53.200        33
53.220        13
53.240        17
53.260        20
53.280        23
53.300        37
53.320        33
53.340        23
53.360        27
53.380        17
53.400        27
53.420        13
53.440        27
53.460         7
53.480        23
53.500        37
53.520        43
53.540        13
53.560        37
53.580        20
53.600        33
53.620        20
53.640        27
53.660        30
53.680        17
53.700        30
53.720        13
53.740        20
53.760        20
53.780        37
53.800        20
53.820        20
53.840        33
53.860        30
53.880        37
53.900        13
53.920        23
53.940        30
53.960        20
53.980        23
54.000        27
54.020         7
54.040        23
54.060        23
54.080        10
54.100        23
54.120        13
54.140        17
54.160        23
54.180        13
54.200        33
54.220        17
54.240        23
54.260         7
54.280        13
54.300        37
54.320        10
54.340        27
54.360        17
54.380        33
54.400        30
54.420        50
54.440        33
54.460        27
54.480        30
54.500        30
54.520        27
54.540        40
54.560        20
54.580        13
54.600        20
54.620        17
54.640        30
54.660        27
54.680        17
54.700         7
54.720        13
54.740        13
54.760        30
54.780        10
54.800        33
54.820        17
54.840        20
54.860        17
54.880        37
54.900        37
54.920        33
54.940        20
54.960        27
54.980        20
55.000        17
55.020        27
55.040        17
55.060        17
55.080        27
55.100        30
55.120        17
55.140        33
55.160        27
55.180        33
55.200        20
55.220        17
55.240        33
55.260        33
55.280        17
55.300        17
55.320        23
55.340        37
55.360        27
55.380        30
55.400        47
55.420        23
55.440        13
55.460        23
55.480        17
55.500        40
55.520        23
55.540        33
55.560        23
55.580        40
55.600        63
55.620        57
55.640        33
55.660        27
55.680        57
55.700        40
55.720        47
55.740        40
55.760        23
55.780        73
55.800        43
55.820        50
55.840        33
55.860        27
55.880        47
55.900        40
55.920        47
55.940        30
55.960        50
55.980        23
56.000        47
56.020        20
56.040        30
56.060        23
56.080        27
56.100        23
56.120        17
56.140        23
56.160        33
56.180        20
56.200        33
56.220        33
56.240        30
56.260        23
56.280        33
56.300        10
56.320        23
56.340        23
56.360        40
56.380        27
56.400        17
56.420        20
56.440        33
56.460        20
56.480        27
56.500         7
56.520        20
56.540        17
56.560        10
56.580        20
56.600        20
56.620        20
56.640        20
56.660        10
56.680        50
56.700        13
56.720        13
56.740        37
56.760        17
56.780        17
56.800        37
56.820         7
56.840        17
56.860        17
56.880        33
56.900        20
56.920        27
56.940        20
56.960         3
56.980        17
57.000        13
57.020        27
57.040        20
57.060        33
57.080        20
57.100        23
57.120        27
57.140        40
57.160        17
57.180        23
57.200        43
57.220        27
57.240        23
57.260        17
57.280        43
57.300        27
57.320        27
57.340        40
57.360        50
57.380        47
57.400        30
57.420        23
57.440        33
57.460        40
57.480        27
57.500        53
57.520        73
57.540        93
57.560        90
57.580       120
57.600       110
57.620       113
57.640        67
57.660        57
57.680        57
57.700        60
57.720        90
57.740        83
57.760        80
57.780        40
57.800        37
57.820        80
57.840        53
57.860        57
57.880        40
57.900        67
57.920        40
57.940        47
57.960        37
57.980        33
58.000        23
58.020        33
58.040        53
58.060        17
58.080        37
58.100        17
58.120        30
58.140        33
58.160        27
58.180        43
58.200        47
58.220        33
58.240        10
58.260        17
58.280        23
58.300        20
58.320        27
58.340        23
58.360        30
58.380        17
58.400        17
58.420        33
58.440        13
58.460        17
58.480        20
58.500        17
58.520        23
58.540         0
58.560        30
58.580        20
58.600        23
58.620         3
58.640        20
58.660        17
58.680        20
58.700        30
58.720        17
58.740        23
58.760        20
58.780        10
58.800        30
58.820        10
58.840        20
58.860        20
58.880        40
58.900        13
58.920        20
58.940        10
58.960        30
58.980        27
59.000        33
59.020        53
59.040         7
59.060        30
59.080        23
59.100        10
59.120        17
59.140        23
59.160         3
59.180        10
59.200        27
59.220        30
59.240        23
59.260        13
59.280        27
59.300        27
59.320        23
59.340        17
59.360        23
59.380        27
59.400        13
59.420        13
59.440        30
59.460        13
59.480        20
59.500        13
59.520         3
59.540        40
59.560        23
59.580        23
59.600        17
59.620        33
59.640        40
59.660        13
59.680        40
59.700        10
59.720        20
59.740        27
59.760        20
59.780        13
59.800        13
59.820        23
59.840        23
59.860        20
59.880        20
59.900        13
59.920        10
59.940        20
59.960        33
59.980        13
60.000        10
