20.000        37
20.020        37
20.040        30
20.060        33
20.080        40
20.100        47
20.120        47
20.140        67
20.160        40
20.180        43
20.200        53
20.220        60
20.240        33
20.260        47
20.280        43
20.300        47
20.320        43
20.340        40
20.360        40
20.380        60
20.400        40
20.420        47
20.440        47
20.460        53
20.480        60
20.500        33
20.520        43
20.540        70
20.560        50
20.580        43
20.600        50
20.620        77
20.640        33
20.660        50
20.680        33
20.700        33
20.720        43
20.740        33
20.760        60
20.780        57
20.800        53
20.820        57
20.840        40
20.860        67
20.880        60
20.900        60
20.920        43
20.940        63
20.960        60
20.980        40
21.000        47
21.020        67
21.040        30
21.060        57
21.080        47
21.100        43
21.120        63
21.140        37
21.160        50
21.180        53
21.200        30
21.220        37
21.240        67
21.260        43
21.280        37
21.300        40
21.320        27
21.340        37
21.360        43
21.380        57
21.400        60
21.420        57
21.440        53
21.460        40
21.480        40
21.500        57
21.520        50
21.540        30
21.560        53
21.580        27
21.600        40
21.620        67
21.640        40
21.660        50
21.680        43
21.700        63
21.720        43
21.740        53
21.760        53
21.780        33
21.800        37
21.820        43
21.840        53
21.860        70
21.880        63
21.900        33
21.920        73
21.940        33
21.960        57
21.980        50
22.000        63
22.020        70
22.040        50
22.060        50
22.080        40
22.100        60
22.120        63
22.140        43
22.160        73
22.180        97
22.200        57
22.220        67
22.240        50
22.260        80
22.280        97
22.300       103
22.320        83
22.340       137
22.360       117
22.380       137
22.400       183
22.420       223
22.440       217
22.460       320
22.480       327
22.500       370
22.520       387
22.540       360
22.560       426
22.580       400
22.600       343
22.620       283
22.640       207
22.660       240
22.680       210
22.700       147
22.720       227
22.740       197
22.760       143
22.780       117
22.800       157
22.820        97
22.840       103
22.860       117
22.880        93
22.900        97
22.920       107
22.940        73
22.960        80
22.980        67
23.000        93
23.020       103
23.040        67
23.060        67
23.080        63
23.100        80
23.120        67
23.140        60
23.160        93
23.180        77
23.200        63
23.220        57
23.240        70
23.260        47
23.280        53
23.300        57
23.320        67
23.340        67
23.360        77
23.380        53
23.400        83
23.420        40
23.440        63
23.460        60
23.480        70
23.500        50
23.520        57
23.540        43
23.560        67
23.580        37
23.600        43
23.620        53
23.640        70
23.660        20
23.680        50
23.700        47
23.720        53
23.740        47
23.760        63
23.780        60
23.800        40
23.820        27
23.840        53
23.860        73
23.880        43
23.900        57
23.920        47
23.940        43
23.960        43
23.980        53
24.000        43
24.020        47
24.040        47
24.060        63
24.080        60
24.100        47
24.120        57
24.140        50
24.160        57
24.180        23
24.200        37
24.220        37
24.240        57
24.260        33
24.280        37
24.300        33
24.320        43
24.340        33
24.360        43
24.380        40
24.400        43
24.420        70
24.440        63
24.460        33
24.480        53
24.500        57
24.520        47
24.540        43
24.560        37
24.580        37
24.600        37
24.620        53
24.640        43
24.660        57
24.680        30
24.700        47
24.720        60
24.740        47
24.760        33
24.780        53
24.800        40
24.820        37
24.840        57
24.860        37
24.880        27
24.900        43
24.920        27
24.940        37
24.960        27
24.980        57
25.000        37
25.020        47
25.040        43
25.060        30
25.080        47
25.100        57
25.120        50
25.140        43
25.160        67
25.180        63
25.200        37
25.220        50
25.240        37
25.260        40
25.280        23
25.300        47
25.320        40
25.340        57
25.360        63
25.380        50
25.400        63
25.420        77
25.440        47
25.460        67
25.480        50
25.500        50
25.520        27
25.540        43
25.560        60
25.580        40
25.600        60
25.620        50
25.640        73
25.660        53
25.680        47
25.700        70
25.720        47
25.740        50
25.760        60
25.780        43
25.800        57
25.820        30
25.840        40
25.860        43
25.880        20
25.900        50
25.920        37
25.940        33
25.960        40
25.980        43
26.000        27
26.020        30
26.040        50
26.060        53
26.080        43
26.100        37
26.120        57
26.140        30
26.160        43
26.180        57
26.200        37
26.220        60
26.240        50
26.260        27
26.280        23
26.300        67
26.320        70
26.340        53
26.360        57
26.380        27
26.400        30
26.420        50
26.440        53
26.460        43
26.480        30
26.500        57
26.520        33
26.540        17
26.560        73
26.580        27
26.600        63
26.620        37
26.640        40
26.660        37
26.680        50
26.700        27
26.720        57
26.740        33
26.760        43
26.780        33
26.800        40
26.820        33
26.840        50
26.860        33
26.880        57
26.900        47
26.920        37
26.940        27
26.960        43
26.980        43
27.000        30
27.020        40
27.040        27
27.060        53
27.080        40
27.100        37
27.120        43
27.140        37
27.160        33
27.180        50
27.200        33
27.220        27
27.240        43
27.260        33
27.280        43
27.300        47
27.320        47
27.340        47
27.360        50
27.380        53
27.400        60
27.420        30
27.440        37
27.460        50
27.480        47
27.500        63
27.520        27
27.540        43
27.560        70
27.580        33
27.600        33
27.620        50
27.640        47
27.660        17
27.680        40
27.700        23
27.720        27
27.740        50
27.760        47
27.780        30
27.800        50
27.820        27
27.840        20
27.860        43
27.880        40
27.900        50
27.920        77
27.940        33
27.960        70
27.980        33
28.000        23
28.020        43
28.040        30
28.060        30
28.080        60
28.100        40
28.120        43
28.140        47
28.160        27
28.180        20
28.200        37
28.220        37
28.240        40
28.260        23
28.280        60
28.300        40
28.320        53
28.340        43
28.360        37
28.380        33
28.400        90
28.420        60
28.440        27
28.460        63
28.480        20
28.500        40
28.520        43
28.540        73
28.560        73
28.580        47
28.600        50
28.620        63
28.640        90
28.660        57
28.680        63
28.700        97
28.720        87
28.740       113
28.760       120
28.780       150
28.800       180
28.820       213
28.840       237
28.860       253
28.880       313
28.900       360
28.920       403
28.940       446
28.960       510
28.980       616
29.000       630
29.020       630
29.040       533
29.060       596
29.080       573
29.100       553
29.120       506
29.140       493
29.160       403
29.180       317
29.200       340
29.220       257
29.240       233
29.260       197
29.280       207
29.300       177
29.320       130
29.340       157
29.360       143
29.380       157
29.400        97
29.420       120
29.440        93
29.460        77
29.480        63
29.500        77
29.520        77
29.540        53
29.560        60
29.580        50
29.600        20
29.620        50
29.640        27
29.660        60
29.680        53
29.700        37
29.720        47
29.740        40
29.760        67
29.780        23
29.800        60
29.820        63
29.840        33
29.860        60
29.880        97
29.900        50
29.920        33
29.940        60
29.960        43
29.980        50
30.000        67
30.020        40
30.040        37
30.060        30
30.080        37
30.100        47
30.120        47
30.140        30
30.160        27
30.180        23
30.200        33
30.220        20
30.240        40
30.260        40
30.280        27
30.300        40
30.320        33
30.340        33
30.360        37
30.380        40
30.400        40
30.420        50
30.440        37
30.460        30
30.480        43
30.500        40
30.520        47
30.540        37
30.560        27
30.580        27
30.600        50
30.620        47
30.640        50
30.660        50
30.680        57
30.700        60
30.720        30
30.740        37
30.760        27
30.780        30
30.800        27
30.820        43
30.840        50
30.860        50
30.880        43
30.900        37
30.920        33
30.940        37
30.960        43
30.980        27
31.000        30
31.020        53
31.040        33
31.060        57
31.080        80
31.100        37
31.120        33
31.140        37
31.160        53
31.180        40
31.200        53
31.220        40
31.240        50
31.260        37
31.280        30
31.300        67
31.320        40
31.340        43
31.360        47
31.380        63
31.400        37
31.420        43
31.440        53
31.460        40
31.480        53
31.500        67
31.520        37
31.540        43
31.560        30
31.580        63
31.600        40
31.620        53
31.640        63
31.660        63
31.680        60
31.700        27
31.720        50
31.740        67
31.760        57
31.780        50
31.800        50
31.820        77
31.840        57
31.860        93
31.880       100
31.900        77
31.920        70
31.940        97
31.960       120
31.980        93
32.000        70
32.020       103
32.040       140
32.060       137
32.080       140
32.100       157
32.120       180
32.140       140
32.160       163
32.180       187
32.200       147
32.220       207
32.240       167
32.260       217
32.280       153
32.300       190
32.320       193
32.340       157
32.360       127
32.380       150
32.400       140
32.420       147
32.440       107
32.460       163
32.480       103
32.500       123
32.520       143
32.540       103
32.560        97
32.580        80
32.600        80
32.620       117
32.640       100
32.660        83
32.680        80
32.700        97
32.720        67
32.740        90
32.760        90
32.780       120
32.800        70
32.820        63
32.840        67
32.860        80
32.880        57
32.900        40
32.920        47
32.940        47
32.960        63
32.980        57
33.000        57
33.020        47
33.040        53
33.060        50
33.080        37
33.100        47
33.120        63
33.140        57
33.160        47
33.180        40
33.200        30
33.220        40
33.240        43
33.260        37
33.280        30
33.300        30
33.320        27
33.340        47
33.360        60
33.380        30
33.400        37
33.420        20
33.440        20
33.460        37
33.480        30
33.500        17
33.520        40
33.540        40
33.560        40
33.580        37
33.600        20
33.620        40
33.640        37
33.660        13
33.680        50
33.700        50
33.720        17
33.740        37
33.760        30
33.780        33
33.800        33
33.820        33
33.840        47
33.860        40
33.880        30
33.900        50
33.920        27
33.940        23
33.960        37
33.980        13
34.000        33
34.020        27
34.040        53
34.060        27
34.080        23
34.100        57
34.120        37
34.140        27
34.160        33
34.180        37
34.200        53
34.220        30
34.240        37
34.260        33
34.280        20
34.300        17
34.320        47
34.340        33
34.360        27
34.380        33
34.400        33
34.420        37
34.440        33
34.460        37
34.480        37
34.500        30
34.520        17
34.540        40
34.560        37
34.580        43
34.600        23
34.620        33
34.640        30
34.660        27
34.680        23
34.700        23
34.720        27
34.740        17
34.760        40
34.780        30
34.800        20
34.820        17
34.840        20
34.860        27
34.880        27
34.900        33
34.920        30
34.940        27
34.960        60
34.980        30
35.000        17
35.020        20
35.040        23
35.060        27
35.080        77
35.100        30
35.120        47
35.140        43
35.160        90
35.180        83
35.200       160
35.220       167
35.240       130
35.260        93
35.280       117
35.300        93
35.320       120
35.340        63
35.360        37
35.380        33
35.400        33
35.420        40
35.440        27
35.460        37
35.480        17
35.500        20
35.520        53
35.540        40
35.560        37
35.580        13
35.600        23
35.620        43
35.640        23
35.660        27
35.680        23
35.700        27
35.720        27
35.740        27
35.760        27
35.780        30
35.800        37
35.820        23
35.840        37
35.860        47
35.880        27
35.900        20
35.920        40
35.940        20
35.960        47
35.980        20
36.000        33
36.020        30
36.040        27
36.060        17
36.080        40
36.100        60
36.120        37
36.140        30
36.160        37
36.180        37
36.200        50
36.220        23
36.240        43
36.260        53
36.280        47
36.300        53
36.320        23
36.340        47
36.360        53
36.380        53
36.400        30
36.420        33
36.440        33
36.460        30
36.480        53
36.500        60
36.520        43
36.540        43
36.560        23
36.580        40
36.600        47
36.620        27
36.640        30
36.660        57
36.680        37
36.700        33
36.720        20
36.740        37
36.760        30
36.780        47
36.800        37
36.820        23
36.840        30
36.860        37
36.880        33
36.900        33
36.920        53
36.940        43
36.960        30
36.980        37
37.000        37
37.020        20
37.040        23
37.060        27
37.080        10
37.100        23
37.120        20
37.140        40
37.160        33
37.180        37
37.200        20
37.220        17
37.240        33
37.260        43
37.280        50
37.300        30
37.320        13
37.340        23
37.360        37
37.380        23
37.400        23
37.420        37
37.440        27
37.460        37
37.480        27
37.500        40
37.520        20
37.540        20
37.560        47
37.580        30
37.600        37
37.620        20
37.640        33
37.660        33
37.680        30
37.700        30
37.720        37
37.740        43
37.760        43
37.780        27
37.800        60
37.820        50
37.840        50
37.860        43
37.880        50
37.900        27
37.920        63
37.940        43
37.960        33
37.980        47
38.000        33
38.020        20
38.040        40
38.060        27
38.080        13
38.100        23
38.120        33
38.140        20
38.160        13
38.180        27
38.200        30
38.220        40
38.240        30
38.260        40
38.280        37
38.300        50
38.320        13
38.340        27
38.360        33
38.380        30
38.400        40
38.420        33
38.440        27
38.460        37
38.480        47
38.500        27
38.520        40
38.540        30
38.560        37
38.580        20
38.600        17
38.620        23
38.640        37
38.660        30
38.680        27
38.700        37
38.720        27
38.740        30
38.760        33
38.780        33
38.800        27
38.820        37
38.840        40
38.860        47
38.880        40
38.900        27
38.920        33
38.940        50
38.960        30
38.980        23
39.000        43
39.020        27
39.040        27
39.060        47
39.080        17
39.100        27
39.120        30
39.140        33
39.160        40
39.180        40
39.200        13
39.220        30
39.240        23
39.260        17
39.280        30
39.300        23
39.320        40
39.340        40
39.360        23
39.380        30
39.400        40
39.420        20
39.440        30
39.460        17
39.480        17
39.500        37
39.520        27
39.540        30
39.560        33
39.580        27
39.600        43
39.620        27
39.640        23
39.660        30
39.680        27
39.700        43
39.720        40
39.740        37
39.760        37
39.780        37
39.800        53
39.820        40
39.840        53
39.860        47
39.880        70
39.900        53
39.920        47
39.940        67
39.960        70
39.980        93
40.000        80
40.020       100
40.040        93
40.060       107
40.080        70
40.100       103
40.120       110
40.140       103
40.160        97
40.180        90
40.200        83
40.220        87
40.240       110
40.260        70
40.280        80
40.300        70
40.320        87
40.340        87
40.360        47
40.380        83
40.400        57
40.420        53
40.440        60
40.460        30
40.480        57
40.500        30
40.520        30
40.540        37
40.560        60
40.580        40
40.600        50
40.620        20
40.640        53
40.660        47
40.680        43
40.700        40
40.720        50
40.740        40
40.760        40
40.780        33
40.800        30
40.820        33
40.840        43
40.860        17
40.880        27
40.900        23
40.920        33
40.940        57
40.960        33
40.980        50
41.000        23
41.020        33
41.040        23
41.060        37
41.080        23
41.100        40
41.120        40
41.140        20
41.160        50
41.180        30
41.200        30
41.220        33
41.240        57
41.260        37
41.280        43
41.300        37
41.320        30
41.340        40
41.360        37
41.380        53
41.400        57
41.420        43
41.440        37
41.460        53
41.480        40
41.500        37
41.520        60
41.540        37
41.560        33
41.580        30
41.600        47
41.620        57
41.640        43
41.660        57
41.680        83
41.700       107
41.720       160
41.740       150
41.760       137
41.780       103
41.800       107
41.820        83
41.840       113
41.860        90
41.880        60
41.900       103
41.920        53
41.940        37
41.960        23
41.980        60
42.000        27
42.020        43
42.040        47
42.060        27
42.080        37
42.100        47
42.120        50
42.140        33
42.160        33
42.180        40
42.200        57
42.220        33
42.240        47
42.260        37
42.280        40
42.300        13
42.320        33
42.340        40
42.360        40
42.380        17
42.400        37
42.420        23
42.440        23
42.460        27
42.480        17
42.500        27
42.520        33
42.540        27
42.560        40
42.580        27
42.600        23
42.620        43
42.640        30
42.660        37
42.680        40
42.700        37
42.720        37
42.740        27
42.760        60
42.780        50
42.800        20
42.820        63
42.840        30
42.860        23
42.880        47
42.900        53
42.920        30
42.940        43
42.960        33
42.980        20
43.000        33
43.020        33
43.040        27
43.060        30
43.080        43
43.100        40
43.120        30
43.140        50
43.160        40
43.180        50
43.200        53
43.220        50
43.240        60
43.260        57
43.280        33
43.300        50
43.320        47
43.340        50
43.360        63
43.380        63
43.400       113
43.420       190
43.440       167
43.460       187
43.480        80
43.500        83
43.520       100
43.540       103
43.560       127
43.580        60
43.600        63
43.620        60
43.640        50
43.660        37
43.680        37
43.700        43
43.720        53
43.740        40
43.760        27
43.780        40
43.800        37
43.820        53
43.840        33
43.860        43
43.880        33
43.900        53
43.920        43
43.940        83
43.960        37
43.980        20
44.000        60
44.020        40
44.040        47
44.060        47
44.080        43
44.100        63
44.120        43
44.140       107
44.160        90
44.180        70
44.200        73
44.220        60
44.240        57
44.260        87
44.280        90
44.300        90
44.320       110
44.340        87
44.360        90
44.380        70
44.400        93
44.420        93
44.440       103
44.460       100
44.480        50
44.500        80
44.520        93
44.540       110
44.560       113
44.580        97
44.600        93
44.620        77
44.640       100
44.660        80
44.680        83
44.700        90
44.720       127
44.740       103
44.760        90
44.780       120
44.800       117
44.820        93
44.840        93
44.860       127
44.880       110
44.900       140
44.920       117
44.940       163
44.960       137
44.980       167
45.000       163
45.020       153
45.040       190
45.060       170
45.080       220
45.100       230
45.120       163
45.140       237
45.160       217
45.180       267
45.200       277
45.220       273
45.240       280
45.260       383
45.280       320
45.300       300
45.320       353
45.340       367
45.360       357
45.380       383
45.400       420
45.420       500
45.440       456
45.460       460
45.480       586
45.500       583
45.520       560
45.540       583
45.560       526
45.580       733
45.600       713
45.620       700
45.640       766
45.660       816
45.680       806
45.700       830
45.720      1013
45.740       933
45.760      1000
45.780      1043
45.800      1153
45.820      1126
45.840      1200
45.860      1183
45.880      1253
45.900      1230
45.920      1276
45.940      1323
45.960      1246
45.980      1326
46.000      1160
46.020      1203
46.040      1206
46.060      1233
46.080      1160
46.100      1046
46.120      1030
46.140      1026
46.160       993
46.180       890
46.200       876
46.220       946
46.240       903
46.260       796
46.280       843
46.300       793
46.320       743
46.340       660
46.360       643
46.380       686
46.400       683
46.420       643
46.440       566
46.460       586
46.480       570
46.500       533
46.520       466
46.540       476
46.560       493
46.580       433
46.600       503
46.620       430
46.640       410
46.660       426
46.680       303
46.700       400
46.720       353
46.740       290
46.760       260
46.780       260
46.800       273
46.820       253
46.840       217
46.860       183
46.880       280
46.900       257
46.920       233
46.940       203
46.960       267
46.980       173
47.000       153
47.020       200
47.040       177
47.060       147
47.080       143
47.100       117
47.120       130
47.140       130
47.160       110
47.180       160
47.200       173
47.220       137
47.240       133
47.260       113
47.280       153
47.300       117
47.320       130
47.340        97
47.360       100
47.380       110
47.400       113
47.420       103
47.440       137
47.460        90
47.480       117
47.500        80
47.520        87
47.540       127
47.560       100
47.580        83
47.600        90
47.620       107
47.640        73
47.660        97
47.680       100
47.700        70
47.720        87
47.740        90
47.760        97
47.780        67
47.800        80
47.820        67
47.840        87
47.860        70
47.880        90
47.900        43
47.920        83
47.940        83
47.960        47
47.980        83
48.000        63
48.020        53
48.040        90
48.060        33
48.080        63
48.100        43
48.120        57
48.140        67
48.160        47
48.180        57
48.200        80
48.220        67
48.240        40
48.260        30
48.280        47
48.300        50
48.320        47
48.340        40
48.360        70
48.380        47
48.400        43
48.420        53
48.440        40
48.460        40
48.480        40
48.500        53
48.520        33
48.540        50
48.560        43
48.580        50
48.600        53
48.620        23
48.640        40
48.660        47
48.680        47
48.700        40
48.720        50
48.740        37
48.760        43
48.780        53
48.800        33
48.820        40
48.840        43
48.860        37
48.880        43
48.900        20
48.920        27
48.940        17
48.960        30
48.980        43
49.000        30
49.020        43
49.040        40
49.060        50
49.080        23
49.100        30
49.120        60
49.140        23
49.160        30
49.180        33
49.200        23
49.220        43
49.240        63
49.260        40
49.280        17
49.300        70
49.320        50
49.340        53
49.360        50
49.380        20
49.400        37
49.420        27
49.440        57
49.460        47
49.480        30
49.500        37
49.520        37
49.540        30
49.560        37
49.580        57
49.600        20
49.620        30
49.640        33
49.660        33
49.680        30
49.700        30
49.720        23
49.740        57
49.760        37
49.780        33
49.800        47
49.820        73
49.840        47
49.860        23
49.880        33
49.900        63
49.920        53
49.940        37
49.960        43
49.980        50
50.000        53
50.020        43
50.040        33
50.060        33
50.080        50
50.100        37
50.120        33
50.140        47
50.160        40
50.180        30
50.200        37
50.220        43
50.240        23
50.260        27
50.280        37
50.300        33
50.320        33
50.340        47
50.360        50
50.380        23
50.400        20
50.420        40
50.440        20
50.460        47
50.480        37
50.500        40
50.520        23
50.540        23
50.560        23
50.580        20
50.600        20
50.620        60
50.640        33
50.660        27
50.680        30
50.700        23
50.720        27
50.740        40
50.760        47
50.780        30
50.800        33
50.820        33
50.840        63
50.860        33
50.880        27
50.900        37
50.920        40
50.940        37
50.960        47
50.980        27
51.000        27
51.020        30
51.040        30
51.060        37
51.080        27
51.100        20
51.120        37
51.140        33
51.160        37
51.180        43
51.200        27
51.220        37
51.240        37
51.260        27
51.280        40
51.300        33
51.320        33
51.340        47
51.360        23
51.380        37
51.400        27
51.420        43
51.440        33
51.460        33
51.480        33
51.500        53
51.520        20
51.540        23
51.560        63
51.580        27
51.600        40
51.620         7
51.640        20
51.660        37
51.680        37
51.700        37
51.720        30
51.740        27
51.760        33
51.780        27
51.800        40
51.820        43
51.840        43
51.860        27
51.880        33
51.900        27
51.920        33
51.940        17
51.960        17
51.980        27
52.000        20
52.020        17
52.040        23
52.060        20
52.080        23
52.100        30
52.120        33
52.140        33
52.160        40
52.180        23
52.200        43
52.220        20
52.240        20
52.260        20
52.280        40
52.300        53
52.320        23
52.340        30
52.360        37
52.380        33
52.400        53
52.420        30
52.440        20
52.460        33
52.480        60
52.500        30
52.520        60
52.540        47
52.560        57
52.580        73
52.600        40
52.620        63
52.640        40
52.660        47
52.680        63
52.700        50
52.720        57
52.740        40
52.760        67
52.780        33
52.800        70
52.820        37
52.840        33
52.860        60
52.880        50
52.900        40
52.920        50
52.940        37
52.960        30
52.980        37
53.000        13
53.020        13
53.040        30
53.060        23
53.080        27
53.100        27
53.120        30
53.140        33
53.160        37
53.180        27
53.200        27
53.220        30
53.240        40
53.260        20
53.280        23
53.300        23
53.320        13
53.340        23
53.360        40
53.380        20
53.400        30
53.420        23
53.440        10
53.460        27
53.480        33
53.500        33
53.520        27
53.540        27
53.560        23
53.580        20
53.600        30
53.620        20
53.640        50
53.660        37
53.680        20
53.700        17
53.720        23
53.740        33
53.760        17
53.780        33
53.800        30
53.820        10
53.840        20
53.860        27
53.880        20
53.900        20
53.920        33
53.940        23
53.960        23
53.980        33
54.000        27
54.020        27
54.040        33
54.060        10
54.080        20
54.100        27
54.120         7
54.140        23
54.160        23
54.180        17
54.200        20
54.220        40
54.240         7
54.260        30
54.280        23
54.300        30
54.320        20
54.340        10
54.360        23
54.380        17
54.400        27
54.420        20
54.440        43
54.460        33
54.480        27
54.500        30
54.520        17
54.540        27
54.560        33
54.580        17
54.600        37
54.620        13
54.640        33
54.660        20
54.680        27
54.700        20
54.720        20
54.740        13
54.760        27
54.780        13
54.800        47
54.820        13
54.840        20
54.860        27
54.880        33
54.900        13
54.920        27
54.940        23
54.960        10
54.980        20
55.000        23
55.020        20
55.040        20
55.060        47
55.080        20
55.100        30
55.120        17
55.140        17
55.160        43
55.180        13
55.200        30
55.220        27
55.240        13
55.260        47
55.280        17
55.300        23
55.320        17
55.340        13
55.360        17
55.380        27
55.400        10
55.420        33
55.440        30
55.460        10
55.480        30
55.500        30
55.520        20
55.540        20
55.560        10
55.580        33
55.600        17
55.620        33
55.640        23
55.660        20
55.680        40
55.700        20
55.720        23
55.740        10
55.760         7
55.780        13
55.800        13
55.820        23
55.840        27
55.860        30
55.880        40
55.900        13
55.920        17
55.940        23
55.960        27
55.980        10
56.000        23
56.020        23
56.040        23
56.060        37
56.080        20
56.100        13
56.120        27
56.140        33
56.160        20
56.180        10
56.200        30
56.220        10
56.240         7
56.260         7
56.280        13
56.300        17
56.320         7
56.340        43
56.360        43
56.380        40
56.400        23
56.420        33
56.440        20
56.460        27
56.480        20
56.500        13
56.520        20
56.540        37
56.560        10
56.580        27
56.600        13
56.620        17
56.640        20
56.660        13
56.680        17
56.700        30
56.720        37
56.740        20
56.760        17
56.780        13
56.800        20
56.820        10
56.840         3
56.860        23
56.880         7
56.900        23
56.920        13
56.940        10
56.960        23
56.980        23
57.000        27
57.020        10
57.040        30
57.060        17
57.080        33
57.100        30
57.120        33
57.140        17
57.160        20
57.180        33
57.200        13
57.220        37
57.240        37
57.260        13
57.280        10
57.300        40
57.320        27
57.340        13
57.360        23
57.380        17
57.400        40
57.420        23
57.440        23
57.460        20
57.480        33
57.500        50
57.520        87
57.540       127
57.560       153
57.580       160
57.600       123
57.620       107
57.640        93
57.660        53
57.680        57
57.700        83
57.720        83
57.740       113
57.760        60
57.780        70
57.800        27
57.820        23
57.840        20
57.860        30
57.880        20
57.900        27
57.920        23
57.940        37
57.960        37
57.980        20
58.000        10
58.020        43
58.040        23
58.060        40
58.080        20
58.100        30
58.120        27
58.140        20
58.160        23
58.180        37
58.200        20
58.220        43
58.240        17
58.260        23
58.280        20
58.300        40
58.320        27
58.340        23
58.360        37
58.380        43
58.400        10
58.420        30
58.440        17
58.460        20
58.480        37
58.500        23
58.520        20
58.540        37
58.560        30
58.580        33
58.600        27
58.620        30
58.640        20
58.660        33
58.680        13
58.700        23
58.720        20
58.740        17
58.760        17
58.780        30
58.800        23
58.820        17
58.840        20
58.860        27
58.880        27
58.900         7
58.920        27
58.940        20
58.960        27
58.980        27
59.000        27
59.020        17
59.040        13
59.060        23
59.080        20
59.100        23
59.120        27
59.140        23
59.160        27
59.180        23
59.200        33
59.220        30
59.240        47
59.260        37
59.280        27
59.300        33
59.320        27
59.340        23
59.360        23
59.380        13
59.400        30
59.420        23
59.440        27
59.460        27
59.480        23
59.500        20
59.520        10
59.540        30
59.560        23
59.580        13
59.600        27
59.620         0
59.640        33
59.660        13
59.680        60
59.700        27
59.720        33
59.740        13
59.760        27
59.780        27
59.800        13
59.820        17
59.840        10
59.860        23
59.880        23
59.900        23
59.920        17
59.940        43
59.960        27
59.980        27
60.000        17
