20.000        50
20.020        93
20.040        43
20.060        37
20.080        60
20.100        20
20.120        67
20.140        47
20.160        37
20.180        43
20.200        27
20.220        33
20.240        70
20.260        40
20.280        37
20.300        70
20.320        47
20.340        37
20.360        47
20.380        40
20.400        80
20.420        50
20.440        43
20.460        30
20.480        40
20.500        47
20.520        50
20.540        37
20.560        37
20.580        40
20.600        40
20.620        40
20.640        43
20.660        60
20.680        67
20.700        33
20.720        63
20.740        40
20.760        50
20.780        50
20.800        37
20.820        40
20.840        70
20.860        57
20.880        70
20.900        50
20.920        43
20.940        47
20.960        57
20.980        40
21.000        77
21.020        50
21.040        67
21.060        43
21.080        57
21.100        47
21.120        40
21.140        53
21.160        33
21.180        37
21.200        47
21.220        30
21.240        47
21.260        33
21.280        23
21.300        70
21.320        47
21.340        33
21.360        27
21.380        43
21.400        53
21.420        30
21.440        37
21.460        40
21.480        63
21.500        50
21.520        53
21.540        33
21.560        50
21.580        37
21.600        70
21.620        53
21.640        43
21.660        50
21.680        27
21.700        60
21.720        47
21.740        47
21.760        40
21.780        43
21.800        50
21.820        43
21.840        60
21.860        33
21.880        57
21.900        47
21.920        57
21.940        47
21.960        47
21.980        67
22.000        43
22.020        30
22.040        40
22.060        43
22.080        57
22.100        53
22.120        63
22.140        77
22.160        60
22.180        73
22.200        77
22.220        60
22.240        83
22.260        50
22.280        70
22.300        77
22.320        80
22.340       110
22.360       127
22.380       153
22.400       177
22.420       197
22.440       170
22.460       200
22.480       233
22.500       213
22.520       280
22.540       300
22.560       220
22.580       207
22.600       223
22.620       203
22.640       167
22.660       163
22.680       160
22.700       150
22.720       127
22.740       163
22.760       133
22.780       143
22.800        93
22.820       120
22.840       100
22.860        77
22.880        90
22.900        93
22.920        93
22.940        67
22.960        77
22.980        60
23.000        83
23.020        57
23.040        73
23.060        53
23.080        63
23.100        87
23.120        63
23.140        73
23.160        70
23.180        73
23.200        60
23.220        67
23.240        60
23.260        47
23.280        43
23.300        70
23.320        53
23.340        53
23.360        30
23.380        47
23.400        50
23.420        67
23.440        50
23.460        27
23.480        43
23.500        30
23.520        47
23.540        40
23.560        40
23.580        63
23.600        57
23.620        43
23.640        37
23.660        27
23.680        50
23.700        63
23.720        53
23.740        53
23.760        50
23.780        47
23.800        53
23.820        53
23.840        27
23.860        60
23.880        50
23.900        27
23.920        67
23.940        43
23.960        47
23.980        30
24.000        33
24.020        43
24.040        60
24.060        60
24.080        47
24.100        20
24.120        23
24.140        43
24.160        47
24.180        30
24.200        70
24.220        47
24.240        33
24.260        53
24.280        43
24.300        23
24.320        63
24.340        40
24.360        43
24.380        37
24.400        27
24.420        43
24.440        63
24.460        50
24.480        60
24.500        43
24.520        27
24.540        30
24.560        27
24.580        50
24.600        50
24.620        50
24.640        27
24.660        50
24.680        57
24.700        23
24.720        63
24.740        37
24.760        50
24.780        63
24.800        33
24.820        27
24.840        33
24.860        63
24.880        40
24.900        43
24.920        33
24.940        63
24.960        23
24.980        50
25.000        47
25.020        47
25.040        43
25.060        43
25.080        50
25.100        57
25.120        30
25.140        27
25.160        33
25.180        30
25.200        27
25.220        53
25.240        27
25.260        50
25.280        50
25.300        53
25.320        47
25.340        63
25.360        40
25.380        43
25.400        23
25.420        47
25.440        70
25.460        53
25.480        40
25.500        57
25.520        20
25.540        27
25.560        30
25.580        27
25.600        37
25.620        50
25.640        47
25.660        40
25.680        53
25.700        57
25.720        37
25.740        37
25.760        30
25.780        30
25.800        40
25.820        47
25.840        47
25.860        40
25.880        57
25.900        37
25.920        30
25.940        23
25.960        43
25.980        17
26.000        47
26.020        23
26.040        23
26.060        47
26.080        47
26.100        27
26.120        50
26.140        27
26.160        57
26.180        40
26.200        53
26.220        67
26.240        43
26.260        43
26.280        53
26.300        23
26.320        43
26.340        57
26.360        43
26.380        37
26.400        40
26.420        17
26.440        47
26.460        37
26.480        43
26.500        33
26.520        33
26.540        53
26.560        23
26.580        30
26.600        63
26.620        40
26.640        53
26.660        47
26.680        30
26.700        37
26.720        13
26.740        33
26.760        47
26.780        33
26.800        30
26.820        33
26.840        23
26.860        30
26.880        23
26.900        53
26.920        50
26.940        37
26.960        37
26.980        23
27.000        30
27.020        47
27.040        43
27.060        33
27.080        27
27.100        33
27.120        50
27.140        33
27.160        40
27.180        33
27.200        40
27.220        47
27.240        40
27.260        33
27.280        47
27.300        33
27.320        37
27.340        60
27.360        23
27.380        30
27.400        23
27.420        40
27.440        27
27.460        23
27.480        53
27.500        50
27.520        13
27.540        23
27.560        27
27.580        50
27.600        17
27.620        40
27.640        40
27.660        23
27.680        43
27.700        40
27.720        37
27.740        23
27.760        40
27.780        33
27.800        27
27.820        43
27.840        27
27.860        30
27.880        30
27.900        33
27.920        33
27.940        20
27.960        30
27.980        53
28.000        33
28.020        23
28.040        50
28.060        50
28.080        33
28.100        40
28.120        53
28.140        43
28.160        37
28.180        17
28.200        33
28.220        30
28.240        33
28.260        43
28.280        30
28.300        23
28.320        47
28.340        57
28.360        57
28.380        47
28.400        57
28.420        40
28.440        30
28.460        37
28.480        13
28.500        23
28.520        30
28.540        27
28.560        20
28.580        47
28.600        63
28.620        30
28.640        43
28.660        73
28.680        50
28.700        47
28.720        60
28.740        80
28.760        43
28.780        73
28.800        93
28.820       100
28.840       170
28.860       173
28.880       180
28.900       240
28.920       220
28.940       277
28.960       337
28.980       337
29.000       300
29.020       297
29.040       293
29.060       253
29.080       203
29.100       193
29.120       203
29.140       147
29.160       127
29.180       127
29.200       133
29.220       107
29.240        77
29.260        67
29.280        73
29.300        83
29.320        33
29.340        77
29.360        37
29.380        30
29.400        40
29.420        80
29.440        37
29.460        60
29.480        57
29.500        30
29.520        37
29.540        60
29.560        37
29.580        37
29.600        57
29.620        20
29.640        37
29.660        37
29.680        27
29.700        23
29.720        47
29.740        40
29.760        33
29.780        43
29.800        20
29.820        43
29.840        50
29.860        40
29.880        43
29.900        30
29.920        47
29.940        33
29.960        47
29.980        23
30.000        43
30.020        43
30.040        53
30.060        20
30.080        37
30.100        30
30.120        33
30.140        37
30.160        27
30.180        30
30.200        20
30.220        43
30.240        40
30.260        43
30.280        47
30.300        27
30.320        30
30.340        37
30.360        33
30.380        47
30.400        37
30.420        20
30.440        43
30.460        37
30.480        27
30.500        40
30.520        43
30.540        37
30.560        37
30.580        43
30.600        20
30.620        37
30.640        27
30.660        37
30.680        30
30.700        23
30.720        33
30.740        23
30.760        37
30.780        37
30.800        33
30.820        43
30.840        63
30.860        67
30.880        23
30.900        17
30.920        43
30.940        50
30.960        47
30.980        33
31.000        33
31.020        27
31.040        30
31.060        27
31.080        20
31.100        20
31.120        23
31.140        20
31.160        33
31.180        30
31.200        37
31.220        40
31.240        30
31.260        37
31.280        20
31.300        47
31.320        27
31.340        40
31.360        40
31.380        53
31.400        47
31.420        27
31.440        37
31.460        40
31.480        37
31.500        43
31.520        23
31.540        47
31.560        37
31.580        40
31.600        23
31.620        20
31.640        30
31.660        37
31.680        27
31.700        37
31.720        43
31.740        57
31.760        40
31.780        30
31.800        53
31.820        37
31.840        53
31.860        20
31.880        43
31.900        53
31.920        67
31.940        70
31.960        33
31.980        43
32.000        60
32.020        60
32.040        77
32.060        97
32.080        60
32.100        80
32.120        53
32.140        77
32.160        90
32.180        70
32.200        83
32.220       147
32.240       123
32.260       123
32.280       127
32.300       133
32.320       167
32.340       150
32.360       110
32.380       140
32.400        93
32.420       130
32.440        90
32.460       110
32.480       143
32.500       147
32.520       103
32.540        93
32.560        57
32.580       117
32.600        97
32.620       110
32.640       107
32.660        93
32.680        70
32.700        73
32.720        77
32.740        73
32.760        67
32.780        73
32.800        63
32.820        80
32.840        67
32.860        33
32.880        43
32.900        27
32.920        60
32.940        60
32.960        23
32.980        20
33.000        40
33.020        40
33.040        53
33.060        40
33.080        50
33.100        33
33.120        43
33.140        47
33.160        27
33.180        20
33.200        43
33.220        20
33.240        37
33.260        33
33.280        37
33.300        30
33.320        17
33.340        33
33.360        47
33.380        33
33.400        27
33.420        20
33.440        30
33.460        23
33.480        33
33.500        33
33.520        37
33.540        40
33.560        33
33.580        37
33.600        27
33.620        27
33.640        33
33.660        37
33.680        40
33.700        37
33.720        33
33.740        23
33.760        27
33.780        43
33.800        27
33.820        37
33.840        33
33.860        37
33.880        40
33.900        30
33.920        23
33.940        27
33.960        13
33.980        20
34.000        27
34.020        23
34.040        27
34.060        30
34.080        20
34.100        20
34.120         7
34.140        27
34.160        23
34.180        17
34.200        33
34.220        20
34.240        27
34.260        43
34.280        20
34.300        43
34.320        37
34.340        20
34.360        17
34.380        17
34.400        17
34.420        23
34.440        40
34.460        30
34.480        13
34.500        40
34.520        27
34.540        37
34.560        20
34.580        20
34.600        13
34.620        37
34.640        53
34.660        30
34.680        57
34.700        37
34.720        13
34.740        37
34.760        23
34.780        43
34.800        10
34.820        33
34.840        33
34.860        57
34.880        37
34.900        27
34.920        50
34.940        17
34.960        27
34.980        20
35.000        30
35.020        20
35.040        33
35.060        30
35.080        27
35.100        37
35.120        33
35.140        60
35.160        50
35.180        50
35.200        50
35.220        67
35.240        73
35.260        57
35.280        50
35.300        33
35.320        27
35.340        10
35.360        27
35.380        30
35.400        33
35.420        17
35.440        33
35.460        20
35.480        23
35.500        43
35.520        23
35.540        23
35.560        37
35.580        40
35.600        30
35.620        13
35.640        37
35.660        40
35.680        20
35.700        20
35.720        40
35.740        40
35.760        27
35.780        33
35.800        20
35.820        33
35.840        43
35.860        30
35.880        27
35.900        33
35.920        20
35.940        20
35.960        33
35.980         0
36.000        30
36.020        27
36.040        27
36.060        37
36.080        17
36.100        13
36.120        30
36.140        17
36.160        40
36.180        40
36.200        33
36.220        20
36.240        27
36.260        33
36.280        27
36.300        27
36.320        47
36.340        30
36.360        47
36.380        37
36.400        37
36.420        40
36.440        10
36.460        43
36.480        53
36.500        50
36.520        33
36.540        37
36.560         3
36.580        47
36.600        50
36.620        27
36.640        23
36.660        27
36.680        53
36.700        20
36.720        17
36.740        33
36.760        20
36.780        30
36.800        37
36.820        20
36.840        20
36.860        13
36.880        17
36.900        27
36.920        20
36.940        37
36.960        43
36.980        30
37.000        40
37.020        23
37.040        37
37.060        40
37.080        43
37.100        37
37.120        27
37.140        23
37.160        53
37.180        40
37.200        17
37.220        23
37.240        20
37.260        37
37.280        23
37.300        13
37.320        43
37.340        20
37.360        20
37.380        27
37.400        27
37.420        23
37.440        23
37.460        33
37.480        40
37.500        30
37.520        27
37.540        37
37.560        30
37.580        37
37.600        37
37.620        30
37.640        27
37.660        23
37.680        33
37.700        37
37.720        13
37.740        30
37.760        40
37.780        33
37.800        90
37.820        83
37.840        97
37.860        83
37.880        43
37.900        53
37.920        57
37.940        73
37.960        30
37.980        50
38.000        40
38.020        37
38.040        30
38.060        10
38.080        30
38.100        23
38.120        23
38.140        13
38.160        30
38.180        33
38.200        27
38.220        43
38.240        20
38.260        37
38.280        20
38.300        53
38.320        20
38.340        17
38.360        30
38.380        23
38.400        30
38.420        20
38.440        33
38.460        27
38.480        20
38.500        37
38.520        33
38.540        23
38.560        23
38.580        30
38.600        33
38.620        23
38.640        27
38.660        23
38.680        40
38.700        23
38.720        20
38.740        23
38.760        33
38.780        23
38.800        23
38.820        27
38.840        37
38.860        40
38.880        30
38.900        13
38.920        50
38.940        20
38.960        40
38.980        20
39.000        30
39.020        23
39.040        30
39.060        37
39.080        17
39.100        20
39.120        47
39.140        43
39.160        37
39.180        37
39.200        10
39.220        40
39.240        30
39.260        30
39.280        67
39.300        67
39.320        20
39.340        20
39.360        20
39.380        37
39.400        23
39.420        37
39.440        27
39.460        50
39.480        37
39.500        30
39.520        50
39.540        23
39.560        33
39.580        60
39.600        20
39.620        33
39.640        20
39.660        50
39.680        37
39.700        10
39.720        37
39.740        37
39.760        43
39.780        57
39.800        33
39.820        40
39.840        47
39.860        63
39.880        50
39.900        67
39.920        57
39.940        77
39.960        90
39.980        87
40.000       140
40.020       127
40.040       117
40.060       117
40.080       147
40.100       110
40.120       157
40.140       130
40.160       190
40.180       113
40.200       140
40.220        83
40.240       147
40.260       130
40.280        83
40.300        73
40.320        93
40.340        50
40.360        70
40.380        53
40.400        33
40.420        43
40.440        70
40.460        57
40.480        43
40.500        57
40.520        43
40.540        57
40.560        60
40.580        30
40.600        20
40.620        50
40.640        27
40.660        10
40.680        23
40.700        37
40.720        37
40.740        43
40.760        23
40.780        43
40.800        27
40.820        40
40.840        57
40.860        30
40.880        17
40.900        30
40.920        33
40.940        33
40.960        57
40.980        37
41.000        23
41.020        23
41.040        27
41.060        20
41.080        37
41.100        23
41.120        40
41.140        40
41.160        17
41.180        37
41.200        60
41.220        23
41.240        33
41.260        43
41.280        30
41.300        53
41.320        33
41.340        40
41.360        37
41.380        33
41.400        53
41.420        23
41.440        33
41.460        40
41.480        27
41.500        37
41.520        33
41.540        57
41.560        67
41.580        50
41.600        60
41.620        67
41.640        50
41.660        87
41.680       150
41.700       157
41.720       230
41.740       233
41.760       183
41.780       147
41.800       103
41.820       137
41.840       120
41.860       117
41.880        83
41.900        50
41.920        47
41.940        50
41.960        37
41.980        43
42.000        40
42.020        37
42.040        47
42.060        57
42.080        30
42.100        33
42.120        23
42.140        30
42.160        20
42.180        43
42.200        27
42.220        33
42.240        27
42.260        17
42.280        33
42.300        30
42.320        20
42.340        23
42.360        33
42.380        23
42.400        27
42.420        23
42.440        53
42.460        43
42.480        37
42.500        30
42.520        30
42.540        50
42.560        23
42.580        30
42.600        30
42.620        27
42.640        23
42.660        20
42.680        30
42.700        30
42.720        43
42.740        30
42.760        30
42.780        30
42.800        23
42.820        33
42.840        27
42.860        17
42.880        17
42.900        23
42.920        20
42.940        63
42.960        43
42.980        40
43.000        37
43.020        40
43.040        13
43.060        43
43.080        40
43.100        33
43.120        33
43.140        27
43.160        30
43.180        33
43.200        40
43.220        37
43.240        27
43.260        20
43.280        53
43.300        57
43.320        57
43.340        67
43.360        80
43.380        50
43.400        47
43.420        83
43.440        67
43.460        87
43.480        70
43.500        77
43.520        40
43.540        50
43.560        43
43.580        50
43.600        37
43.620        30
43.640        40
43.660        43
43.680        47
43.700        50
43.720        37
43.740        53
43.760        37
43.780        33
43.800        47
43.820        50
43.840        47
43.860        50
43.880        43
43.900        47
43.920        67
43.940        43
43.960        47
43.980        47
44.000        27
44.020        33
44.040        27
44.060        43
44.080        60
44.100        33
44.120        43
44.140        47
44.160        47
44.180        63
44.200        53
44.220        53
44.240        37
44.260        87
44.280        67
44.300        57
44.320        70
44.340        47
44.360        77
44.380        67
44.400        53
44.420        57
44.440        60
44.460        40
44.480        77
44.500        53
44.520        53
44.540        43
44.560        60
44.580        97
44.600        77
44.620        67
44.640        83
44.660        90
44.680        63
44.700        63
44.720        97
44.740       100
44.760        93
44.780        60
44.800        87
44.820        90
44.840       100
44.860        83
44.880        73
44.900        77
44.920       100
44.940        77
44.960       100
44.980       113
45.000        90
45.020        63
45.040       130
45.060       113
45.080       120
45.100       153
45.120        73
45.140       127
45.160       110
45.180       177
45.200       123
45.220       140
45.240       160
45.260       127
45.280       127
45.300       177
45.320       143
45.340       220
45.360       150
45.380       220
45.400       207
45.420       287
45.440       253
45.460       270
45.480       287
45.500       290
45.520       340
45.540       390
45.560       330
45.580       353
45.600       417
45.620       456
45.640       530
45.660       490
45.680       613
45.700       586
45.720       643
45.740       690
45.760       773
45.780       886
45.800       936
45.820       816
45.840      1100
45.860      1100
45.880      1103
45.900      1196
45.920      1130
45.940      1063
45.960      1286
45.980      1103
46.000      1263
46.020      1106
46.040      1220
46.060      1329
46.080      1226
46.100      1170
46.120      1100
46.140      1259
46.160      1166
46.180      1130
46.200      1146
46.220      1086
46.240      1073
46.260      1073
46.280      1143
46.300      1043
46.320      1066
46.340       860
46.360       866
46.380       933
46.400       823
46.420       933
46.440       780
46.460       720
46.480       776
46.500       733
46.520       766
46.540       740
46.560       660
46.580       653
46.600       560
46.620       490
46.640       553
46.660       426
46.680       450
46.700       446
46.720       530
46.740       400
46.760       373
46.780       303
46.800       333
46.820       270
46.840       343
46.860       273
46.880       310
46.900       227
46.920       237
46.940       287
46.960       187
46.980       200
47.000       177
47.020       183
47.040       227
47.060       187
47.080       127
47.100       183
47.120       143
47.140       147
47.160       180
47.180       160
47.200       113
47.220       113
47.240       123
47.260       117
47.280       100
47.300       163
47.320        87
47.340       107
47.360        77
47.380        93
47.400       107
47.420       140
47.440        90
47.460        77
47.480        77
47.500        73
47.520        93
47.540       100
47.560        77
47.580        93
47.600        70
47.620        83
47.640        83
47.660        90
47.680        70
47.700        87
47.720        57
47.740        57
47.760        67
47.780        47
47.800        67
47.820        43
47.840        57
47.860        70
47.880        53
47.900        70
47.920        53
47.940        57
47.960        47
47.980        67
48.000        50
48.020        53
48.040        77
48.060        53
48.080        30
48.100        30
48.120        57
48.140        53
48.160        67
48.180        47
48.200        43
48.220        50
48.240        50
48.260        50
48.280        40
48.300        50
48.320        50
48.340        43
48.360        53
48.380        53
48.400        20
48.420        60
48.440        47
48.460        33
48.480        33
48.500        47
48.520        40
48.540        33
48.560        53
48.580        40
48.600        50
48.620        47
48.640        37
48.660        20
48.680        47
48.700        50
48.720        23
48.740        30
48.760        37
48.780        30
48.800        23
48.820        50
48.840        60
48.860        53
48.880        37
48.900        40
48.920        33
48.940        30
48.960        33
48.980        43
49.000        30
49.020        30
49.040        40
49.060        50
49.080        23
49.100        23
49.120        30
49.140        33
49.160        30
49.180        17
49.200        33
49.220        43
49.240        23
49.260        33
49.280        50
49.300        27
49.320        17
49.340        20
49.360        30
49.380        23
49.400        40
49.420        33
49.440        23
49.460        17
49.480        17
49.500        27
49.520        37
49.540        30
49.560        57
49.580        10
49.600        20
49.620        13
49.640        27
49.660        40
49.680        53
49.700        47
49.720        53
49.740        43
49.760        43
49.780        37
49.800        37
49.820        27
49.840        40
49.860        43
49.880        40
49.900        50
49.920        37
49.940        33
49.960        57
49.980        43
50.000        53
50.020        37
50.040        40
50.060        27
50.080        37
50.100        27
50.120        23
50.140        47
50.160        43
50.180        30
50.200        30
50.220        23
50.240        20
50.260        37
50.280        30
50.300        23
50.320        47
50.340        27
50.360        27
50.380        37
50.400        27
50.420        27
50.440        27
50.460        70
50.480        23
50.500        40
50.520        27
50.540        37
50.560        20
50.580        20
50.600        37
50.620        23
50.640        23
50.660        27
50.680        17
50.700        30
50.720        33
50.740        27
50.760        20
50.780        27
50.800        20
50.820        30
50.840        43
50.860        20
50.880        33
50.900        23
50.920        17
50.940        27
50.960        33
50.980        23
51.000        50
51.020        33
51.040        43
51.060        30
51.080        23
51.100        30
51.120        33
51.140        40
51.160        33
51.180        47
51.200        37
51.220        33
51.240        57
51.260        47
51.280        30
51.300        43
51.320         7
51.340        43
51.360        30
51.380        20
51.400        37
51.420        43
51.440        23
51.460        23
51.480        30
51.500        40
51.520        33
51.540        27
51.560        20
51.580        40
51.600        23
51.620        23
51.640        40
51.660        27
51.680        33
51.700        33
51.720        33
51.740        20
51.760        47
51.780        17
51.800        30
51.820        37
51.840        30
51.860        27
51.880        43
51.900        20
51.920        23
51.940        23
51.960        47
51.980        30
52.000        33
52.020        27
52.040        30
52.060        27
52.080        33
52.100        30
52.120        47
52.140        30
52.160        30
52.180        30
52.200        23
52.220        23
52.240        13
52.260        37
52.280        23
52.300        23
52.320        30
52.340        20
52.360        27
52.380        30
52.400        33
52.420        33
52.440        40
52.460        37
52.480        20
52.500        27
52.520        27
52.540        43
52.560        37
52.580        67
52.600        50
52.620        27
52.640        57
52.660        50
52.680        47
52.700        43
52.720        43
52.740        43
52.760        30
52.780        37
52.800        37
52.820        37
52.840        37
52.860        57
52.880        23
52.900        37
52.920        17
52.940         7
52.960         3
52.980        27
53.000        27
53.020        30
53.040        20
53.060        53
53.080        33
53.100        33
53.120        40
53.140        17
53.160        23
53.180        30
53.200        20
53.220        17
53.240        23
53.260        20
53.280        23
53.300        30
53.320        23
53.340        23
53.360        17
53.380        17
53.400        27
53.420        23
53.440        43
53.460        17
53.480        23
53.500        30
53.520        17
53.540        23
53.560        20
53.580        23
53.600        20
53.620        23
53.640        23
53.660        17
53.680        17
53.700        37
53.720        37
53.740        23
53.760        20
53.780        30
53.800        17
53.820        37
53.840        30
53.860        20
53.880        17
53.900        20
53.920        10
53.940        43
53.960        20
53.980        27
54.000        20
54.020        33
54.040        27
54.060        17
54.080        20
54.100        33
54.120        20
54.140        23
54.160        30
54.180        20
54.200        40
54.220        33
54.240        13
54.260        30
54.280        23
54.300        30
54.320        27
54.340        20
54.360        20
54.380        30
54.400        27
54.420        27
54.440        40
54.460        30
54.480        13
54.500        37
54.520        20
54.540        30
54.560        27
54.580        30
54.600        27
54.620        33
54.640        20
54.660        20
54.680        10
54.700        27
54.720        17
54.740        43
54.760        23
54.780        20
54.800        30
54.820        20
54.840        13
54.860        33
54.880        23
54.900        27
54.920        23
54.940        43
54.960        30
54.980        13
55.000        30
55.020        23
55.040        13
55.060        30
55.080        13
55.100        17
55.120        20
55.140        20
55.160        33
55.180        23
55.200        30
55.220        37
55.240        33
55.260        27
55.280        13
55.300        37
55.320        20
55.340        13
55.360        20
55.380        33
55.400        23
55.420        20
55.440        17
55.460        23
55.480        30
55.500        13
55.520        13
55.540        23
55.560        10
55.580        20
55.600        30
55.620        27
55.640        17
55.660        37
55.680        17
55.700        30
55.720        37
55.740        23
55.760        40
55.780        27
55.800        17
55.820        30
55.840        33
55.860        30
55.880        30
55.900        13
55.920        20
55.940        20
55.960        13
55.980        33
56.000        30
56.020        43
56.040        20
56.060        33
56.080        23
56.100        27
56.120        33
56.140        30
56.160        20
56.180        20
56.200        47
56.220        23
56.240        27
56.260        17
56.280        23
56.300        27
56.320        13
56.340        27
56.360        27
56.380        30
56.400        20
56.420        17
56.440        33
56.460        20
56.480        23
56.500        13
56.520        27
56.540        27
56.560        33
56.580        33
56.600        20
56.620        20
56.640        13
56.660        17
56.680        10
56.700        27
56.720        13
56.740        10
56.760        17
56.780        13
56.800        30
56.820        17
56.840        13
56.860        27
56.880        20
56.900        17
56.920        20
56.940        43
56.960        23
56.980        17
57.000        23
57.020        27
57.040        20
57.060         7
57.080        27
57.100        30
57.120        37
57.140        23
57.160        33
57.180        23
57.200        33
57.220        13
57.240        20
57.260        30
57.280        17
57.300        30
57.320        33
57.340        40
57.360        43
57.380        33
57.400        53
57.420        57
57.440        60
57.460        37
57.480        47
57.500        43
57.520        57
57.540        70
57.560        60
57.580        43
57.600        33
57.620        73
57.640        37
57.660        63
57.680        67
57.700        73
57.720        43
57.740        23
57.760        20
57.780        50
57.800        37
57.820        20
57.840        23
57.860        43
57.880        30
57.900        17
57.920        30
57.940        33
57.960        53
57.980        27
58.000        13
58.020        23
58.040        43
58.060        20
58.080        43
58.100         7
58.120        23
58.140        47
58.160        30
58.180        27
58.200        30
58.220        23
58.240        13
58.260        17
58.280        17
58.300        17
58.320        33
58.340        43
58.360        33
58.380        23
58.400        53
58.420        20
58.440        33
58.460        23
58.480        43
58.500        13
58.520        43
58.540        20
58.560        20
58.580        20
58.600        27
58.620        23
58.640        30
58.660        17
58.680        23
58.700        17
58.720        23
58.740        27
58.760        13
58.780        20
58.800        13
58.820        23
58.840        33
58.860        20
58.880        23
58.900        17
58.920        30
58.940        17
58.960        23
58.980        30
59.000        20
59.020        13
59.040        20
59.060        30
59.080        23
59.100        40
59.120        13
59.140        30
59.160        10
59.180        23
59.200        17
59.220        33
59.240        27
59.260        30
59.280        63
59.300        30
59.320        27
59.340        37
59.360        23
59.380        37
59.400        17
59.420        10
59.440        30
59.460        27
59.480        17
59.500        37
59.520        23
59.540        27
59.560        10
59.580        17
59.600        27
59.620        23
59.640        27
59.660        13
59.680        13
59.700        17
59.720        33
59.740        23
59.760        23
59.780        30
59.800        50
59.820        17
59.840        20
59.860        20
59.880        23
59.900        23
59.920        17
59.940        20
59.960        23
59.980        13
60.000        13
