20.000        33
20.010        33
20.020        40
20.030        40
20.040        27
20.050        53
20.060        27
20.070        40
20.080        27
20.090        40
20.100        20
20.110        67
20.120        40
20.130        20
20.140        67
20.150        13
20.160        40
20.170        60
20.180        40
20.190        27
20.200        40
20.210        20
20.220        33
20.230        33
20.240        73
20.250        47
20.260        20
20.270        47
20.280        60
20.290        47
20.300        13
20.310        20
20.320        60
20.330        33
20.340        67
20.350        33
20.360        53
20.370        47
20.380        27
20.390        13
20.400        47
20.410        67
20.420        47
20.430        60
20.440        67
20.450        47
20.460        40
20.470        47
20.480        27
20.490        60
20.500        40
20.510        27
20.520        47
20.530         7
20.540        47
20.550        40
20.560        60
20.570        40
20.580        33
20.590        53
20.600        87
20.610        53
20.620        33
20.630        20
20.640        27
20.650        47
20.660        40
20.670        47
20.680        67
20.690        67
20.700        47
20.710        40
20.720        40
20.730        40
20.740        20
20.750        47
20.760        67
20.770        67
20.780        40
20.790        73
20.800        47
20.810        67
20.820        20
20.830        13
20.840        53
20.850        60
20.860        53
20.870        67
20.880        53
20.890        47
20.900        47
20.910        47
20.920        53
20.930        33
20.940        13
20.950        60
20.960        33
20.970        20
20.980        13
20.990        47
21.000        80
21.010        27
21.020        47
21.030        27
21.040        20
21.050        33
21.060        27
21.070        33
21.080        33
21.090        47
21.100       100
21.110        33
21.120        27
21.130        20
21.140        40
21.150         7
21.160        33
21.170        20
21.180        20
21.190        33
21.200        53
21.210        80
21.220        47
21.230        60
21.240        27
21.250        20
21.260        13
21.270        27
21.280        33
21.290        27
21.300        53
21.310        40
21.320        47
21.330        13
21.340        33
21.350        60
21.360        40
21.370        47
21.380        27
21.390        40
21.400        27
21.410        53
21.420        40
21.430        53
21.440        47
21.450        27
21.460        53
21.470        27
21.480        53
21.490        27
21.500        20
21.510        47
21.520        40
21.530        40
21.540        60
21.550        27
21.560        33
21.570        53
21.580        33
21.590        53
21.600        40
21.610        40
21.620        80
21.630        40
21.640        73
21.650        73
21.660        47
21.670        20
21.680        33
21.690        67
21.700        40
21.710        27
21.720        47
21.730        40
21.740        20
21.750        47
21.760        33
21.770        33
21.780        27
21.790        27
21.800        53
21.810        40
21.820        33
21.830        67
21.840        20
21.850        33
21.860        53
21.870        33
21.880        33
21.890        20
21.900        33
21.910        47
21.920        33
21.930        40
21.940        20
21.950        47
21.960        40
21.970        40
21.980        33
21.990        33
22.000        33
22.010        40
22.020        60
22.030        27
22.040        53
22.050        53
22.060        33
22.070        47
22.080        33
22.090        33
22.100        27
22.110        20
22.120        20
22.130        27
22.140        53
22.150        33
22.160        20
22.170        47
22.180        47
22.190        33
22.200        33
22.210        53
22.220         0
22.230        33
22.240        67
22.250        47
22.260        73
22.270        47
22.280        27
22.290        40
22.300        53
22.310        40
22.320        20
22.330        60
22.340        53
22.350        20
22.360        47
22.370        47
22.380        40
22.390        33
22.400        27
22.410        27
22.420        60
22.430        87
22.440        60
22.450        27
22.460        13
22.470        67
22.480        67
22.490        80
22.500        47
22.510        73
22.520        67
22.530       100
22.540        27
22.550        53
22.560        67
22.570        73
22.580        73
22.590        87
22.600        80
22.610        67
22.620       107
22.630        60
22.640        73
22.650        53
22.660        40
22.670        73
22.680        87
22.690        93
22.700        40
22.710        80
22.720        67
22.730        53
22.740        60
22.750        67
22.760        47
22.770        67
22.780        53
22.790        33
22.800        73
22.810        67
22.820        40
22.830        67
22.840        40
22.850        93
22.860        27
22.870        93
22.880        47
22.890        60
22.900        40
22.910        47
22.920        47
22.930        33
22.940        53
22.950        53
22.960        53
22.970        33
22.980        27
22.990        33
23.000        27
23.010        80
23.020        33
23.030        40
23.040        73
23.050        27
23.060        33
23.070        47
23.080        80
23.090        27
23.100        67
23.110        67
23.120        33
23.130        53
23.140        27
23.150        60
23.160        33
23.170        40
23.180        53
23.190        40
23.200        47
23.210        40
23.220        67
23.230        60
23.240        73
23.250        40
23.260        60
23.270        13
23.280        40
23.290        33
23.300        53
23.310        33
23.320        33
23.330        73
23.340        40
23.350        33
23.360        33
23.370        47
23.380        33
23.390        40
23.400        40
23.410        53
23.420        33
23.430        27
23.440        20
23.450        27
23.460        47
23.470        53
23.480        40
23.490        27
23.500        53
23.510        20
23.520        13
23.530        27
23.540        47
23.550        40
23.560        40
23.570        27
23.580        80
23.590        47
23.600        67
23.610        47
23.620        13
23.630        60
23.640        27
23.650        33
23.660        53
23.670        13
23.680        27
23.690        40
23.700        47
23.710        67
23.720        40
23.730        27
23.740        27
23.750        60
23.760        27
23.770        33
23.780        47
23.790        20
23.800        53
23.810        27
23.820        47
23.830        47
23.840        27
23.850        47
23.860        33
23.870        40
23.880        20
23.890        53
23.900        40
23.910        60
23.920        20
23.930        40
23.940        27
23.950        27
23.960        47
23.970        20
23.980        20
23.990        47
24.000        40
24.010        27
24.020        27
24.030        40
24.040        20
24.050        27
24.060        33
24.070        27
24.080        40
24.090        33
24.100        27
24.110        60
24.120        20
24.130        40
24.140        47
24.150        20
24.160        13
24.170        33
24.180        13
24.190        73
24.200        13
24.210        67
24.220        60
24.230        33
24.240        87
24.250        20
24.260        53
24.270        27
24.280         7
24.290        27
24.300        13
24.310        27
24.320        33
24.330        27
24.340        13
24.350        33
24.360        53
24.370        47
24.380        27
24.390        33
24.400        27
24.410        53
24.420        40
24.430        40
24.440        27
24.450        40
24.460        47
24.470        27
24.480        47
24.490        33
24.500        47
24.510        20
24.520        33
24.530        40
24.540        33
24.550        40
24.560        27
24.570        33
24.580        60
24.590        33
24.600        27
24.610        13
24.620        33
24.630        27
24.640        40
24.650        47
24.660        47
24.670        40
24.680        53
24.690        47
24.700        40
24.710        47
24.720        73
24.730        40
24.740        53
24.750        20
24.760        33
24.770        47
24.780        53
24.790        60
24.800        13
24.810        60
24.820        20
24.830        13
24.840        87
24.850        33
24.860        53
24.870        60
24.880        33
24.890        13
24.900        27
24.910        33
24.920        53
24.930        53
24.940        60
24.950        67
24.960        33
24.970        93
24.980        40
24.990        53
25.000        53
25.010        40
25.020        87
25.030        93
25.040        47
25.050        53
25.060        73
25.070        27
25.080        67
25.090        80
25.100        40
25.110        60
25.120        60
25.130        73
25.140        67
25.150        40
25.160        73
25.170        47
25.180        40
25.190        87
25.200        60
25.210        40
25.220        67
25.230        73
25.240        47
25.250        40
25.260        53
25.270        60
25.280        53
25.290        87
25.300        47
25.310        73
25.320        73
25.330       100
25.340        47
25.350        80
25.360        87
25.370        93
25.380        73
25.390        87
25.400        80
25.410        73
25.420        67
25.430       100
25.440       147
25.450       140
25.460       200
25.470       167
25.480       187
25.490       193
25.500       253
25.510       247
25.520       313
25.530       500
25.540       733
25.550      1220
25.560      2319
25.570      3652
25.580      4538
25.590      4038
25.600      3485
25.610      3212
25.620      3152
25.630      3239
25.640      3579
25.650      3245
25.660      2852
25.670      2679
25.680      2392
25.690      2459
25.700      2466
25.710      2592
25.720      2426
25.730      2472
25.740      2266
25.750      2346
25.760      1746
25.770      1726
25.780      1619
25.790      1186
25.800      1180
25.810       900
25.820       806
25.830       646
25.840       380
25.850       307
25.860       160
25.870       140
25.880       167
25.890        80
25.900        73
25.910       100
25.920        87
25.930        27
25.940       120
25.950        87
25.960        93
25.970        87
25.980        60
25.990       100
26.000        67
26.010        60
26.020        80
26.030        40
26.040        60
26.050        60
26.060       100
26.070       100
26.080        40
26.090        67
26.100        80
26.110       100
26.120        67
26.130        53
26.140        33
26.150        80
26.160        60
26.170        73
26.180        27
26.190        60
26.200        47
26.210        73
26.220        47
26.230        87
26.240        47
26.250        60
26.260        60
26.270        67
26.280        53
26.290        80
26.300        47
26.310        60
26.320        60
26.330        73
26.340        87
26.350        87
26.360        33
26.370        53
26.380        60
26.390        67
26.400        40
26.410        60
26.420        47
26.430        47
26.440        53
26.450        33
26.460        73
26.470        47
26.480        27
26.490        80
26.500        53
26.510        73
26.520        67
26.530        80
26.540        60
26.550        40
26.560        20
26.570        67
26.580        73
26.590        40
26.600        53
26.610        40
26.620        53
26.630        53
26.640        47
26.650        53
26.660        47
26.670        60
26.680        60
26.690        60
26.700        60
26.710        53
26.720        60
26.730        73
26.740        67
26.750        53
26.760        27
26.770        60
26.780        33
26.790        87
26.800        80
26.810        40
26.820        67
26.830        67
26.840        27
26.850        33
26.860        53
26.870        73
26.880        73
26.890        33
26.900        40
26.910        53
26.920        67
26.930        60
26.940        40
26.950        73
26.960        53
26.970        80
26.980        40
26.990        53
27.000        73
27.010        93
27.020        33
27.030        40
27.040        27
27.050        73
27.060        53
27.070        40
27.080        27
27.090        93
27.100        60
27.110        27
27.120        87
27.130        40
27.140        60
27.150        60
27.160        60
27.170        67
27.180        33
27.190        47
27.200        40
27.210        87
27.220        53
27.230        60
27.240        60
27.250        40
27.260        47
27.270        47
27.280        40
27.290        47
27.300        53
27.310        80
27.320        53
27.330        60
27.340        60
27.350        47
27.360        87
27.370        60
27.380        33
27.390        40
27.400        80
27.410        40
27.420        53
27.430        80
27.440        60
27.450        27
27.460        60
27.470        73
27.480        53
27.490        80
27.500        53
27.510        27
27.520        40
27.530        60
27.540        27
27.550        87
27.560        53
27.570        80
27.580        53
27.590        73
27.600        67
27.610        80
27.620        67
27.630        20
27.640        53
27.650        93
27.660        47
27.670        67
27.680        67
27.690        67
27.700       100
27.710        93
27.720        60
27.730        33
27.740        73
27.750       120
27.760        93
27.770        60
27.780        47
27.790        87
27.800        60
27.810        73
27.820        47
27.830       100
27.840        67
27.850        80
27.860        40
27.870        53
27.880        47
27.890        27
27.900        87
27.910        93
27.920        53
27.930        60
27.940        73
27.950        80
27.960        80
27.970        47
27.980        60
27.990        47
28.000        67
28.010        53
28.020       107
28.030       107
28.040        47
28.050        60
28.060        73
28.070        67
28.080        53
28.090        60
28.100        27
28.110        47
28.120        73
28.130        80
28.140       100
28.150        60
28.160        53
28.170        67
28.180        53
28.190        60
28.200        60
28.210        87
28.220        80
28.230        60
28.240        47
28.250        67
28.260        47
28.270        80
28.280        47
28.290        47
28.300        47
28.310        33
28.320        73
28.330        53
28.340        53
28.350        60
28.360        53
28.370       100
28.380        40
28.390        80
28.400        80
28.410        87
28.420        73
28.430        47
28.440        60
28.450        67
28.460        47
28.470        80
28.480       120
28.490        80
28.500        73
28.510        80
28.520        80
28.530        73
28.540        60
28.550       133
28.560        80
28.570        80
28.580        53
28.590        87
28.600        80
28.610        87
28.620        47
28.630        73
28.640        87
28.650        80
28.660       113
28.670        87
28.680       100
28.690        87
28.700        87
28.710       107
28.720        60
28.730       120
28.740       100
28.750       140
28.760        67
28.770        93
28.780       167
28.790       113
28.800        27
28.810       113
28.820       147
28.830       107
28.840       147
28.850       187
28.860       220
28.870       160
28.880       113
28.890       113
28.900       160
28.910       153
28.920       187
28.930       247
28.940       247
28.950       227
28.960       180
28.970       313
28.980       273
28.990       220
29.000       320
29.010       327
29.020       446
29.030       473
29.040       407
29.050       473
29.060       486
29.070       620
29.080       460
29.090       393
29.100       480
29.110       640
29.120       560
29.130       646
29.140       426
29.150       500
29.160       407
29.170       367
29.180       273
29.190       327
29.200       293
29.210       333
29.220       253
29.230       280
29.240       200
29.250       113
29.260       127
29.270       140
29.280       140
29.290       140
29.300       140
29.310       153
29.320       100
29.330        87
29.340       107
29.350        87
29.360        87
29.370        87
29.380       100
29.390       113
29.400        93
29.410       140
29.420        93
29.430       100
29.440        87
29.450       100
29.460       120
29.470       127
29.480       160
29.490       107
29.500       120
29.510        80
29.520        87
29.530       113
29.540       173
29.550       187
29.560       173
29.570        93
29.580       120
29.590       120
29.600       173
29.610       153
29.620       120
29.630       133
29.640       120
29.650       120
29.660       120
29.670        67
29.680       100
29.690       127
29.700       100
29.710       100
29.720       107
29.730       107
29.740        80
29.750        67
29.760        67
29.770        53
29.780        73
29.790        87
29.800        73
29.810        67
29.820        67
29.830        80
29.840        80
29.850        40
29.860        93
29.870        93
29.880       100
29.890        73
29.900        47
29.910        40
29.920        53
29.930        80
29.940        20
29.950       107
29.960       107
29.970        33
29.980        93
29.990        67
30.000        40
30.010        93
30.020        47
30.030        93
30.040        93
30.050        53
30.060       107
30.070        80
30.080        53
30.090        67
30.100       100
30.110        87
30.120       113
30.130        73
30.140        73
30.150        73
30.160       100
30.170       113
30.180        33
30.190        27
30.200       120
30.210        67
30.220       100
30.230        73
30.240        67
30.250        47
30.260        47
30.270       120
30.280       113
30.290        67
30.300        67
30.310       100
30.320        73
30.330        80
30.340        73
30.350        73
30.360        73
30.370        33
30.380        33
30.390        47
30.400        47
30.410        80
30.420       127
30.430        67
30.440        53
30.450       133
30.460        93
30.470        67
30.480        60
30.490       127
30.500        53
30.510        67
30.520        80
30.530       113
30.540        60
30.550        87
30.560        67
30.570        40
30.580        47
30.590        27
30.600        93
30.610        60
30.620        73
30.630        87
30.640        67
30.650       120
30.660       107
30.670        40
30.680        80
30.690        60
30.700        67
30.710        67
30.720        67
30.730        73
30.740        40
30.750        40
30.760        87
30.770        47
30.780        47
30.790        33
30.800        53
30.810        87
30.820        60
30.830        67
30.840        67
30.850       113
30.860        53
30.870        80
30.880        80
30.890        80
30.900        87
30.910        40
30.920       107
30.930       100
30.940        67
30.950       113
30.960        47
30.970       100
30.980        20
30.990        80
31.000        67
31.010        87
31.020       100
31.030        80
31.040        67
31.050        80
31.060        87
31.070        87
31.080       100
31.090        27
31.100       100
31.110       100
31.120        53
31.130        87
31.140        93
31.150       113
31.160        67
31.170        67
31.180        87
31.190        93
31.200       107
31.210       100
31.220       120
31.230        80
31.240        73
31.250       120
31.260        87
31.270       100
31.280        87
31.290       100
31.300        73
31.310        93
31.320        73
31.330        93
31.340        67
31.350       113
31.360        40
31.370        33
31.380       107
31.390       107
31.400        67
31.410        67
31.420        67
31.430        87
31.440       107
31.450       113
31.460        47
31.470       120
31.480        80
31.490        60
31.500       120
31.510        80
31.520        87
31.530        87
31.540        67
31.550        93
31.560       120
31.570        47
31.580       107
31.590        73
31.600        87
31.610        80
31.620        53
31.630        60
31.640        60
31.650        93
31.660        60
31.670        60
31.680        60
31.690        80
31.700        80
31.710       100
31.720        60
31.730        93
31.740        53
31.750       100
31.760        80
31.770        67
31.780        93
31.790        67
31.800        87
31.810        27
31.820        93
31.830        60
31.840        93
31.850        73
31.860        27
31.870        40
31.880       100
31.890        87
31.900        53
31.910        73
31.920       113
31.930        47
31.940        80
31.950        40
31.960        93
31.970        73
31.980        80
31.990       107
32.000        60
32.010        60
32.020       100
32.030        60
32.040        73
32.050        20
32.060        33
32.070        60
32.080        60
32.090       120
32.100        93
32.110        73
32.120        80
32.130        73
32.140        80
32.150        80
32.160       100
32.170       120
32.180       100
32.190        67
32.200        47
32.210        93
32.220        87
32.230        53
32.240        93
32.250        73
32.260        67
32.270        53
32.280       140
32.290       100
32.300        93
32.310        73
32.320        87
32.330        87
32.340        67
32.350        53
32.360        60
32.370        20
32.380        87
32.390        67
32.400        53
32.410        60
32.420        60
32.430        53
32.440       107
32.450        53
32.460        93
32.470        93
32.480       100
32.490        40
32.500        47
32.510        60
32.520        80
32.530        80
32.540        93
32.550        40
32.560       113
32.570        80
32.580        87
32.590        73
32.600       140
32.610       133
32.620       153
32.630       100
32.640       107
32.650       107
32.660        93
32.670        87
32.680       133
32.690       140
32.700       193
32.710       140
32.720       140
32.730       133
32.740        87
32.750       127
32.760        73
32.770       127
32.780       107
32.790       127
32.800        93
32.810       107
32.820       100
32.830        53
32.840        93
32.850        73
32.860        67
32.870        67
32.880        47
32.890        67
32.900       153
32.910        73
32.920        60
32.930        87
32.940        67
32.950        73
32.960        67
32.970        73
32.980        73
32.990        73
33.000        53
33.010        87
33.020        60
33.030        53
33.040        73
33.050        47
33.060        33
33.070        87
33.080        53
33.090        60
33.100        67
33.110       107
33.120        60
33.130        93
33.140        60
33.150        67
33.160        40
33.170        67
33.180        53
33.190       100
33.200        87
33.210        73
33.220       107
33.230        47
33.240        67
33.250        60
33.260        93
33.270        60
33.280        87
33.290        33
33.300        47
33.310        53
33.320        73
33.330        93
33.340        40
33.350        67
33.360        60
33.370        87
33.380        73
33.390        40
33.400        40
33.410        80
33.420        67
33.430        53
33.440        53
33.450        87
33.460        87
33.470        27
33.480       107
33.490        53
33.500        67
33.510        67
33.520        53
33.530        67
33.540        93
33.550        73
33.560        53
33.570       107
33.580        67
33.590        80
33.600        80
33.610        73
33.620        73
33.630        53
33.640        47
33.650        40
33.660        60
33.670        40
33.680        73
33.690        53
33.700        87
33.710        53
33.720        60
33.730        40
33.740       160
33.750        60
33.760        47
33.770       100
33.780        80
33.790        40
33.800        73
33.810        40
33.820        73
33.830        73
33.840        53
33.850        87
33.860        20
33.870        60
33.880        60
33.890        60
33.900        40
33.910        53
33.920        80
33.930        13
33.940        53
33.950        47
33.960        67
33.970        53
33.980        80
33.990        60
34.000        47
34.010        93
34.020        60
34.030        80
34.040        80
34.050       107
34.060        47
34.070       100
34.080       113
34.090        87
34.100        87
34.110        87
34.120        53
34.130        53
34.140        80
34.150        67
34.160        53
34.170        93
34.180        53
34.190        53
34.200        33
34.210        47
34.220        60
34.230        40
34.240        87
34.250        73
34.260        53
34.270        33
34.280        47
34.290        53
34.300        33
34.310        53
34.320        67
34.330        47
34.340        47
34.350        87
34.360        67
34.370        47
34.380       113
34.390        73
34.400        80
34.410        87
34.420        67
34.430        53
34.440        47
34.450        27
34.460        53
34.470        40
34.480        53
34.490        80
34.500       113
34.510        67
34.520        93
34.530        53
34.540        87
34.550        60
34.560        73
34.570        20
34.580        80
34.590        87
34.600        47
34.610        60
34.620        67
34.630        60
34.640        87
34.650        40
34.660        20
34.670        87
34.680        87
34.690        47
34.700        87
34.710        47
34.720        60
34.730        60
34.740        53
34.750        60
34.760        53
34.770        53
34.780        67
34.790        60
34.800       100
34.810        87
34.820        60
34.830        53
34.840        60
34.850        40
34.860        87
34.870        67
34.880        67
34.890        53
34.900        80
34.910        27
34.920        73
34.930        60
34.940        47
34.950        47
34.960        60
34.970        67
34.980        93
34.990        80
35.000        47
35.010        40
35.020        80
35.030        80
35.040        47
35.050        67
35.060        40
35.070        47
35.080        47
35.090        60
35.100        60
35.110        60
35.120        60
35.130        47
35.140        60
35.150        67
35.160        40
35.170        80
35.180        73
35.190        33
35.200        73
35.210        67
35.220        67
35.230        67
35.240        80
35.250        47
35.260        80
35.270        13
35.280        33
35.290        60
35.300        40
35.310        73
35.320        40
35.330        73
35.340        73
35.350        20
35.360        67
35.370        53
35.380        20
35.390        53
35.400        53
35.410        60
35.420        13
35.430        27
35.440        60
35.450        53
35.460        47
35.470        47
35.480        67
35.490        40
35.500        40
35.510        60
35.520        40
35.530        60
35.540        73
35.550        20
35.560        33
35.570        60
35.580        80
35.590        47
35.600        40
35.610        60
35.620        80
35.630       100
35.640        60
35.650        47
35.660        27
35.670        80
35.680        67
35.690        60
35.700        47
35.710        73
35.720        60
35.730        93
35.740        47
35.750        53
35.760        60
35.770        27
35.780        47
35.790        27
35.800        67
35.810        47
35.820        53
35.830        33
35.840        73
35.850        73
35.860        33
35.870        47
35.880       100
35.890        40
35.900        87
35.910        67
35.920        47
35.930        93
35.940        40
35.950        53
35.960        47
35.970        53
35.980        67
35.990        47
36.000        40
36.010        60
36.020        87
36.030        40
36.040        60
36.050        40
36.060        93
36.070        67
36.080        40
36.090        60
36.100        73
36.110        47
36.120        40
36.130        20
36.140        40
36.150        67
36.160        53
36.170        73
36.180       100
36.190        60
36.200        53
36.210        53
36.220        67
36.230        47
36.240        53
36.250        33
36.260        27
36.270        60
36.280        53
36.290        47
36.300        67
36.310        53
36.320        87
36.330        67
36.340        27
36.350        67
36.360        60
36.370        73
36.380        93
36.390        87
36.400        13
36.410        80
36.420        60
36.430        93
36.440       113
36.450        53
36.460        80
36.470        80
36.480        87
36.490        60
36.500        67
36.510        60
36.520        87
36.530        40
36.540        53
36.550        33
36.560        67
36.570        80
36.580       107
36.590        93
36.600        47
36.610        53
36.620        87
36.630        40
36.640        67
36.650        67
36.660        60
36.670        33
36.680        40
36.690        80
36.700        80
36.710        47
36.720        27
36.730        67
36.740        53
36.750        60
36.760        47
36.770        73
36.780        20
36.790        40
36.800        47
36.810        53
36.820        60
36.830        80
36.840        40
36.850        33
36.860        33
36.870        67
36.880        40
36.890        40
36.900        67
36.910        47
36.920        47
36.930       107
36.940        20
36.950        53
36.960        47
36.970        60
36.980        87
36.990        20
37.000        73
37.010        47
37.020        60
37.030        33
37.040        47
37.050        67
37.060        53
37.070        60
37.080        20
37.090        53
37.100        40
37.110        53
37.120        67
37.130        47
37.140        87
37.150        53
37.160        60
37.170        67
37.180        80
37.190        67
37.200        67
37.210        47
37.220        60
37.230        33
37.240        33
37.250        33
37.260        60
37.270        53
37.280        60
37.290        40
37.300        40
37.310        27
37.320        47
37.330        53
37.340        33
37.350        47
37.360        60
37.370        40
37.380        87
37.390        33
37.400        47
37.410        40
37.420        60
37.430        60
37.440        33
37.450        40
37.460        47
37.470        47
37.480        47
37.490        73
37.500        33
37.510        53
37.520        33
37.530        60
37.540        40
37.550        47
37.560        47
37.570        47
37.580        33
37.590        40
37.600        47
37.610        53
37.620        73
37.630        13
37.640        53
37.650        47
37.660        60
37.670        13
37.680        87
37.690        40
37.700        33
37.710        53
37.720        33
37.730        67
37.740        13
37.750        60
37.760        47
37.770        73
37.780        47
37.790        60
37.800        60
37.810         7
37.820        33
37.830        87
37.840        47
37.850        40
37.860        67
37.870        67
37.880        67
37.890        67
37.900        87
37.910        67
37.920        87
37.930        40
37.940        40
37.950        80
37.960        53
37.970        27
37.980        47
37.990        27
38.000        53
38.010        73
38.020        40
38.030        47
38.040        33
38.050        67
38.060        87
38.070        73
38.080        60
38.090        47
38.100        93
38.110        67
38.120        53
38.130        80
38.140        47
38.150        67
38.160        67
38.170        40
38.180        20
38.190        40
38.200        47
38.210        33
38.220        67
38.230        53
38.240        27
38.250        60
38.260        80
38.270        33
38.280        33
38.290        53
38.300        53
38.310       100
38.320        27
38.330        60
38.340        47
38.350        40
38.360        53
38.370        67
38.380        33
38.390        40
38.400        47
38.410        20
38.420        27
38.430        33
38.440        47
38.450        53
38.460        13
38.470        53
38.480        33
38.490        27
38.500        60
38.510        20
38.520        33
38.530        47
38.540        73
38.550        27
38.560        87
38.570        60
38.580        47
38.590        53
38.600        47
38.610        53
38.620        33
38.630        53
38.640        73
38.650        60
38.660        53
38.670        53
38.680        33
38.690        60
38.700        13
38.710        87
38.720        40
38.730        80
38.740        33
38.750        33
38.760        47
38.770        47
38.780        53
38.790        60
38.800        20
38.810        60
38.820        33
38.830        67
38.840        80
38.850        60
38.860        53
38.870        47
38.880        33
38.890        27
38.900        60
38.910        40
38.920        53
38.930        80
38.940        80
38.950        47
38.960        33
38.970        53
38.980        60
38.990        67
39.000        47
39.010        33
39.020        20
39.030        53
39.040        40
39.050        47
39.060        47
39.070        67
39.080        73
39.090        27
39.100        40
39.110        40
39.120        53
39.130        53
39.140        47
39.150        33
39.160        40
39.170        67
39.180        53
39.190        40
39.200        67
39.210        60
39.220        33
39.230        40
39.240        73
39.250        40
39.260        33
39.270        33
39.280        67
39.290        60
39.300        73
39.310        73
39.320       100
39.330        20
39.340        60
39.350        67
39.360        67
39.370        40
39.380        67
39.390        33
39.400        53
39.410        67
39.420        13
39.430        60
39.440        53
39.450        53
39.460        73
39.470        67
39.480        33
39.490        40
39.500        47
39.510        53
39.520        40
39.530        20
39.540        80
39.550        60
39.560        27
39.570        20
39.580        53
39.590        53
39.600        33
39.610        47
39.620        27
39.630        47
39.640        67
39.650        33
39.660        40
39.670        53
39.680        20
39.690        20
39.700         7
39.710        13
39.720        47
39.730        53
39.740        27
39.750        33
39.760         7
39.770        40
39.780        20
39.790        87
39.800        33
39.810        27
39.820        47
39.830        67
39.840        53
39.850        33
39.860        47
39.870        67
39.880        60
39.890        60
39.900        60
39.910        33
39.920        27
39.930        73
39.940        40
39.950        67
39.960        53
39.970        80
39.980        80
39.990        53
40.000        47
40.010       100
40.020        53
40.030        80
40.040        60
40.050        53
40.060        67
40.070        60
40.080        60
40.090        67
40.100        60
40.110        53
40.120        40
40.130        60
40.140        53
40.150        60
40.160        93
40.170        73
40.180        40
40.190        47
40.200        60
40.210        47
40.220        33
40.230        47
40.240        73
40.250        40
40.260        33
40.270        93
40.280        40
40.290        73
40.300        47
40.310        40
40.320        33
40.330        60
40.340        73
40.350        40
40.360        67
40.370        60
40.380        40
40.390        80
40.400        40
40.410        33
40.420        47
40.430        13
40.440        27
40.450        60
40.460        47
40.470        73
40.480        27
40.490        40
40.500        60
40.510        53
40.520        47
40.530        20
40.540        73
40.550        67
40.560        40
40.570        53
40.580        33
40.590        40
40.600        40
40.610        27
40.620        53
40.630        53
40.640        60
40.650        20
40.660        67
40.670        87
40.680        27
40.690        40
40.700        40
40.710        40
40.720        47
40.730        53
40.740        27
40.750        40
40.760        53
40.770        27
40.780        27
40.790        27
40.800        33
40.810        40
40.820        47
40.830        47
40.840        33
40.850        47
40.860        47
40.870        13
40.880        40
40.890        27
40.900        73
40.910        40
40.920        67
40.930        67
40.940        33
40.950        33
40.960        53
40.970        53
40.980        40
40.990        53
41.000        33
41.010        13
41.020        67
41.030        20
41.040        27
41.050        47
41.060        53
41.070        33
41.080        20
41.090        53
41.100        13
41.110        33
41.120        47
41.130        40
41.140        33
41.150        60
41.160        33
41.170        20
41.180        60
41.190        27
41.200        40
41.210        67
41.220        40
41.230        13
41.240        33
41.250        47
41.260        33
41.270        27
41.280        27
41.290        33
41.300        47
41.310        53
41.320        27
41.330        60
41.340        60
41.350        67
41.360        40
41.370        13
41.380        27
41.390        40
41.400        20
41.410        60
41.420        53
41.430        53
41.440        33
41.450        47
41.460        60
41.470        27
41.480        20
41.490        27
41.500        40
41.510        27
41.520        33
41.530        60
41.540        53
41.550        53
41.560        53
41.570        60
41.580         7
41.590        27
41.600        40
41.610        40
41.620        33
41.630        67
41.640        67
41.650        27
41.660        20
41.670        40
41.680        47
41.690        60
41.700        27
41.710        13
41.720        47
41.730        20
41.740        33
41.750        13
41.760        53
41.770        47
41.780        40
41.790        27
41.800        33
41.810        53
41.820        47
41.830        40
41.840        40
41.850        33
41.860        33
41.870        13
41.880        47
41.890        47
41.900        53
41.910        80
41.920        33
41.930        40
41.940        60
41.950        40
41.960        27
41.970        73
41.980        53
41.990        67
42.000        20
42.010        73
42.020        47
42.030        20
42.040        47
42.050        87
42.060        40
42.070        20
42.080        67
42.090        33
42.100        53
42.110        27
42.120        33
42.130        27
42.140        27
42.150        60
42.160        27
42.170        40
42.180        73
42.190        40
42.200        40
42.210        47
42.220        33
42.230        33
42.240        60
42.250        40
42.260        33
42.270        20
42.280        60
42.290        53
42.300        53
42.310        33
42.320        27
42.330        33
42.340        40
42.350        40
42.360        40
42.370        40
42.380        13
42.390        47
42.400        33
42.410        47
42.420        67
42.430        20
42.440        27
42.450        67
42.460        53
42.470         7
42.480        73
42.490        27
42.500        53
42.510        27
42.520        27
42.530        47
42.540        67
42.550        33
42.560        60
42.570        47
42.580        40
42.590        67
42.600        20
42.610        27
42.620        53
42.630        40
42.640        60
42.650        60
42.660        47
42.670        33
42.680        67
42.690        60
42.700        60
42.710        33
42.720        40
42.730        47
42.740        13
42.750        20
42.760        53
42.770        40
42.780        40
42.790        27
42.800        27
42.810         7
42.820        53
42.830        47
42.840        60
42.850        53
42.860        47
42.870        20
42.880        27
42.890        67
42.900        33
42.910        67
42.920        27
42.930        40
42.940        33
42.950        20
42.960        47
42.970        40
42.980        53
42.990        40
43.000        40
43.010        80
43.020        60
43.030        47
43.040        73
43.050        73
43.060        40
43.070        47
43.080        33
43.090        33
43.100        60
43.110        40
43.120        27
43.130        40
43.140        27
43.150        40
43.160        40
43.170        60
43.180        40
43.190        33
43.200        27
43.210        27
43.220        47
43.230        27
43.240        40
43.250        33
43.260        47
43.270        47
43.280        33
43.290        40
43.300        33
43.310        33
43.320        40
43.330        27
43.340        60
43.350        40
43.360        33
43.370        67
43.380        67
43.390        40
43.400        20
43.410        53
43.420        20
43.430        73
43.440        33
43.450        40
43.460        60
43.470        67
43.480        53
43.490        33
43.500        33
43.510        53
43.520        27
43.530        60
43.540        20
43.550        33
43.560        27
43.570        33
43.580        53
43.590        27
43.600        47
43.610        60
43.620        53
43.630        40
43.640        47
43.650        33
43.660        40
43.670        40
43.680        27
43.690        33
43.700        40
43.710        33
43.720        40
43.730        40
43.740        47
43.750        40
43.760        53
43.770        33
43.780        33
43.790        40
43.800        27
43.810        13
43.820        27
43.830        47
43.840        47
43.850        47
43.860        13
43.870        47
43.880        20
43.890        27
43.900        40
43.910        40
43.920        33
43.930        27
43.940        47
43.950        67
43.960        60
43.970        27
43.980        13
43.990        40
44.000        27
44.010        47
44.020        73
44.030        87
44.040        33
44.050        53
44.060        47
44.070        27
44.080        47
44.090        33
44.100        40
44.110        20
44.120        33
44.130        40
44.140        40
44.150        20
44.160        27
44.170        40
44.180        47
44.190        40
44.200        27
44.210        60
44.220        73
44.230        33
44.240        40
44.250        60
44.260        87
44.270        80
44.280        73
44.290        47
44.300        53
44.310        73
44.320        73
44.330        53
44.340        80
44.350        20
44.360        73
44.370        93
44.380        80
44.390        67
44.400        73
44.410        67
44.420        53
44.430        47
44.440        60
44.450        40
44.460        27
44.470        67
44.480        73
44.490        47
44.500        53
44.510        53
44.520        33
44.530        20
44.540        47
44.550        33
44.560        20
44.570        47
44.580        27
44.590        47
44.600        53
44.610        40
44.620        40
44.630        53
44.640        53
44.650        67
44.660        40
44.670        73
44.680        53
44.690        20
44.700        53
44.710        47
44.720        40
44.730        60
44.740        27
44.750        33
44.760        33
44.770        47
44.780        60
44.790        40
44.800         7
44.810        53
44.820        47
44.830        60
44.840        47
44.850        47
44.860        60
44.870        47
44.880        47
44.890        67
44.900        53
44.910        47
44.920        53
44.930        20
44.940        53
44.950        13
44.960        47
44.970        20
44.980        40
44.990        20
45.000        40
45.010        40
45.020        47
45.030        60
45.040        13
45.050        27
45.060        47
45.070        13
45.080        27
45.090        40
45.100        27
45.110        47
45.120        33
45.130        33
45.140        40
45.150        40
45.160        60
45.170        20
45.180        40
45.190        53
45.200        20
45.210        67
45.220        13
45.230        33
45.240        33
45.250        27
45.260        40
45.270        40
45.280        33
45.290        40
45.300        47
45.310        20
45.320        27
45.330        60
45.340        60
45.350        60
45.360        20
45.370        47
45.380        53
45.390        53
45.400        73
45.410        47
45.420        33
45.430        47
45.440        47
45.450        20
45.460        60
45.470        53
45.480        27
45.490       187
45.500        73
45.510        93
45.520        67
45.530        47
45.540        67
45.550        40
45.560        47
45.570         7
45.580        60
45.590        40
45.600        27
45.610        47
45.620        53
45.630        67
45.640        53
45.650        40
45.660        40
45.670        47
45.680        27
45.690        67
45.700        80
45.710        40
45.720        27
45.730        20
45.740        53
45.750        27
45.760        47
45.770        40
45.780        40
45.790        73
45.800        53
45.810        40
45.820        20
45.830        73
45.840        40
45.850        60
45.860        53
45.870        40
45.880        67
45.890        40
45.900       120
45.910        67
45.920        80
45.930        40
45.940        73
45.950        53
45.960        47
45.970        53
45.980        40
45.990        73
46.000        73
46.010       127
46.020        60
46.030        73
46.040        73
46.050        93
46.060        67
46.070        73
46.080       100
46.090        47
46.100       120
46.110       107
46.120        80
46.130        80
46.140        67
46.150        60
46.160        87
46.170        33
46.180        47
46.190        67
46.200        53
46.210        47
46.220        53
46.230        67
46.240        40
46.250        87
46.260        80
46.270        73
46.280        27
46.290        40
46.300        60
46.310        33
46.320        60
46.330        53
46.340        53
46.350        40
46.360        33
46.370        67
46.380        20
46.390        47
46.400        60
46.410        47
46.420        53
46.430        53
46.440        60
46.450        53
46.460        40
46.470         7
46.480        33
46.490        27
46.500        20
46.510        33
46.520        47
46.530        53
46.540        27
46.550        13
46.560        73
46.570        73
46.580        73
46.590        60
46.600        40
46.610        67
46.620        33
46.630        40
46.640        67
46.650        60
46.660        53
46.670        80
46.680        40
46.690        47
46.700        40
46.710        40
46.720        60
46.730        73
46.740        87
46.750        47
46.760        80
46.770        80
46.780        87
46.790        80
46.800        67
46.810       133
46.820        67
46.830       113
46.840        87
46.850       107
46.860       127
46.870        87
46.880        73
46.890       100
46.900        87
46.910       113
46.920       100
46.930        87
46.940        80
46.950        93
46.960        47
46.970       120
46.980        80
46.990        60
47.000       100
47.010       140
47.020       100
47.030        87
47.040       127
47.050       100
47.060       127
47.070       120
47.080       167
47.090       180
47.100       173
47.110       227
47.120       273
47.130       353
47.140       493
47.150       593
47.160       913
47.170      1000
47.180      1100
47.190      1213
47.200      1266
47.210      1259
47.220      1013
47.230       726
47.240       613
47.250       453
47.260       347
47.270       187
47.280       260
47.290       187
47.300       193
47.310       147
47.320       153
47.330       167
47.340       140
47.350        93
47.360       113
47.370       107
47.380        80
47.390       107
47.400        87
47.410       140
47.420        60
47.430        87
47.440        67
47.450        53
47.460        93
47.470        53
47.480        60
47.490        87
47.500        53
47.510        33
47.520        93
47.530        53
47.540        20
47.550        87
47.560        80
47.570        60
47.580        53
47.590        60
47.600        73
47.610        60
47.620       100
47.630        47
47.640        20
47.650        33
47.660        13
47.670        60
47.680        67
47.690        47
47.700        67
47.710        20
47.720        47
47.730        87
47.740        27
47.750        73
47.760        67
47.770        27
47.780        27
47.790        67
47.800        47
47.810        13
47.820        47
47.830        47
47.840        40
47.850        47
47.860        33
47.870        60
47.880        60
47.890        27
47.900        33
47.910        13
47.920        53
47.930        60
47.940        27
47.950        73
47.960        60
47.970        47
47.980        67
47.990        53
48.000        87
48.010        33
48.020        40
48.030        27
48.040        80
48.050        60
48.060        60
48.070        20
48.080        40
48.090        47
48.100        40
48.110        27
48.120        80
48.130        53
48.140        20
48.150        60
48.160        53
48.170        60
48.180        33
48.190        47
48.200        53
48.210        47
48.220        73
48.230        40
48.240        47
48.250        27
48.260        80
48.270        60
48.280        40
48.290        47
48.300        60
48.310        80
48.320        53
48.330        13
48.340        40
48.350        40
48.360        80
48.370        73
48.380        47
48.390        67
48.400        60
48.410        47
48.420        47
48.430        20
48.440        53
48.450        60
48.460        20
48.470        40
48.480        67
48.490        40
48.500        47
48.510        67
48.520        40
48.530        40
48.540        53
48.550        80
48.560        13
48.570        73
48.580        53
48.590        60
48.600        47
48.610         0
48.620        20
48.630        47
48.640        40
48.650        47
48.660        47
48.670        33
48.680        20
48.690        60
48.700        47
48.710        47
48.720        53
48.730        33
48.740        40
48.750        53
48.760        47
48.770        47
48.780        73
48.790        60
48.800        73
48.810        27
48.820        53
48.830        33
48.840        47
48.850        53
48.860        60
48.870        27
48.880        13
48.890        47
48.900        40
48.910        33
48.920        60
48.930        40
48.940        33
48.950        33
48.960        73
48.970        27
48.980        33
48.990         7
49.000        73
49.010        60
49.020        47
49.030        67
49.040        27
49.050        53
49.060        40
49.070        40
49.080        40
49.090        33
49.100        20
49.110        80
49.120        87
49.130        27
49.140        33
49.150        53
49.160        53
49.170        33
49.180        20
49.190        67
49.200        40
49.210        47
49.220        33
49.230        33
49.240        33
49.250         7
49.260        40
49.270        60
49.280        27
49.290        47
49.300       100
49.310        60
49.320        93
49.330        47
49.340        60
49.350        73
49.360        53
49.370        33
49.380        53
49.390        27
49.400        60
49.410        53
49.420        20
49.430        53
49.440        47
49.450        33
49.460        47
49.470        47
49.480        53
49.490        40
49.500        13
49.510        27
49.520        47
49.530        60
49.540        40
49.550        53
49.560        33
49.570        27
49.580        33
49.590        93
49.600        33
49.610        53
49.620        47
49.630        33
49.640        47
49.650        67
49.660        47
49.670        40
49.680        20
49.690        60
49.700        60
49.710        67
49.720        67
49.730        80
49.740        13
49.750        80
49.760        60
49.770        47
49.780        47
49.790        60
49.800        53
49.810        73
49.820        60
49.830        60
49.840        87
49.850        53
49.860        40
49.870       113
49.880        87
49.890       107
49.900       107
49.910       100
49.920        87
49.930        73
49.940       127
49.950       127
49.960       107
49.970       133
49.980        80
49.990       107
50.000        60
50.010        87
50.020       120
50.030        80
50.040        80
50.050        93
50.060        80
50.070       100
50.080        87
50.090        40
50.100        53
50.110        87
50.120        80
50.130        93
50.140        47
50.150       107
50.160        73
50.170        87
50.180        40
50.190        80
50.200        53
50.210        47
50.220        87
50.230        53
50.240        47
50.250        47
50.260        40
50.270        67
50.280        67
50.290        73
50.300        40
50.310        53
50.320        53
50.330        60
50.340        67
50.350        73
50.360        53
50.370        47
50.380        80
50.390        20
50.400        67
50.410        27
50.420        60
50.430        33
50.440        73
50.450        27
50.460        80
50.470        20
50.480        20
50.490        33
50.500        53
50.510        73
50.520        47
50.530        33
50.540        40
50.550        93
50.560        47
50.570       100
50.580        53
50.590        53
50.600        80
50.610        47
50.620        93
50.630       127
50.640       180
50.650       160
50.660       173
50.670       267
50.680       167
50.690       300
50.700       347
50.710       273
50.720       273
50.730       273
50.740       293
50.750       367
50.760       380
50.770       387
50.780       307
50.790       347
50.800       327
50.810       300
50.820       280
50.830       347
50.840       347
50.850       367
50.860       340
50.870       293
50.880       320
50.890       327
50.900       313
50.910       267
50.920       333
50.930       373
50.940       340
50.950       320
50.960       340
50.970       320
50.980       340
50.990       320
51.000       287
51.010       313
51.020       380
51.030       333
51.040       407
51.050       333
51.060       380
51.070       280
51.080       393
51.090       340
51.100       340
51.110       420
51.120       353
51.130       333
51.140       307
51.150       387
51.160       373
51.170       267
51.180       400
51.190       466
51.200       313
51.210       353
51.220       280
51.230       353
51.240       407
51.250       380
51.260       426
51.270       373
51.280       393
51.290       333
51.300       340
51.310       426
51.320       373
51.330       320
51.340       320
51.350       300
51.360       420
51.370       313
51.380       280
51.390       313
51.400       313
51.410       307
51.420       340
51.430       373
51.440       393
51.450       327
51.460       293
51.470       353
51.480       340
51.490       380
51.500       340
51.510       280
51.520       340
51.530       333
51.540       466
51.550       413
51.560       473
51.570       313
51.580       333
51.590       353
51.600       433
51.610       320
51.620       440
51.630       367
51.640       426
51.650       413
51.660       446
51.670       400
51.680       340
51.690       433
51.700       407
51.710       400
51.720       387
51.730       280
51.740       500
51.750       333
51.760       353
51.770       367
51.780       433
51.790       426
51.800       426
51.810       460
51.820       440
51.830       413
51.840       506
51.850       367
51.860       313
51.870       400
51.880       493
51.890       586
51.900       533
51.910       506
51.920       526
51.930       426
51.940       500
51.950       367
51.960       420
51.970       533
51.980       566
51.990       400
52.000       480
52.010       540
52.020       620
52.030       500
52.040       500
52.050       573
52.060       453
52.070       566
52.080       566
52.090       506
52.100       486
52.110       560
52.120       580
52.130       606
52.140       660
52.150       646
52.160       793
52.170       786
52.180       760
52.190       866
52.200       793
52.210       760
52.220       933
52.230       740
52.240       906
52.250      1013
52.260      1046
52.270      1173
52.280      1379
52.290      1713
52.300      1786
52.310      1919
52.320      2186
52.330      2459
52.340      2572
52.350      2672
52.360      2999
52.370      2945
52.380      2679
52.390      2839
52.400      2859
52.410      3179
52.420      3272
52.430      3385
52.440      4018
52.450      4332
52.460      5238
52.470      6018
52.480      7077
52.490      9636
52.500     12442
52.510     17353
52.520     26743
52.530     43476
52.540     70232
52.550    101160
52.560    126709
52.570    144336
52.580    149740
52.590    151933
52.600    147661
52.610    131747
52.620    107284
52.630     79002
52.640     54272
52.650     39371
52.660     36039
52.670     38058
52.680     50833
52.690     65847
52.700     78469
52.710     87292
52.720     92550
52.730     91057
52.740     85652
52.750     76723
52.760     60796
52.770     43049
52.780     28955
52.790     19052
52.800     13981
52.810     10756
52.820      9643
52.830      8643
52.840      7737
52.850      7264
52.860      6377
52.870      5498
52.880      4871
52.890      3945
52.900      3519
52.910      2546
52.920      2239
52.930      2026
52.940      1806
52.950      1733
52.960      1506
52.970      1346
52.980      1220
52.990      1240
53.000      1226
53.010      1013
53.020      1006
53.030       993
53.040      1033
53.050       973
53.060       940
53.070       966
53.080       846
53.090       893
53.100       753
53.110       813
53.120       780
53.130       766
53.140       713
53.150       726
53.160       613
53.170       566
53.180       673
53.190       573
53.200       680
53.210       606
53.220       533
53.230       540
53.240       613
53.250       640
53.260       540
53.270       633
53.280       706
53.290       533
53.300       540
53.310       560
53.320       506
53.330       560
53.340       500
53.350       453
53.360       413
53.370       553
53.380       593
53.390       546
53.400       486
53.410       546
53.420       480
53.430       460
53.440       400
53.450       413
53.460       480
53.470       493
53.480       413
53.490       433
53.500       480
53.510       546
53.520       493
53.530       480
53.540       440
53.550       340
53.560       433
53.570       426
53.580       520
53.590       446
53.600       393
53.610       380
53.620       393
53.630       333
53.640       393
53.650       307
53.660       280
53.670       353
53.680       373
53.690       400
53.700       307
53.710       426
53.720       373
53.730       280
53.740       446
53.750       353
53.760       353
53.770       367
53.780       353
53.790       227
53.800       327
53.810       300
53.820       333
53.830       333
53.840       313
53.850       353
53.860       273
53.870       333
53.880       220
53.890       387
53.900       300
53.910       373
53.920       287
53.930       293
53.940       233
53.950       280
53.960       227
53.970       293
53.980       253
53.990       313
54.000       313
54.010       300
54.020       307
54.030       373
54.040       320
54.050       380
54.060       353
54.070       320
54.080       240
54.090       413
54.100       253
54.110       333
54.120       393
54.130       340
54.140       247
54.150       353
54.160       307
54.170       267
54.180       233
54.190       327
54.200       260
54.210       293
54.220       353
54.230       280
54.240       273
54.250       307
54.260       260
54.270       207
54.280       247
54.290       347
54.300       300
54.310       273
54.320       287
54.330       267
54.340       280
54.350       260
54.360       300
54.370       267
54.380       247
54.390       260
54.400       353
54.410       273
54.420       367
54.430       240
54.440       253
54.450       273
54.460       247
54.470       353
54.480       267
54.490       387
54.500       273
54.510       233
54.520       260
54.530       327
54.540       273
54.550       360
54.560       287
54.570       307
54.580       307
54.590       273
54.600       260
54.610       207
54.620       253
54.630       253
54.640       267
54.650       247
54.660       307
54.670       253
54.680       220
54.690       267
54.700       280
54.710       293
54.720       280
54.730       327
54.740       240
54.750       327
54.760       280
54.770       307
54.780       253
54.790       240
54.800       233
54.810       273
54.820       293
54.830       253
54.840       213
54.850       260
54.860       267
54.870       187
54.880       227
54.890       293
54.900       227
54.910       200
54.920       240
54.930       187
54.940       253
54.950       293
54.960       233
54.970       260
54.980       287
54.990       233
55.000       233
55.010       253
55.020       300
55.030       213
55.040       280
55.050       260
55.060       213
55.070       240
55.080       167
55.090       173
55.100       273
55.110       180
55.120       207
55.130       227
55.140       220
55.150       200
55.160       193
55.170       267
55.180       200
55.190       227
55.200       207
55.210       200
55.220       260
55.230       167
55.240       247
55.250       253
55.260       220
55.270       173
55.280       233
55.290       287
55.300       253
55.310       260
55.320       247
55.330       173
55.340       207
55.350       307
55.360       227
55.370       193
55.380       220
55.390       247
55.400       233
55.410       213
55.420       200
55.430       193
55.440       220
55.450       213
55.460       207
55.470       180
55.480       220
55.490       180
55.500       173
55.510       240
55.520       233
55.530       193
55.540       127
55.550       167
55.560       240
55.570       240
55.580       140
55.590       227
55.600       240
55.610       287
55.620       260
55.630       220
55.640       193
55.650       187
55.660       193
55.670       173
55.680       213
55.690       233
55.700       220
55.710        93
55.720       187
55.730       173
55.740       200
55.750       247
55.760       207
55.770       240
55.780       160
55.790       193
55.800       247
55.810       173
55.820       200
55.830       187
55.840       160
55.850       227
55.860       193
55.870       153
55.880       233
55.890       133
55.900       193
55.910       207
55.920       167
55.930       180
55.940       220
55.950       207
55.960       273
55.970       207
55.980       220
55.990       240
56.000       267
56.010       247
56.020       307
56.030       233
56.040       160
56.050       187
56.060       180
56.070       193
56.080       133
56.090       173
56.100       193
56.110       120
56.120       247
56.130       160
56.140       247
56.150       213
56.160       220
56.170       187
56.180       173
56.190       187
56.200       240
56.210       200
56.220       207
56.230       213
56.240       180
56.250       187
56.260       200
56.270       233
56.280       220
56.290       180
56.300       207
56.310       173
56.320       220
56.330       187
56.340       187
56.350       147
56.360       187
56.370       180
56.380       153
56.390       173
56.400       107
56.410       153
56.420       187
56.430       233
56.440       153
56.450       153
56.460       180
56.470       213
56.480       147
56.490       153
56.500       133
56.510       213
56.520       193
56.530       213
56.540       240
56.550       233
56.560       180
56.570       220
56.580       267
56.590       167
56.600       227
56.610       167
56.620       120
56.630       167
56.640       193
56.650       160
56.660       160
56.670       147
56.680       207
56.690       173
56.700       173
56.710       160
56.720       227
56.730       207
56.740       160
56.750       167
56.760       160
56.770       167
56.780       147
56.790       213
56.800       200
56.810       233
56.820       207
56.830       227
56.840       140
56.850       213
56.860       153
56.870       133
56.880       180
56.890       220
56.900       240
56.910       207
56.920       200
56.930       247
56.940       140
56.950       213
56.960       200
56.970       153
56.980       153
56.990       173
57.000       180
57.010       180
57.020       187
57.030       227
57.040       193
57.050       207
57.060       213
57.070       213
57.080       133
57.090       153
57.100       160
57.110       153
57.120       247
57.130       140
57.140       200
57.150       220
57.160       200
57.170       147
57.180       220
57.190       187
57.200       167
57.210       167
57.220       180
57.230       147
57.240       107
57.250       233
57.260       200
57.270       147
57.280       173
57.290       140
57.300       193
57.310       113
57.320       193
57.330       133
57.340       140
57.350       193
57.360       167
57.370       227
57.380       167
57.390       227
57.400       207
57.410       133
57.420       200
57.430       160
57.440       147
57.450       167
57.460       133
57.470       147
57.480       113
57.490       213
57.500       187
57.510       193
57.520       120
57.530       200
57.540       153
57.550       213
57.560       200
57.570       173
57.580       167
57.590       160
57.600       120
57.610       120
57.620       207
57.630       167
57.640       180
57.650       187
57.660       133
57.670       167
57.680       107
57.690       180
57.700       147
57.710       160
57.720       147
57.730        87
57.740       200
57.750       207
57.760       160
57.770       207
57.780       173
57.790       147
57.800       127
57.810       120
57.820       107
57.830       167
57.840        93
57.850       120
57.860       187
57.870       160
57.880       153
57.890       220
57.900       180
57.910       147
57.920       133
57.930       153
57.940       160
57.950       107
57.960       153
57.970       173
57.980       133
57.990       153
58.000       193
58.010        93
58.020       167
58.030       167
58.040       147
58.050       167
58.060       133
58.070       193
58.080       160
58.090       167
58.100       133
58.110       200
58.120       133
58.130       133
58.140       160
58.150       180
58.160       167
58.170       147
58.180       147
58.190       147
58.200       140
58.210       167
58.220       207
58.230       160
58.240       187
58.250       193
58.260       173
58.270       140
58.280       200
58.290       133
58.300       133
58.310       153
58.320       133
58.330       160
58.340       140
58.350       173
58.360       173
58.370       173
58.380       153
58.390        93
58.400       133
58.410       120
58.420       127
58.430       107
58.440       180
58.450       120
58.460       160
58.470       133
58.480       187
58.490       113
58.500       167
58.510        80
58.520       120
58.530        80
58.540       160
58.550       120
58.560       140
58.570       200
58.580       127
58.590       133
58.600       147
58.610        93
58.620       127
58.630       147
58.640       127
58.650       173
58.660       153
58.670       113
58.680       200
58.690       220
58.700       127
58.710       207
58.720       160
58.730       173
58.740       133
58.750       213
58.760       147
58.770       160
58.780       113
58.790       120
58.800       120
58.810       147
58.820       140
58.830       173
58.840       120
58.850       167
58.860       153
58.870       160
58.880       140
58.890       173
58.900       127
58.910       113
58.920       200
58.930       107
58.940       120
58.950       147
58.960       113
58.970       180
58.980       140
58.990        93
59.000        87
59.010       107
59.020       147
59.030       113
59.040       140
59.050       127
59.060       133
59.070       180
59.080       140
59.090       140
59.100        93
59.110       147
59.120       153
59.130       167
59.140       173
59.150       147
59.160       173
59.170       153
59.180       167
59.190       113
59.200       187
59.210        67
59.220       133
59.230       153
59.240       153
59.250       120
59.260       113
59.270       140
59.280       187
59.290       113
59.300       133
59.310       120
59.320       147
59.330       173
59.340       187
59.350       180
59.360       160
59.370       140
59.380       160
59.390       133
59.400       173
59.410       133
59.420       173
59.430       120
59.440       140
59.450       227
59.460       133
59.470       113
59.480        93
59.490       147
59.500        87
59.510       173
59.520       160
59.530       173
59.540       147
59.550       127
59.560       107
59.570       113
59.580       120
59.590        93
59.600       133
59.610       107
59.620       100
59.630       100
59.640       160
59.650       133
59.660       167
59.670       113
59.680       120
59.690       100
59.700       160
59.710       107
59.720       133
59.730       147
59.740       100
59.750       147
59.760       100
59.770       140
59.780       147
59.790       140
59.800       120
59.810       133
59.820       147
59.830       147
59.840       120
59.850       167
59.860       133
59.870       120
59.880        87
59.890       113
59.900       173
59.910       107
59.920       147
59.930       113
59.940       133
59.950       107
59.960       120
59.970       147
59.980        80
59.990       133
60.000       107
