20.000       133
20.010       113
20.020       147
20.030        53
20.040       107
20.050        93
20.060       107
20.070        93
20.080       107
20.090        93
20.100       160
20.110        93
20.120        53
20.130        87
20.140        67
20.150        80
20.160        87
20.170       120
20.180       107
20.190       127
20.200        93
20.210        87
20.220        73
20.230        80
20.240        67
20.250       140
20.260       187
20.270        93
20.280       113
20.290        73
20.300       100
20.310       100
20.320        67
20.330        93
20.340       107
20.350       100
20.360        93
20.370        87
20.380        93
20.390       107
20.400        80
20.410        93
20.420       107
20.430       120
20.440       140
20.450        67
20.460       140
20.470       193
20.480       133
20.490       107
20.500       140
20.510       100
20.520       120
20.530        80
20.540        73
20.550        73
20.560       107
20.570        93
20.580        67
20.590        93
20.600        93
20.610        93
20.620       107
20.630       127
20.640       133
20.650        73
20.660        87
20.670        67
20.680       100
20.690       113
20.700        80
20.710       107
20.720        87
20.730        73
20.740       127
20.750       113
20.760        87
20.770       120
20.780       127
20.790       107
20.800       107
20.810        80
20.820       127
20.830       153
20.840       153
20.850       107
20.860        87
20.870       140
20.880       127
20.890       120
20.900        73
20.910        80
20.920        87
20.930        87
20.940       100
20.950       100
20.960        87
20.970       127
20.980       133
20.990        80
21.000        73
21.010       120
21.020       120
21.030        80
21.040       107
21.050       107
21.060       180
21.070        93
21.080       127
21.090        53
21.100        80
21.110       133
21.120        60
21.130        87
21.140        87
21.150       120
21.160       113
21.170        80
21.180       127
21.190       173
21.200       113
21.210        80
21.220       167
21.230        67
21.240       100
21.250       113
21.260       100
21.270        80
21.280        87
21.290        87
21.300       140
21.310        80
21.320       153
21.330       140
21.340       107
21.350       107
21.360        67
21.370       133
21.380       120
21.390       100
21.400       147
21.410        87
21.420       113
21.430        80
21.440        67
21.450        53
21.460       127
21.470       120
21.480       153
21.490        93
21.500        87
21.510       107
21.520        53
21.530        93
21.540       140
21.550        80
21.560       107
21.570        80
21.580        93
21.590        53
21.600        80
21.610       133
21.620       113
21.630       127
21.640        93
21.650       113
21.660       113
21.670       113
21.680       160
21.690       113
21.700       133
21.710        93
21.720       167
21.730       113
21.740       133
21.750        80
21.760       140
21.770       133
21.780       133
21.790       107
21.800        93
21.810        93
21.820       147
21.830       127
21.840       120
21.850        80
21.860       160
21.870        93
21.880       127
21.890       120
21.900       113
21.910       127
21.920       147
21.930        93
21.940       100
21.950        93
21.960       107
21.970       147
21.980       133
21.990       133
22.000       127
22.010       207
22.020       140
22.030       107
22.040       133
22.050       127
22.060       140
22.070       140
22.080       127
22.090       127
22.100       107
22.110       153
22.120       120
22.130       153
22.140       113
22.150        80
22.160       133
22.170       120
22.180       160
22.190       133
22.200       207
22.210       107
22.220       133
22.230        73
22.240       167
22.250       133
22.260       147
22.270       153
22.280       133
22.290       153
22.300       147
22.310       153
22.320       127
22.330       107
22.340       147
22.350       113
22.360       107
22.370       180
22.380       200
22.390       180
22.400        60
22.410       133
22.420       187
22.430        93
22.440       100
22.450       120
22.460       173
22.470       180
22.480       140
22.490       153
22.500       127
22.510       233
22.520       187
22.530       200
22.540       153
22.550       107
22.560       207
22.570       167
22.580       160
22.590       160
22.600       220
22.610       173
22.620       180
22.630       147
22.640       193
22.650       127
22.660       173
22.670       153
22.680       147
22.690       227
22.700       107
22.710       133
22.720       173
22.730       120
22.740       133
22.750       207
22.760       187
22.770       173
22.780       160
22.790       187
22.800       180
22.810       133
22.820       167
22.830       127
22.840       100
22.850       227
22.860       187
22.870       133
22.880       153
22.890       220
22.900       180
22.910       200
22.920       240
22.930       173
22.940       307
22.950       187
22.960       220
22.970       227
22.980       247
22.990       273
23.000       227
23.010       187
23.020       200
23.030       253
23.040       240
23.050       353
23.060       453
23.070       606
23.080       873
23.090      1120
23.100      1446
23.110      1753
23.120      1599
23.130      1706
23.140      1713
23.150      1226
23.160       893
23.170       613
23.180       393
23.190       300
23.200       360
23.210       333
23.220       267
23.230       247
23.240       207
23.250       227
23.260       180
23.270       213
23.280       233
23.290       213
23.300       273
23.310       167
23.320       200
23.330       127
23.340       213
23.350       253
23.360       200
23.370       233
23.380       173
23.390       140
23.400       167
23.410       200
23.420       160
23.430       153
23.440       100
23.450       220
23.460       213
23.470       227
23.480       293
23.490       227
23.500       193
23.510       200
23.520       233
23.530       200
23.540       287
23.550       193
23.560       220
23.570       240
23.580       200
23.590       227
23.600       227
23.610       287
23.620       260
23.630       193
23.640       180
23.650       173
23.660       167
23.670       153
23.680       207
23.690       213
23.700       233
23.710       227
23.720       207
23.730       247
23.740       220
23.750       180
23.760       233
23.770       233
23.780       207
23.790       160
23.800       233
23.810       153
23.820       193
23.830       213
23.840       253
23.850       213
23.860       173
23.870       193
23.880       187
23.890       160
23.900       220
23.910       220
23.920       173
23.930       227
23.940       113
23.950       167
23.960       173
23.970       220
23.980       180
23.990       187
24.000       187
24.010       193
24.020       160
24.030       153
24.040       167
24.050       173
24.060       133
24.070       193
24.080       253
24.090       207
24.100       200
24.110       173
24.120       167
24.130       213
24.140       220
24.150       220
24.160       207
24.170       173
24.180       220
24.190       233
24.200       147
24.210       200
24.220       167
24.230       193
24.240       147
24.250       233
24.260       180
24.270       167
24.280       273
24.290       153
24.300       233
24.310       153
24.320       200
24.330       180
24.340       193
24.350       167
24.360       220
24.370       180
24.380       233
24.390       207
24.400       160
24.410       213
24.420       233
24.430       307
24.440       180
24.450       220
24.460       220
24.470       207
24.480       193
24.490       233
24.500       227
24.510       260
24.520       207
24.530       180
24.540       220
24.550       300
24.560       247
24.570       233
24.580       167
24.590       247
24.600       160
24.610       153
24.620       240
24.630       267
24.640       233
24.650       267
24.660       300
24.670       253
24.680       207
24.690       207
24.700       320
24.710       293
24.720       367
24.730       533
24.740       526
24.750       560
24.760       560
24.770       700
24.780       826
24.790       800
24.800       853
24.810       726
24.820       806
24.830       866
24.840       760
24.850       766
24.860       920
24.870       860
24.880       866
24.890       993
24.900       780
24.910       893
24.920       793
24.930       800
24.940       906
24.950       893
24.960       893
24.970       826
24.980       833
24.990       860
25.000       960
25.010       760
25.020       793
25.030       820
25.040       900
25.050       833
25.060       893
25.070       826
25.080       820
25.090       800
25.100       820
25.110       820
25.120       773
25.130       813
25.140       713
25.150       786
25.160       880
25.170       893
25.180       726
25.190       866
25.200       906
25.210       840
25.220       960
25.230       953
25.240       946
25.250       953
25.260       926
25.270       920
25.280       940
25.290      1080
25.300      1046
25.310      1086
25.320      1093
25.330      1180
25.340      1493
25.350      1726
25.360      2126
25.370      2319
25.380      2752
25.390      3705
25.400      4112
25.410      5225
25.420      6098
25.430      6577
25.440      7157
25.450      8230
25.460      9030
25.470      9903
25.480     10296
25.490     10982
25.500     12015
25.510     11809
25.520     12655
25.530     12862
25.540     14021
25.550     16633
25.560     23171
25.570     41410
25.580     75403
25.590    112288
25.600    141277
25.610    155451
25.620    161216
25.630    164108
25.640    165274
25.650    156471
25.660    136472
25.670    114068
25.680    102399
25.690     97141
25.700     93822
25.710     81601
25.720     60889
25.730     36739
25.740     18792
25.750     10622
25.760      7550
25.770      6344
25.780      5311
25.790      4525
25.800      3765
25.810      3172
25.820      2792
25.830      2446
25.840      2086
25.850      1819
25.860      1813
25.870      1613
25.880      1539
25.890      1393
25.900      1306
25.910      1326
25.920      1293
25.930      1166
25.940      1226
25.950      1273
25.960      1046
25.970      1020
25.980      1020
25.990      1053
26.000      1073
26.010      1066
26.020      1033
26.030       993
26.040       986
26.050       953
26.060      1020
26.070       940
26.080       886
26.090       866
26.100       860
26.110       980
26.120       926
26.130       993
26.140       686
26.150       853
26.160       933
26.170       873
26.180       773
26.190       673
26.200       786
26.210       826
26.220       753
26.230       813
26.240       833
26.250       826
26.260       720
26.270       720
26.280       786
26.290       640
26.300       680
26.310       706
26.320       700
26.330       593
26.340       706
26.350       686
26.360       646
26.370       666
26.380       780
26.390       753
26.400       733
26.410       700
26.420       633
26.430       746
26.440       786
26.450       646
26.460       740
26.470       700
26.480       546
26.490       700
26.500       600
26.510       613
26.520       686
26.530       800
26.540       620
26.550       626
26.560       646
26.570       586
26.580       706
26.590       600
26.600       713
26.610       586
26.620       606
26.630       706
26.640       566
26.650       733
26.660       506
26.670       626
26.680       600
26.690       666
26.700       506
26.710       600
26.720       560
26.730       713
26.740       660
26.750       653
26.760       640
26.770       633
26.780       566
26.790       600
26.800       673
26.810       633
26.820       533
26.830       626
26.840       620
26.850       586
26.860       546
26.870       593
26.880       520
26.890       653
26.900       546
26.910       566
26.920       600
26.930       573
26.940       533
26.950       593
26.960       613
26.970       553
26.980       606
26.990       500
27.000       453
27.010       526
27.020       646
27.030       433
27.040       586
27.050       413
27.060       546
27.070       540
27.080       506
27.090       620
27.100       666
27.110       387
27.120       533
27.130       526
27.140       560
27.150       393
27.160       480
27.170       686
27.180       513
27.190       466
27.200       453
27.210       593
27.220       486
27.230       546
27.240       633
27.250       506
27.260       480
27.270       540
27.280       593
27.290       546
27.300       526
27.310       586
27.320       520
27.330       493
27.340       466
27.350       526
27.360       420
27.370       533
27.380       480
27.390       393
27.400       500
27.410       460
27.420       426
27.430       453
27.440       560
27.450       460
27.460       433
27.470       520
27.480       400
27.490       520
27.500       407
27.510       486
27.520       586
27.530       480
27.540       640
27.550       460
27.560       420
27.570       407
27.580       493
27.590       580
27.600       400
27.610       560
27.620       453
27.630       373
27.640       413
27.650       473
27.660       466
27.670       546
27.680       533
27.690       426
27.700       553
27.710       473
27.720       513
27.730       586
27.740       606
27.750       466
27.760       407
27.770       466
27.780       540
27.790       500
27.800       486
27.810       433
27.820       473
27.830       586
27.840       440
27.850       460
27.860       433
27.870       560
27.880       426
27.890       433
27.900       460
27.910       393
27.920       500
27.930       460
27.940       486
27.950       360
27.960       420
27.970       573
27.980       500
27.990       327
28.000       367
28.010       466
28.020       433
28.030       540
28.040       486
28.050       520
28.060       460
28.070       426
28.080       407
28.090       440
28.100       400
28.110       387
28.120       433
28.130       360
28.140       387
28.150       486
28.160       380
28.170       420
28.180       400
28.190       413
28.200       373
28.210       420
28.220       453
28.230       440
28.240       373
28.250       520
28.260       466
28.270       466
28.280       506
28.290       520
28.300       526
28.310       373
28.320       387
28.330       433
28.340       440
28.350       387
28.360       387
28.370       460
28.380       400
28.390       480
28.400       440
28.410       387
28.420       460
28.430       380
28.440       440
28.450       526
28.460       493
28.470       367
28.480       373
28.490       486
28.500       460
28.510       460
28.520       486
28.530       526
28.540       480
28.550       360
28.560       593
28.570       420
28.580       373
28.590       407
28.600       327
28.610       400
28.620       420
28.630       380
28.640       367
28.650       373
28.660       413
28.670       387
28.680       453
28.690       433
28.700       500
28.710       440
28.720       426
28.730       420
28.740       407
28.750       473
28.760       433
28.770       486
28.780       407
28.790       320
28.800       460
28.810       433
28.820       453
28.830       473
28.840       506
28.850       546
28.860       433
28.870       433
28.880       360
28.890       486
28.900       420
28.910       353
28.920       360
28.930       453
28.940       373
28.950       533
28.960       367
28.970       413
28.980       373
28.990       407
29.000       500
29.010       426
29.020       413
29.030       340
29.040       466
29.050       440
29.060       440
29.070       353
29.080       347
29.090       273
29.100       380
29.110       360
29.120       420
29.130       426
29.140       380
29.150       433
29.160       420
29.170       400
29.180       453
29.190       466
29.200       273
29.210       440
29.220       433
29.230       400
29.240       333
29.250       360
29.260       360
29.270       313
29.280       407
29.290       473
29.300       413
29.310       407
29.320       320
29.330       393
29.340       407
29.350       353
29.360       307
29.370       393
29.380       446
29.390       400
29.400       486
29.410       313
29.420       253
29.430       473
29.440       426
29.450       333
29.460       400
29.470       460
29.480       320
29.490       420
29.500       333
29.510       433
29.520       407
29.530       446
29.540       400
29.550       353
29.560       426
29.570       367
29.580       327
29.590       433
29.600       373
29.610       380
29.620       393
29.630       426
29.640       413
29.650       473
29.660       426
29.670       373
29.680       493
29.690       380
29.700       347
29.710       433
29.720       273
29.730       413
29.740       360
29.750       373
29.760       420
29.770       327
29.780       413
29.790       333
29.800       347
29.810       327
29.820       360
29.830       327
29.840       446
29.850       380
29.860       340
29.870       340
29.880       320
29.890       367
29.900       426
29.910       327
29.920       360
29.930       413
29.940       380
29.950       247
29.960       347
29.970       267
29.980       353
29.990       300
30.000       347
30.010       340
30.020       353
30.030       407
30.040       420
30.050       300
30.060       327
30.070       380
30.080       320
30.090       273
30.100       280
30.110       380
30.120       360
30.130       340
30.140       260
30.150       307
30.160       293
30.170       327
30.180       380
30.190       280
30.200       333
30.210       373
30.220       280
30.230       333
30.240       260
30.250       440
30.260       347
30.270       273
30.280       300
30.290       300
30.300       340
30.310       313
30.320       367
30.330       287
30.340       287
30.350       453
30.360       327
30.370       273
30.380       300
30.390       333
30.400       293
30.410       300
30.420       280
30.430       347
30.440       307
30.450       333
30.460       373
30.470       260
30.480       287
30.490       380
30.500       347
30.510       327
30.520       213
30.530       373
30.540       320
30.550       327
30.560       333
30.570       313
30.580       293
30.590       220
30.600       213
30.610       393
30.620       340
30.630       287
30.640       300
30.650       260
30.660       293
30.670       327
30.680       380
30.690       360
30.700       313
30.710       313
30.720       320
30.730       313
30.740       273
30.750       320
30.760       300
30.770       280
30.780       373
30.790       420
30.800       240
30.810       273
30.820       287
30.830       320
30.840       327
30.850       253
30.860       287
30.870       280
30.880       220
30.890       267
30.900       227
30.910       240
30.920       320
30.930       453
30.940       300
30.950       293
30.960       273
30.970       340
30.980       227
30.990       313
31.000       233
31.010       227
31.020       353
31.030       320
31.040       320
31.050       213
31.060       280
31.070       313
31.080       253
31.090       220
31.100       320
31.110       313
31.120       233
31.130       240
31.140       287
31.150       327
31.160       200
31.170       347
31.180       233
31.190       240
31.200       313
31.210       240
31.220       293
31.230       313
31.240       313
31.250       193
31.260       240
31.270       260
31.280       213
31.290       220
31.300       327
31.310       240
31.320       400
31.330       267
31.340       307
31.350       267
31.360       347
31.370       287
31.380       220
31.390       227
31.400       240
31.410       267
31.420       300
31.430       293
31.440       280
31.450       200
31.460       287
31.470       273
31.480       293
31.490       240
31.500       273
31.510       287
31.520       280
31.530       273
31.540       253
31.550       353
31.560       220
31.570       300
31.580       273
31.590       273
31.600       253
31.610       213
31.620       180
31.630       240
31.640       260
31.650       247
31.660       227
31.670       240
31.680       293
31.690       273
31.700       273
31.710       207
31.720       273
31.730       260
31.740       280
31.750       240
31.760       273
31.770       287
31.780       287
31.790       273
31.800       267
31.810       293
31.820       233
31.830       227
31.840       267
31.850       227
31.860       180
31.870       227
31.880       293
31.890       280
31.900       213
31.910       273
31.920       220
31.930       247
31.940       173
31.950       267
31.960       233
31.970       213
31.980       253
31.990       200
32.000       213
32.010       227
32.020       233
32.030       173
32.040       293
32.050       273
32.060       280
32.070       260
32.080       273
32.090       247
32.100       213
32.110       293
32.120       307
32.130       247
32.140       207
32.150       247
32.160       207
32.170       280
32.180       273
32.190       220
32.200       347
32.210       260
32.220       267
32.230       273
32.240       307
32.250       200
32.260       233
32.270       293
32.280       307
32.290       187
32.300       273
32.310       260
32.320       367
32.330       313
32.340       313
32.350       180
32.360       160
32.370       227
32.380       240
32.390       247
32.400       247
32.410       240
32.420       207
32.430       260
32.440       160
32.450       220
32.460       193
32.470       187
32.480       260
32.490       233
32.500       247
32.510       267
32.520       233
32.530       133
32.540       167
32.550       240
32.560       167
32.570       147
32.580       140
32.590       233
32.600       220
32.610       200
32.620       207
32.630       213
32.640       227
32.650       167
32.660       207
32.670       267
32.680       167
32.690       267
32.700       293
32.710       193
32.720       240
32.730       213
32.740       240
32.750       247
32.760       240
32.770       173
32.780       207
32.790       200
32.800       200
32.810       180
32.820       200
32.830       247
32.840       180
32.850       180
32.860       227
32.870       140
32.880       153
32.890       180
32.900       207
32.910       227
32.920       240
32.930       187
32.940       153
32.950       220
32.960       233
32.970       213
32.980       273
32.990       213
33.000       213
33.010       180
33.020       193
33.030       233
33.040       180
33.050       253
33.060       127
33.070       120
33.080       220
33.090       227
33.100       207
33.110       200
33.120       240
33.130       180
33.140       200
33.150       207
33.160       233
33.170       173
33.180       227
33.190       260
33.200       200
33.210       147
33.220       180
33.230       220
33.240       180
33.250       213
33.260       200
33.270       200
33.280       167
33.290       267
33.300       207
33.310       113
33.320       153
33.330       207
33.340       147
33.350       207
33.360       233
33.370       153
33.380       167
33.390       173
33.400       173
33.410       153
33.420       180
33.430       167
33.440       133
33.450       193
33.460       173
33.470       193
33.480       133
33.490       153
33.500       160
33.510       180
33.520       160
33.530       173
33.540       180
33.550       160
33.560       227
33.570       207
33.580       160
33.590       147
33.600       147
33.610       153
33.620       193
33.630       153
33.640       173
33.650       193
33.660       173
33.670       240
33.680       207
33.690       167
33.700       173
33.710       207
33.720       220
33.730       140
33.740       187
33.750       167
33.760       193
33.770       193
33.780       160
33.790       173
33.800       193
33.810       173
33.820       160
33.830       153
33.840       193
33.850       167
33.860       167
33.870       153
33.880       140
33.890       140
33.900       100
33.910       147
33.920       220
33.930       167
33.940       147
33.950       200
33.960       167
33.970       140
33.980       120
33.990       147
34.000       133
34.010       180
34.020       233
34.030       100
34.040       153
34.050       140
34.060       180
34.070       233
34.080       160
34.090       160
34.100       147
34.110       187
34.120       153
34.130       220
34.140       227
34.150       153
34.160       167
34.170       193
34.180       193
34.190       153
34.200       147
34.210       187
34.220       147
34.230       167
34.240       147
34.250       120
34.260       173
34.270       133
34.280       133
34.290       153
34.300       127
34.310       227
34.320       113
34.330       193
34.340       180
34.350       147
34.360       193
34.370        87
34.380       200
34.390       147
34.400       107
34.410       153
34.420        93
34.430       153
34.440       200
34.450       200
34.460       147
34.470       160
34.480       107
34.490       147
34.500       120
34.510       160
34.520       233
34.530       127
34.540       167
34.550       127
34.560       127
34.570       160
34.580       233
34.590       167
34.600       153
34.610       120
34.620       200
34.630       147
34.640       147
34.650       140
34.660       153
34.670       120
34.680       167
34.690       147
34.700       147
34.710       153
34.720       160
34.730       160
34.740       127
34.750       133
34.760       173
34.770       167
34.780       153
34.790       147
34.800       120
34.810       153
34.820       153
34.830       160
34.840       173
34.850        87
34.860       167
34.870       140
34.880       193
34.890       113
34.900       107
34.910       120
34.920       187
34.930       120
34.940       147
34.950       133
34.960        87
34.970       160
34.980       120
34.990       153
35.000       127
35.010        93
35.020       120
35.030       113
35.040       147
35.050       147
35.060        93
35.070       153
35.080       147
35.090       100
35.100       147
35.110        87
35.120        93
35.130       107
35.140        80
35.150        67
35.160       140
35.170       160
35.180       133
35.190       167
35.200       133
35.210       167
35.220       127
35.230       160
35.240        67
35.250        73
35.260       120
35.270       140
35.280       173
35.290       113
35.300       133
35.310       100
35.320       113
35.330       107
35.340       113
35.350       147
35.360       133
35.370       147
35.380        60
35.390       127
35.400       140
35.410       113
35.420       120
35.430       160
35.440       107
35.450       140
35.460        93
35.470       100
35.480       113
35.490       107
35.500       100
35.510       140
35.520       107
35.530       140
35.540       133
35.550        93
35.560       100
35.570       160
35.580       133
35.590       153
35.600       180
35.610       167
35.620       120
35.630        93
35.640       153
35.650       153
35.660        53
35.670        87
35.680       133
35.690       147
35.700       120
35.710       120
35.720       127
35.730       140
35.740       140
35.750       107
35.760       120
35.770        73
35.780        80
35.790        67
35.800       147
35.810        67
35.820       133
35.830       113
35.840       133
35.850        87
35.860       147
35.870       140
35.880        80
35.890       140
35.900        93
35.910        87
35.920       120
35.930       113
35.940       107
35.950       120
35.960       147
35.970       120
35.980       113
35.990       140
36.000       113
36.010        93
36.020       147
36.030       147
36.040       147
36.050       113
36.060       120
36.070       133
36.080       120
36.090       133
36.100        73
36.110       107
36.120        87
36.130       100
36.140       153
36.150        67
36.160       167
36.170       147
36.180       120
36.190       120
36.200       140
36.210       153
36.220       107
36.230       193
36.240        67
36.250       100
36.260       140
36.270        73
36.280       113
36.290       107
36.300        67
36.310       100
36.320       153
36.330        80
36.340       100
36.350       127
36.360       120
36.370       153
36.380        60
36.390       127
36.400        73
36.410        80
36.420       127
36.430       147
36.440        60
36.450       133
36.460        80
36.470        93
36.480        93
36.490       140
36.500       120
36.510       173
36.520        87
36.530        87
36.540       100
36.550        87
36.560       113
36.570        80
36.580       107
36.590       100
36.600       133
36.610        60
36.620       120
36.630        47
36.640        67
36.650       120
36.660       113
36.670        67
36.680       113
36.690       147
36.700        73
36.710       140
36.720       120
36.730       120
36.740        73
36.750        80
36.760        60
36.770       140
36.780       107
36.790       107
36.800       120
36.810        60
36.820       107
36.830        93
36.840       120
36.850        87
36.860       120
36.870        87
36.880       113
36.890       107
36.900       113
36.910        87
36.920        93
36.930        53
36.940       113
36.950        93
36.960        73
36.970        93
36.980        67
36.990       107
37.000        60
37.010       113
37.020       113
37.030       107
37.040       100
37.050        40
37.060       107
37.070       120
37.080       113
37.090        40
37.100       100
37.110        87
37.120        40
37.130        80
37.140        87
37.150        87
37.160        73
37.170       133
37.180        93
37.190        40
37.200        87
37.210        80
37.220       113
37.230        87
37.240        67
37.250        93
37.260        80
37.270       100
37.280       107
37.290        53
37.300        87
37.310        93
37.320        53
37.330        73
37.340        40
37.350       133
37.360       113
37.370        67
37.380        53
37.390        87
37.400       100
37.410        93
37.420        80
37.430       100
37.440       113
37.450       120
37.460        87
37.470       100
37.480        87
37.490       100
37.500        60
37.510        73
37.520        47
37.530        80
37.540        73
37.550        67
37.560        53
37.570        73
37.580        87
37.590       107
37.600        87
37.610       113
37.620       120
37.630       113
37.640       120
37.650        67
37.660        80
37.670       113
37.680        67
37.690        73
37.700        87
37.710        87
37.720        87
37.730        73
37.740       120
37.750        73
37.760        93
37.770        87
37.780        53
37.790        33
37.800        87
37.810        67
37.820        73
37.830        87
37.840        53
37.850        40
37.860        67
37.870        73
37.880        47
37.890        53
37.900        53
37.910        80
37.920        93
37.930       120
37.940        93
37.950        53
37.960        60
37.970       120
37.980       113
37.990        60
38.000        47
38.010       107
38.020        93
38.030        80
38.040        53
38.050        53
38.060       127
38.070        67
38.080       100
38.090       100
38.100        87
38.110        73
38.120       113
38.130        73
38.140        93
38.150        87
38.160       127
38.170        87
38.180        80
38.190        60
38.200       100
38.210        47
38.220        73
38.230        73
38.240        73
38.250        93
38.260        73
38.270        47
38.280       100
38.290        73
38.300       120
38.310        73
38.320        80
38.330        67
38.340        73
38.350        93
38.360       100
38.370        60
38.380        67
38.390        73
38.400        60
38.410        67
38.420        73
38.430        60
38.440        73
38.450        87
38.460       107
38.470        87
38.480        60
38.490        60
38.500        80
38.510        87
38.520        73
38.530        87
38.540        67
38.550        67
38.560        73
38.570        67
38.580       113
38.590       100
38.600       100
38.610        73
38.620        47
38.630        53
38.640        53
38.650       100
38.660        87
38.670        87
38.680        67
38.690        60
38.700        67
38.710        80
38.720        60
38.730        73
38.740        60
38.750        87
38.760        87
38.770        93
38.780        87
38.790        73
38.800        67
38.810        87
38.820        80
38.830        93
38.840        53
38.850        47
38.860        80
38.870        53
38.880        53
38.890        67
38.900        93
38.910        80
38.920       100
38.930       100
38.940        73
38.950        47
38.960        40
38.970        73
38.980       127
38.990       107
39.000        80
39.010       113
39.020        47
39.030        87
39.040        73
39.050        87
39.060        67
39.070        47
39.080        67
39.090        60
39.100        60
39.110        47
39.120        53
39.130        47
39.140        73
39.150        87
39.160       100
39.170        93
39.180        67
39.190       113
39.200        60
39.210        93
39.220        53
39.230        87
39.240        80
39.250        67
39.260       107
39.270        53
39.280        93
39.290        27
39.300        40
39.310        87
39.320        87
39.330        73
39.340        87
39.350        73
39.360        53
39.370        40
39.380        93
39.390        67
39.400        53
39.410       100
39.420        73
39.430        47
39.440        60
39.450        60
39.460        40
39.470        47
39.480        73
39.490        60
39.500        87
39.510       107
39.520        67
39.530        40
39.540        93
39.550        87
39.560        87
39.570        47
39.580        80
39.590        87
39.600        80
39.610        53
39.620        67
39.630        67
39.640        60
39.650       107
39.660        53
39.670        40
39.680       120
39.690        73
39.700        80
39.710        87
39.720        60
39.730        67
39.740        53
39.750        80
39.760        47
39.770        20
39.780        80
39.790       107
39.800        80
39.810        20
39.820        27
39.830        73
39.840        40
39.850        53
39.860        53
39.870        93
39.880        87
39.890        53
39.900        27
39.910        40
39.920        40
39.930        60
39.940        40
39.950        53
39.960        67
39.970        73
39.980        53
39.990        53
40.000        80
40.010        93
40.020        53
40.030        87
40.040        87
40.050       100
40.060       113
40.070        67
40.080        60
40.090        93
40.100        40
40.110        53
40.120        67
40.130        33
40.140        40
40.150        47
40.160        93
40.170        93
40.180        73
40.190        53
40.200        53
40.210        40
40.220        73
40.230        60
40.240        87
40.250        73
40.260        33
40.270        53
40.280        40
40.290        60
40.300        33
40.310        67
40.320        47
40.330        60
40.340        73
40.350        33
40.360        73
40.370        47
40.380        67
40.390        20
40.400        33
40.410        73
40.420        67
40.430        53
40.440        80
40.450        80
40.460        60
40.470        60
40.480        40
40.490        33
40.500        33
40.510       100
40.520        47
40.530        33
40.540        53
40.550        67
40.560        53
40.570        33
40.580        47
40.590        33
40.600        53
40.610        67
40.620        53
40.630        67
40.640        40
40.650        40
40.660        47
40.670        53
40.680        87
40.690        40
40.700        47
40.710        53
40.720        60
40.730        67
40.740        60
40.750        40
40.760        40
40.770        33
40.780        80
40.790        80
40.800        73
40.810        27
40.820        73
40.830        73
40.840        67
40.850        67
40.860        67
40.870        47
40.880        27
40.890        47
40.900        60
40.910        80
40.920        47
40.930        67
40.940        60
40.950       100
40.960        47
40.970        93
40.980        27
40.990        60
41.000        47
41.010        60
41.020        27
41.030        60
41.040        40
41.050        33
41.060        73
41.070        73
41.080        47
41.090        47
41.100        33
41.110        13
41.120        67
41.130        60
41.140        73
41.150        33
41.160        60
41.170        47
41.180        87
41.190        60
41.200        27
41.210        13
41.220        67
41.230        27
41.240        80
41.250        67
41.260        53
41.270        40
41.280        40
41.290        73
41.300        13
41.310        67
41.320        33
41.330        53
41.340        73
41.350        47
41.360        20
41.370        27
41.380        53
41.390        47
41.400        53
41.410        33
41.420        40
41.430        40
41.440        73
41.450        47
41.460        40
41.470        47
41.480        60
41.490        33
41.500        60
41.510        53
41.520        53
41.530        47
41.540        53
41.550        33
41.560        40
41.570        40
41.580        60
41.590        13
41.600        53
41.610        13
41.620        33
41.630        27
41.640        60
41.650        53
41.660        33
41.670        33
41.680        67
41.690        40
41.700        80
41.710        53
41.720        53
41.730        87
41.740       127
41.750        80
41.760        60
41.770        33
41.780        73
41.790        40
41.800        47
41.810        73
41.820        20
41.830        80
41.840        73
41.850        53
41.860        87
41.870        47
41.880        67
41.890       107
41.900        60
41.910        67
41.920        53
41.930        27
41.940        47
41.950        73
41.960        40
41.970        47
41.980        67
41.990        60
42.000        67
42.010        73
42.020        60
42.030        33
42.040        73
42.050        80
42.060        33
42.070        60
42.080        47
42.090        47
42.100        87
42.110        53
42.120        60
42.130        60
42.140        60
42.150        33
42.160        53
42.170        47
42.180        47
42.190        33
42.200        73
42.210        73
42.220        47
42.230        20
42.240        60
42.250        47
42.260        47
42.270        87
42.280        33
42.290        47
42.300        33
42.310        33
42.320        67
42.330        73
42.340        33
42.350        40
42.360        13
42.370        40
42.380        67
42.390        67
42.400        40
42.410        27
42.420        40
42.430        40
42.440        60
42.450        40
42.460        33
42.470        53
42.480        53
42.490        53
42.500        60
42.510        40
42.520        73
42.530        20
42.540        53
42.550        53
42.560        47
42.570        27
42.580        27
42.590        53
42.600        47
42.610        47
42.620        67
42.630        40
42.640        33
42.650        47
42.660        33
42.670        60
42.680        47
42.690        27
42.700        60
42.710        67
42.720        27
42.730        53
42.740        33
42.750        33
42.760        40
42.770        73
42.780        33
42.790        93
42.800        60
42.810        27
42.820        20
42.830        40
42.840        27
42.850        73
42.860        20
42.870        27
42.880        47
42.890        47
42.900        53
42.910        40
42.920        53
42.930        47
42.940        20
42.950        73
42.960        33
42.970        33
42.980        40
42.990        47
43.000        53
43.010        20
43.020        47
43.030        53
43.040        60
43.050        20
43.060        27
43.070        53
43.080        20
43.090        53
43.100        40
43.110        87
43.120        47
43.130         7
43.140        60
43.150        67
43.160        53
43.170        40
43.180         7
43.190        53
43.200        40
43.210        60
43.220        47
43.230        60
43.240        67
43.250         7
43.260        80
43.270        20
43.280        47
43.290        47
43.300        27
43.310        53
43.320        20
43.330        53
43.340        40
43.350        40
43.360        47
43.370        53
43.380        27
43.390        53
43.400        80
43.410        47
43.420        40
43.430        27
43.440        33
43.450        33
43.460        73
43.470         7
43.480        67
43.490        47
43.500        40
43.510        20
43.520        40
43.530        53
43.540        40
43.550        40
43.560        40
43.570        40
43.580        87
43.590        33
43.600        47
43.610        40
43.620        33
43.630        20
43.640        40
43.650        40
43.660        60
43.670        20
43.680        20
43.690        53
43.700        60
43.710        27
43.720        40
43.730        80
43.740        53
43.750        27
43.760        40
43.770        27
43.780        53
43.790       100
43.800        13
43.810        27
43.820        20
43.830        47
43.840        33
43.850        47
43.860        27
43.870        27
43.880        47
43.890        53
43.900        20
43.910        47
43.920        33
43.930        33
43.940        47
43.950        47
43.960        33
43.970        27
43.980        33
43.990        87
44.000        33
44.010        80
44.020        33
44.030        27
44.040        80
44.050         7
44.060        33
44.070        53
44.080        33
44.090        47
44.100        47
44.110        47
44.120        33
44.130        33
44.140        33
44.150         7
44.160        33
44.170        27
44.180        40
44.190        40
44.200        20
44.210        40
44.220        47
44.230        73
44.240        47
44.250        40
44.260         0
44.270        47
44.280        73
44.290        20
44.300        67
44.310        33
44.320        33
44.330        33
44.340        67
44.350        33
44.360        40
44.370        47
44.380        47
44.390        33
44.400        40
44.410        40
44.420        40
44.430        33
44.440        33
44.450        47
44.460        47
44.470        47
44.480        33
44.490        47
44.500        27
44.510        33
44.520        20
44.530        33
44.540        27
44.550        33
44.560        47
44.570        27
44.580        40
44.590        27
44.600        53
44.610        80
44.620        27
44.630        47
44.640        27
44.650        67
44.660        40
44.670        33
44.680        27
44.690        47
44.700        20
44.710        33
44.720        33
44.730        53
44.740        47
44.750        53
44.760        67
44.770        13
44.780        73
44.790        47
44.800        27
44.810        20
44.820        33
44.830        27
44.840        47
44.850        27
44.860        33
44.870        33
44.880        20
44.890        20
44.900        47
44.910        47
44.920        47
44.930        53
44.940        73
44.950        27
44.960        67
44.970        47
44.980        53
44.990        53
45.000        47
45.010        47
45.020        27
45.030        67
45.040        20
45.050        33
45.060        40
45.070        53
45.080        20
45.090        27
45.100        40
45.110        33
45.120        40
45.130        47
45.140        47
45.150        20
45.160        47
45.170        47
45.180        33
45.190        27
45.200        53
45.210        40
45.220        27
45.230        40
45.240        20
45.250        33
45.260        53
45.270        13
45.280        40
45.290        47
45.300        47
45.310        20
45.320        33
45.330        53
45.340        27
45.350        33
45.360        67
45.370        53
45.380        33
45.390        73
45.400        33
45.410        47
45.420        33
45.430        40
45.440        27
45.450        40
45.460        33
45.470        40
45.480        20
45.490        20
45.500        20
45.510        53
45.520        27
45.530        13
45.540        20
45.550        53
45.560        27
45.570        53
45.580        40
45.590        20
45.600        47
45.610        60
45.620        13
45.630        40
45.640        33
45.650        40
45.660        20
45.670        40
45.680        47
45.690        20
45.700        13
45.710        53
45.720        33
45.730        27
45.740        33
45.750        67
45.760        47
45.770        40
45.780        33
45.790        27
45.800        13
45.810        33
45.820        53
45.830        33
45.840        27
45.850        47
45.860        20
45.870        33
45.880        40
45.890        27
45.900        27
45.910        40
45.920        27
45.930        53
45.940        40
45.950        53
45.960        40
45.970        40
45.980        27
45.990        40
46.000        40
46.010        33
46.020        60
46.030        20
46.040        47
46.050        67
46.060        33
46.070        27
46.080        40
46.090        40
46.100        60
46.110        47
46.120        27
46.130        40
46.140        20
46.150        20
46.160        27
46.170        73
46.180        67
46.190        27
46.200        53
46.210       100
46.220        40
46.230        20
46.240        40
46.250        60
46.260        60
46.270        53
46.280        20
46.290        33
46.300        13
46.310        27
46.320        13
46.330        47
46.340        20
46.350        47
46.360       107
46.370        60
46.380        53
46.390        40
46.400        40
46.410        53
46.420        33
46.430        27
46.440        87
46.450        40
46.460        27
46.470        73
46.480        67
46.490        40
46.500        33
46.510        20
46.520        67
46.530        20
46.540        67
46.550        40
46.560        53
46.570        53
46.580        47
46.590        27
46.600        40
46.610        20
46.620        53
46.630        47
46.640        33
46.650        80
46.660        87
46.670        53
46.680        40
46.690        33
46.700        67
46.710        33
46.720        40
46.730        40
46.740        27
46.750        60
46.760        67
46.770       113
46.780        80
46.790       107
46.800       140
46.810        80
46.820        93
46.830        80
46.840       107
46.850        60
46.860        40
46.870        73
46.880        60
46.890        87
46.900        93
46.910       120
46.920        73
46.930       127
46.940        93
46.950        93
46.960        73
46.970        73
46.980       120
46.990       147
47.000       100
47.010       173
47.020       107
47.030       113
47.040       147
47.050       160
47.060       133
47.070       227
47.080       167
47.090       180
47.100       187
47.110       233
47.120       320
47.130       360
47.140       367
47.150       573
47.160       913
47.170      1086
47.180      1633
47.190      1673
47.200      1899
47.210      2192
47.220      1899
47.230      1753
47.240      1333
47.250      1033
47.260       873
47.270       726
47.280       446
47.290       340
47.300       320
47.310       260
47.320       213
47.330       180
47.340       187
47.350       147
47.360       140
47.370       147
47.380       127
47.390       107
47.400       127
47.410        80
47.420       120
47.430        73
47.440       120
47.450        80
47.460       120
47.470       100
47.480        93
47.490       133
47.500       127
47.510        87
47.520       107
47.530        93
47.540        60
47.550       167
47.560        80
47.570       113
47.580        80
47.590        53
47.600       107
47.610        47
47.620        87
47.630        73
47.640        67
47.650        80
47.660        33
47.670        53
47.680        73
47.690        60
47.700        87
47.710        80
47.720        47
47.730        67
47.740        93
47.750        80
47.760        73
47.770        73
47.780        60
47.790        73
47.800        47
47.810        80
47.820        53
47.830        73
47.840        60
47.850        73
47.860        60
47.870        53
47.880        67
47.890        33
47.900        67
47.910        47
47.920        47
47.930        73
47.940        73
47.950        60
47.960        27
47.970        73
47.980        67
47.990        40
48.000        33
48.010        53
48.020        53
48.030        40
48.040        67
48.050        27
48.060        53
48.070        67
48.080        27
48.090        73
48.100        33
48.110        80
48.120        27
48.130        47
48.140        67
48.150        67
48.160        40
48.170        80
48.180        53
48.190        60
48.200        53
48.210        40
48.220        40
48.230        33
48.240        60
48.250        33
48.260        67
48.270        53
48.280        47
48.290        40
48.300        67
48.310        60
48.320        60
48.330        60
48.340        53
48.350        87
48.360        33
48.370        53
48.380        60
48.390        80
48.400        67
48.410        13
48.420        47
48.430        53
48.440        53
48.450        67
48.460        47
48.470        20
48.480        47
48.490        20
48.500        33
48.510        73
48.520        27
48.530        60
48.540        40
48.550        87
48.560        73
48.570        67
48.580        40
48.590        27
48.600        40
48.610        40
48.620        67
48.630        60
48.640        53
48.650        40
48.660        20
48.670        40
48.680        40
48.690        47
48.700        40
48.710        40
48.720        67
48.730        20
48.740        20
48.750        47
48.760        47
48.770        33
48.780        40
48.790        60
48.800        47
48.810        60
48.820        47
48.830        87
48.840        27
48.850        40
48.860        67
48.870        53
48.880        73
48.890        27
48.900        60
48.910        27
48.920        20
48.930        40
48.940       113
48.950        40
48.960        40
48.970        47
48.980        33
48.990        33
49.000        53
49.010        33
49.020        40
49.030        27
49.040        73
49.050        33
49.060        40
49.070        53
49.080        27
49.090        60
49.100        47
49.110        60
49.120        40
49.130        47
49.140        47
49.150        87
49.160        47
49.170        53
49.180        20
49.190        33
49.200        27
49.210        20
49.220        67
49.230        53
49.240        73
49.250        67
49.260        40
49.270        47
49.280        40
49.290        67
49.300        13
49.310        53
49.320        33
49.330        80
49.340        40
49.350        53
49.360        40
49.370        53
49.380        27
49.390        40
49.400        40
49.410        60
49.420        53
49.430        47
49.440        27
49.450        60
49.460        40
49.470        33
49.480        80
49.490        20
49.500        40
49.510        27
49.520        47
49.530        40
49.540        20
49.550        47
49.560        53
49.570        33
49.580        27
49.590        33
49.600        20
49.610        40
49.620        33
49.630        20
49.640        13
49.650        33
49.660        27
49.670        53
49.680        53
49.690        33
49.700        73
49.710        40
49.720        33
49.730        53
49.740        53
49.750        13
49.760        33
49.770        27
49.780        53
49.790        33
49.800        20
49.810        47
49.820        40
49.830        67
49.840        40
49.850        33
49.860        47
49.870        53
49.880        40
49.890        67
49.900        40
49.910        47
49.920        33
49.930        40
49.940        40
49.950        20
49.960        27
49.970        53
49.980        60
49.990        53
50.000        33
50.010        40
50.020        47
50.030        67
50.040        20
50.050        40
50.060        67
50.070        40
50.080        87
50.090        47
50.100        73
50.110        40
50.120        53
50.130        73
50.140        33
50.150        60
50.160        53
50.170        27
50.180        27
50.190        20
50.200        13
50.210        67
50.220        60
50.230        53
50.240        53
50.250        67
50.260        20
50.270        47
50.280         7
50.290        33
50.300        33
50.310        40
50.320        20
50.330        20
50.340        53
50.350        27
50.360        60
50.370        87
50.380        33
50.390        47
50.400        33
50.410        27
50.420         7
50.430        53
50.440        60
50.450        53
50.460        80
50.470        47
50.480        40
50.490        33
50.500        20
50.510        40
50.520        53
50.530        47
50.540        60
50.550        60
50.560        27
50.570        53
50.580        87
50.590        87
50.600        93
50.610        53
50.620       100
50.630       113
50.640        93
50.650       147
50.660       227
50.670       267
50.680       260
50.690       313
50.700       327
50.710       420
50.720       440
50.730       460
50.740       446
50.750       466
50.760       460
50.770       393
50.780       393
50.790       493
50.800       573
50.810       500
50.820       413
50.830       506
50.840       580
50.850       500
50.860       586
50.870       506
50.880       513
50.890       506
50.900       533
50.910       506
50.920       480
50.930       453
50.940       440
50.950       486
50.960       580
50.970       526
50.980       460
50.990       573
51.000       407
51.010       513
51.020       533
51.030       526
51.040       500
51.050       446
51.060       500
51.070       506
51.080       620
51.090       506
51.100       546
51.110       400
51.120       593
51.130       486
51.140       466
51.150       480
51.160       546
51.170       520
51.180       446
51.190       466
51.200       433
51.210       573
51.220       353
51.230       573
51.240       480
51.250       453
51.260       520
51.270       533
51.280       473
51.290       560
51.300       506
51.310       526
51.320       500
51.330       580
51.340       500
51.350       520
51.360       600
51.370       546
51.380       466
51.390       413
51.400       500
51.410       460
51.420       546
51.430       626
51.440       606
51.450       493
51.460       473
51.470       626
51.480       526
51.490       446
51.500       600
51.510       513
51.520       533
51.530       580
51.540       573
51.550       626
51.560       440
51.570       533
51.580       440
51.590       473
51.600       600
51.610       586
51.620       493
51.630       600
51.640       480
51.650       493
51.660       460
51.670       473
51.680       493
51.690       673
51.700       540
51.710       500
51.720       580
51.730       526
51.740       480
51.750       526
51.760       646
51.770       646
51.780       593
51.790       480
51.800       606
51.810       566
51.820       546
51.830       566
51.840       520
51.850       686
51.860       526
51.870       680
51.880       693
51.890       593
51.900       673
51.910       686
51.920       680
51.930       586
51.940       660
51.950       600
51.960       780
51.970       640
51.980       580
51.990       726
52.000       633
52.010       720
52.020       813
52.030       773
52.040       593
52.050       886
52.060       766
52.070       920
52.080       800
52.090       880
52.100       820
52.110       920
52.120       933
52.130       960
52.140       900
52.150       953
52.160       786
52.170       926
52.180       953
52.190       993
52.200      1000
52.210      1160
52.220      1146
52.230      1279
52.240      1366
52.250      1526
52.260      1553
52.270      1573
52.280      1759
52.290      2119
52.300      2332
52.310      2586
52.320      3259
52.330      3699
52.340      4098
52.350      5038
52.360      6277
52.370      6697
52.380      7337
52.390      7957
52.400      9123
52.410      9809
52.420     10542
52.430     11016
52.440     11395
52.450     11675
52.460     12362
52.470     13555
52.480     14607
52.490     15894
52.500     17546
52.510     20518
52.520     25003
52.530     32227
52.540     47594
52.550     74137
52.560    111715
52.570    149647
52.580    179188
52.590    196881
52.600    206444
52.610    206884
52.620    199300
52.630    177162
52.640    142316
52.650    103212
52.660     71885
52.670     54052
52.680     49953
52.690     54758
52.700     71265
52.710     91144
52.720    106484
52.730    119592
52.740    124397
52.750    123157
52.760    118633
52.770    101180
52.780     81714
52.790     57337
52.800     37845
52.810     24970
52.820     16873
52.830     12755
52.840     10023
52.850      8490
52.860      7157
52.870      6244
52.880      5258
52.890      4605
52.900      3998
52.910      3765
52.920      2999
52.930      2939
52.940      2559
52.950      2306
52.960      2092
52.970      2186
52.980      1839
52.990      1926
53.000      1706
53.010      1839
53.020      1919
53.030      1593
53.040      1306
53.050      1486
53.060      1359
53.070      1419
53.080      1306
53.090      1173
53.100      1200
53.110      1073
53.120       940
53.130      1240
53.140      1106
53.150       953
53.160      1013
53.170       993
53.180       893
53.190       886
53.200      1006
53.210       880
53.220       786
53.230       900
53.240       920
53.250       880
53.260       813
53.270       680
53.280       840
53.290       773
53.300       760
53.310      1020
53.320       606
53.330       726
53.340       720
53.350       720
53.360       806
53.370       706
53.380       680
53.390       693
53.400       620
53.410       686
53.420       540
53.430       686
53.440       673
53.450       606
53.460       666
53.470       646
53.480       566
53.490       626
53.500       593
53.510       760
53.520       566
53.530       540
53.540       626
53.550       640
53.560       506
53.570       453
53.580       546
53.590       553
53.600       553
53.610       606
53.620       546
53.630       593
53.640       520
53.650       553
53.660       533
53.670       520
53.680       500
53.690       600
53.700       426
53.710       546
53.720       400
53.730       486
53.740       586
53.750       526
53.760       560
53.770       506
53.780       440
53.790       433
53.800       413
53.810       486
53.820       480
53.830       513
53.840       440
53.850       506
53.860       460
53.870       473
53.880       486
53.890       453
53.900       433
53.910       460
53.920       513
53.930       413
53.940       540
53.950       473
53.960       380
53.970       480
53.980       426
53.990       373
54.000       440
54.010       313
54.020       393
54.030       413
54.040       407
54.050       400
54.060       373
54.070       473
54.080       533
54.090       380
54.100       440
54.110       420
54.120       420
54.130       400
54.140       413
54.150       466
54.160       500
54.170       460
54.180       393
54.190       353
54.200       433
54.210       327
54.220       373
54.230       380
54.240       407
54.250       433
54.260       347
54.270       387
54.280       293
54.290       353
54.300       453
54.310       293
54.320       440
54.330       387
54.340       520
54.350       307
54.360       327
54.370       407
54.380       360
54.390       353
54.400       407
54.410       373
54.420       367
54.430       367
54.440       413
54.450       347
54.460       393
54.470       380
54.480       313
54.490       393
54.500       413
54.510       313
54.520       327
54.530       333
54.540       360
54.550       327
54.560       307
54.570       400
54.580       367
54.590       360
54.600       387
54.610       307
54.620       340
54.630       380
54.640       466
54.650       380
54.660       340
54.670       333
54.680       393
54.690       340
54.700       333
54.710       373
54.720       360
54.730       466
54.740       273
54.750       393
54.760       340
54.770       313
54.780       293
54.790       347
54.800       360
54.810       280
54.820       287
54.830       320
54.840       320
54.850       347
54.860       253
54.870       327
54.880       273
54.890       360
54.900       347
54.910       453
54.920       267
54.930       360
54.940       387
54.950       360
54.960       360
54.970       327
54.980       327
54.990       347
55.000       353
55.010       347
55.020       273
55.030       267
55.040       280
55.050       287
55.060       300
55.070       387
55.080       293
55.090       253
55.100       340
55.110       300
55.120       300
55.130       273
55.140       360
55.150       300
55.160       280
55.170       253
55.180       287
55.190       293
55.200       287
55.210       273
55.220       280
55.230       313
55.240       413
55.250       307
55.260       333
55.270       393
55.280       267
55.290       280
55.300       247
55.310       280
55.320       347
55.330       300
55.340       313
55.350       233
55.360       327
55.370       313
55.380       360
55.390       240
55.400       287
55.410       280
55.420       280
55.430       313
55.440       313
55.450       287
55.460       327
55.470       273
55.480       207
55.490       267
55.500       347
55.510       227
55.520       267
55.530       333
55.540       340
55.550       327
55.560       373
55.570       280
55.580       267
55.590       353
55.600       340
55.610       253
55.620       307
55.630       367
55.640       267
55.650       293
55.660       220
55.670       260
55.680       260
55.690       247
55.700       213
55.710       233
55.720       220
55.730       273
55.740       280
55.750       307
55.760       273
55.770       307
55.780       293
55.790       273
55.800       227
55.810       220
55.820       287
55.830       307
55.840       207
55.850       260
55.860       267
55.870       293
55.880       260
55.890       327
55.900       260
55.910       253
55.920       213
55.930       280
55.940       267
55.950       333
55.960       247
55.970       327
55.980       327
55.990       260
56.000       280
56.010       280
56.020       267
56.030       220
56.040       273
56.050       260
56.060       260
56.070       380
56.080       173
56.090       333
56.100       260
56.110       340
56.120       313
56.130       240
56.140       293
56.150       300
56.160       220
56.170       167
56.180       220
56.190       300
56.200       200
56.210       287
56.220       260
56.230       280
56.240       260
56.250       180
56.260       287
56.270       280
56.280       287
56.290       320
56.300       233
56.310       233
56.320       307
56.330       227
56.340       260
56.350       260
56.360       267
56.370       287
56.380       260
56.390       280
56.400       233
56.410       267
56.420       247
56.430       240
56.440       227
56.450       227
56.460       233
56.470       220
56.480       167
56.490       273
56.500       253
56.510       293
56.520       253
56.530       207
56.540       360
56.550       260
56.560       200
56.570       240
56.580       273
56.590       167
56.600       267
56.610       260
56.620       200
56.630       253
56.640       200
56.650       180
56.660       260
56.670       260
56.680       293
56.690       227
56.700       293
56.710       293
56.720       207
56.730       247
56.740       280
56.750       253
56.760       233
56.770       220
56.780       220
56.790       260
56.800       187
56.810       200
56.820       227
56.830       207
56.840       220
56.850       253
56.860       233
56.870       187
56.880       280
56.890       253
56.900       347
56.910       167
56.920       140
56.930       167
56.940       207
56.950       280
56.960       240
56.970       193
56.980       220
56.990       207
57.000       260
57.010       240
57.020       300
57.030       260
57.040       220
57.050       220
57.060       193
57.070       233
57.080       273
57.090       180
57.100       147
57.110       227
57.120       227
57.130       260
57.140       220
57.150       207
57.160       253
57.170       233
57.180       253
57.190       287
57.200       267
57.210       207
57.220       167
57.230       200
57.240       207
57.250       220
57.260       260
57.270       233
57.280       193
57.290       260
57.300       153
57.310       220
57.320       253
57.330       247
57.340       340
57.350       280
57.360       227
57.370       240
57.380       240
57.390       260
57.400       193
57.410       167
57.420       253
57.430       247
57.440       187
57.450       293
57.460       280
57.470       260
57.480       267
57.490       200
57.500       240
57.510       200
57.520       107
57.530       207
57.540       207
57.550       227
57.560       220
57.570       167
57.580       160
57.590       233
57.600       167
57.610       247
57.620       207
57.630       273
57.640       260
57.650       207
57.660       207
57.670       193
57.680       220
57.690       160
57.700       173
57.710       287
57.720       193
57.730       200
57.740       167
57.750       240
57.760       167
57.770       187
57.780       247
57.790       167
57.800       153
57.810       200
57.820       193
57.830       213
57.840       187
57.850       220
57.860       173
57.870       207
57.880       160
57.890       207
57.900       200
57.910       180
57.920       180
57.930       267
57.940       267
57.950       200
57.960       173
57.970       187
57.980       233
57.990       273
58.000       207
58.010       200
58.020       247
58.030       193
58.040       207
58.050       213
58.060       247
58.070       213
58.080       200
58.090       160
58.100       227
58.110       187
58.120       200
58.130       233
58.140       187
58.150       180
58.160       180
58.170       147
58.180       267
58.190       180
58.200       207
58.210       180
58.220       233
58.230       147
58.240       193
58.250       240
58.260       180
58.270       187
58.280       213
58.290       153
58.300       160
58.310       180
58.320       173
58.330       140
58.340       180
58.350       180
58.360       180
58.370       187
58.380       200
58.390       220
58.400       187
58.410       227
58.420       207
58.430       180
58.440       200
58.450       180
58.460       133
58.470       160
58.480       173
58.490       153
58.500       187
58.510       160
58.520       167
58.530       207
58.540       153
58.550       147
58.560       233
58.570       180
58.580       160
58.590       140
58.600       160
58.610       213
58.620       167
58.630       200
58.640       160
58.650       180
58.660       180
58.670       227
58.680       127
58.690       147
58.700       187
58.710       147
58.720       120
58.730       167
58.740       127
58.750       127
58.760       133
58.770       140
58.780       193
58.790       200
58.800       167
58.810       220
58.820       200
58.830       173
58.840       207
58.850       200
58.860       187
58.870       120
58.880       167
58.890       167
58.900       213
58.910       207
58.920       180
58.930       187
58.940       147
58.950       193
58.960       167
58.970       280
58.980       160
58.990       133
59.000       180
59.010       133
59.020       187
59.030       193
59.040       113
59.050       120
59.060       200
59.070       127
59.080       147
59.090       187
59.100       120
59.110       133
59.120       127
59.130       147
59.140       147
59.150       187
59.160       200
59.170       153
59.180       113
59.190       193
59.200       133
59.210       220
59.220       133
59.230       180
59.240       173
59.250       213
59.260       147
59.270       113
59.280       173
59.290       193
59.300       187
59.310       133
59.320       167
59.330       160
59.340       173
59.350       153
59.360       193
59.370       200
59.380       193
59.390       187
59.400       153
59.410       160
59.420       127
59.430       173
59.440       107
59.450       187
59.460       193
59.470       153
59.480       193
59.490       207
59.500       207
59.510       187
59.520       127
59.530       147
59.540       193
59.550       153
59.560       120
59.570       173
59.580        53
59.590       140
59.600       160
59.610       167
59.620       193
59.630       153
59.640       113
59.650       187
59.660       133
59.670       140
59.680       153
59.690       207
59.700       160
59.710       193
59.720       167
59.730       187
59.740       147
59.750       180
59.760       167
59.770       113
59.780       120
59.790       153
59.800       193
59.810       240
59.820       147
59.830       173
59.840        93
59.850       120
59.860       200
59.870       173
59.880       133
59.890       113
59.900       173
59.910       133
59.920       127
59.930       220
59.940       147
59.950       180
59.960       233
59.970        80
59.980        93
59.990        80
60.000        80
