20.000       150
20.020       150
20.040       260
20.060       243
20.080       287
20.100       233
20.120       267
20.140       293
20.160       287
20.180       250
20.200       267
20.220       200
20.240       243
20.260       250
20.280       273
20.300       267
20.320       243
20.340       283
20.360       277
20.380       230
20.400       213
20.420       243
20.440       243
20.460       287
20.480       273
20.500       230
20.520       243
20.540       237
20.560       260
20.580       247
20.600       243
20.620       277
20.640       270
20.660       287
20.680       303
20.700       247
20.720       257
20.740       237
20.760       247
20.780       253
20.800       267
20.820       267
20.840       247
20.860       317
20.880       250
20.900       303
20.920       273
20.940       343
20.960       253
20.980       263
21.000       243
21.020       243
21.040       277
21.060       237
21.080       273
21.100       223
21.120       263
21.140       260
21.160       203
21.180       297
21.200       240
21.220       237
21.240       240
21.260       250
21.280       230
21.300       250
21.320       173
21.340       197
21.360       193
21.380       257
21.400       273
21.420       200
21.440       273
21.460       243
21.480       233
21.500       230
21.520       237
21.540       203
21.560       213
21.580       260
21.600       230
21.620       240
21.640       217
21.660       190
21.680       287
21.700       273
21.720       207
21.740       197
21.760       207
21.780       273
21.800       247
21.820       233
21.840       210
21.860       287
21.880       240
21.900       207
21.920       227
21.940       170
21.960       280
21.980       213
22.000       220
22.020       240
22.040       273
22.060       193
22.080       267
22.100       207
22.120       213
22.140       200
22.160       213
22.180       217
22.200       277
22.220       267
22.240       210
22.260       243
22.280       247
22.300       263
22.320       210
22.340       257
22.360       210
22.380       203
22.400       177
22.420       233
22.440       223
22.460       220
22.480       217
22.500       263
22.520       233
22.540       230
22.560       250
22.580       260
22.600       207
22.620       200
22.640       237
22.660       217
22.680       207
22.700       290
22.720       173
22.740       197
22.760       207
22.780       267
22.800       160
22.820       200
22.840       200
22.860       227
22.880       220
22.900       203
22.920       197
22.940       233
22.960       200
22.980       230
23.000       290
23.020       193
23.040       260
23.060       203
23.080       170
23.100       183
23.120       173
23.140       210
23.160       170
23.180       233
23.200       173
23.220       180
23.240       213
23.260       170
23.280       277
23.300       173
23.320       263
23.340       200
23.360       190
23.380       200
23.400       210
23.420       207
23.440       190
23.460       173
23.480       257
23.500       230
23.520       203
23.540       223
23.560       207
23.580       200
23.600       180
23.620       237
23.640       193
23.660       210
23.680       210
23.700       220
23.720       253
23.740       230
23.760       240
23.780       163
23.800       187
23.820       200
23.840       233
23.860       177
23.880       207
23.900       180
23.920       177
23.940       180
23.960       193
23.980       183
24.000       203
24.020       197
24.040       170
24.060       183
24.080       213
24.100       190
24.120       210
24.140       200
24.160       173
24.180       197
24.200       113
24.220       193
24.240       163
24.260       187
24.280       177
24.300       160
24.320       193
24.340       193
24.360       197
24.380       203
24.400       233
24.420       223
24.440       240
24.460       217
24.480       180
24.500       163
24.520       160
24.540       210
24.560       200
24.580       190
24.600       200
24.620       207
24.640       220
24.660       213
24.680       207
24.700       187
24.720       197
24.740       213
24.760       190
24.780       190
24.800       167
24.820       213
24.840       190
24.860       157
24.880       157
24.900       143
24.920       150
24.940       157
24.960       170
24.980       190
25.000       207
25.020       173
25.040       147
25.060       133
25.080       197
25.100       163
25.120       213
25.140       187
25.160       200
25.180       237
25.200       203
25.220       190
25.240       213
25.260       167
25.280       173
25.300       190
25.320       180
25.340       153
25.360       190
25.380       177
25.400       213
25.420       220
25.440       220
25.460       230
25.480       220
25.500       240
25.520       257
25.540       283
25.560       233
25.580       330
25.600       433
25.620       476
25.640       486
25.660       390
25.680       383
25.700       293
25.720       330
25.740       250
25.760       243
25.780       280
25.800       303
25.820       313
25.840       247
25.860       323
25.880       260
25.900       310
25.920       277
25.940       257
25.960       153
25.980       170
26.000       240
26.020       167
26.040       153
26.060       153
26.080       177
26.100       197
26.120       137
26.140       207
26.160       137
26.180       197
26.200       143
26.220       207
26.240       153
26.260       147
26.280       163
26.300       197
26.320       140
26.340       137
26.360       200
26.380       183
26.400       173
26.420       190
26.440       217
26.460       107
26.480       117
26.500       157
26.520       173
26.540       103
26.560       130
26.580       143
26.600       143
26.620       133
26.640       163
26.660       133
26.680       113
26.700       123
26.720       193
26.740       143
26.760       163
26.780       170
26.800       143
26.820       157
26.840       147
26.860       140
26.880       140
26.900       137
26.920       173
26.940       153
26.960       133
26.980       173
27.000       173
27.020       133
27.040       147
27.060       117
27.080       127
27.100       150
27.120       150
27.140       203
27.160       147
27.180       140
27.200       147
27.220       123
27.240       103
27.260       190
27.280       157
27.300       173
27.320       177
27.340       133
27.360       107
27.380       160
27.400       190
27.420       187
27.440       133
27.460       167
27.480       140
27.500       153
27.520       163
27.540       127
27.560       140
27.580       133
27.600       147
27.620       160
27.640       123
27.660       160
27.680       140
27.700       160
27.720       150
27.740       143
27.760       130
27.780       120
27.800       117
27.820       150
27.840       183
27.860       180
27.880       173
27.900       173
27.920       173
27.940       187
27.960       133
27.980       150
28.000       157
28.020       170
28.040       120
28.060       143
28.080       117
28.100       180
28.120       170
28.140       143
28.160       143
28.180       150
28.200       173
28.220       143
28.240       160
28.260       113
28.280       153
28.300       137
28.320        97
28.340       160
28.360       163
28.380       150
28.400       123
28.420       110
28.440       140
28.460       120
28.480       123
28.500       150
28.520       100
28.540       167
28.560       130
28.580       113
28.600       150
28.620       133
28.640       153
28.660       133
28.680       203
28.700       147
28.720       143
28.740       183
28.760       183
28.780       140
28.800       193
28.820       127
28.840       130
28.860       147
28.880       143
28.900       207
28.920       183
28.940       193
28.960       150
28.980       200
29.000       190
29.020       173
29.040       230
29.060       237
29.080       283
29.100       217
29.120       207
29.140       227
29.160       227
29.180       177
29.200       173
29.220       220
29.240       177
29.260       153
29.280       147
29.300       187
29.320       163
29.340       153
29.360       183
29.380       150
29.400       173
29.420       120
29.440       140
29.460       147
29.480       137
29.500       223
29.520       190
29.540       223
29.560       187
29.580       250
29.600       310
29.620       307
29.640       300
29.660       310
29.680       223
29.700       273
29.720       280
29.740       230
29.760       190
29.780       217
29.800       160
29.820       193
29.840       120
29.860       103
29.880       103
29.900       107
29.920       137
29.940       123
29.960       120
29.980        97
30.000       107
30.020       100
30.040       113
30.060        87
30.080       100
30.100       103
30.120       100
30.140       107
30.160       107
30.180        83
30.200       123
30.220       120
30.240       113
30.260       120
30.280       103
30.300       127
30.320       120
30.340        80
30.360       120
30.380       107
30.400       120
30.420       133
30.440       147
30.460       163
30.480       197
30.500       150
30.520       140
30.540       150
30.560       120
30.580       170
30.600       157
30.620       130
30.640       173
30.660       140
30.680       133
30.700       137
30.720       103
30.740       130
30.760        73
30.780       133
30.800       117
30.820        93
30.840        87
30.860        90
30.880       113
30.900       100
30.920        97
30.940       120
30.960       130
30.980       137
31.000       133
31.020       107
31.040       103
31.060       113
31.080       123
31.100       130
31.120       133
31.140        67
31.160       107
31.180       137
31.200        80
31.220       127
31.240       110
31.260       107
31.280       113
31.300       130
31.320        97
31.340       117
31.360       123
31.380       107
31.400        87
31.420       147
31.440       110
31.460       120
31.480       143
31.500        90
31.520       140
31.540        87
31.560       147
31.580       123
31.600       160
31.620       107
31.640       127
31.660       110
31.680        93
31.700       120
31.720       123
31.740       113
31.760       107
31.780       107
31.800       123
31.820        83
31.840        87
31.860       110
31.880       110
31.900        97
31.920       120
31.940       133
31.960       153
31.980       120
32.000       107
32.020       133
32.040       117
32.060       140
32.080       107
32.100       160
32.120       113
32.140       140
32.160       177
32.180       207
32.200       167
32.220       157
32.240       187
32.260       190
32.280       177
32.300       227
32.320       187
32.340       170
32.360        87
32.380       170
32.400       163
32.420       127
32.440        90
32.460       147
32.480       137
32.500        87
32.520       160
32.540        93
32.560       140
32.580       127
32.600       100
32.620        83
32.640       103
32.660       100
32.680        80
32.700        87
32.720       127
32.740       123
32.760        70
32.780       103
32.800        57
32.820       120
32.840        87
32.860       120
32.880        93
32.900        90
32.920        77
32.940        53
32.960       107
32.980        60
33.000       107
33.020       130
33.040       117
33.060        80
33.080        63
33.100       100
33.120       103
33.140        80
33.160        80
33.180        97
33.200        93
33.220        73
33.240        70
33.260       120
33.280       117
33.300        83
33.320        90
33.340       110
33.360        80
33.380       107
33.400        97
33.420       107
33.440        97
33.460        77
33.480       100
33.500        77
33.520        73
33.540        73
33.560        97
33.580       100
33.600       110
33.620        77
33.640        97
33.660        70
33.680       103
33.700        87
33.720        83
33.740       113
33.760        70
33.780        67
33.800        50
33.820       110
33.840       103
33.860        93
33.880        47
33.900        97
33.920       130
33.940        73
33.960        83
33.980        70
34.000        83
34.020       117
34.040        80
34.060       113
34.080        93
34.100        93
34.120        83
34.140       107
34.160       100
34.180        80
34.200       103
34.220       100
34.240        83
34.260        77
34.280        73
34.300       100
34.320        93
34.340       137
34.360       117
34.380        93
34.400        93
34.420        80
34.440       103
34.460        93
34.480       107
34.500        83
34.520        80
34.540        97
34.560        90
34.580       107
34.600        70
34.620       100
34.640        63
34.660        97
34.680       100
34.700        93
34.720       103
34.740        77
34.760       110
34.780       120
34.800       123
34.820        93
34.840       107
34.860       123
34.880        83
34.900        93
34.920        83
34.940       127
34.960       100
34.980        77
35.000        93
35.020       133
35.040        77
35.060        80
35.080        97
35.100        87
35.120        73
35.140       103
35.160        93
35.180        97
35.200        70
35.220        87
35.240        80
35.260       113
35.280        90
35.300        90
35.320        83
35.340        77
35.360        53
35.380        77
35.400        90
35.420       110
35.440        80
35.460        90
35.480        90
35.500        73
35.520       110
35.540        70
35.560        60
35.580        73
35.600        80
35.620       113
35.640        70
35.660       110
35.680       120
35.700       110
35.720        83
35.740       117
35.760        83
35.780       110
35.800       157
35.820       100
35.840       103
35.860        93
35.880        73
35.900        73
35.920        77
35.940        97
35.960        97
35.980       110
36.000        70
36.020        63
36.040        93
36.060        77
36.080       100
36.100        77
36.120        70
36.140        80
36.160       110
36.180        83
36.200        80
36.220        77
36.240        87
36.260        90
36.280       100
36.300        97
36.320        80
36.340        67
36.360        97
36.380        50
36.400        90
36.420        83
36.440        67
36.460        57
36.480        60
36.500        97
36.520        67
36.540        97
36.560       103
36.580        43
36.600        53
36.620       107
36.640        97
36.660        70
36.680        73
36.700        63
36.720        90
36.740        90
36.760        93
36.780       123
36.800        60
36.820        83
36.840       123
36.860       117
36.880        83
36.900        83
36.920        77
36.940        87
36.960        77
36.980        77
37.000        83
37.020        73
37.040        73
37.060        67
37.080        53
37.100        83
37.120        67
37.140        73
37.160        73
37.180        50
37.200        70
37.220        73
37.240        83
37.260       100
37.280        73
37.300        83
37.320        83
37.340        57
37.360        90
37.380       117
37.400        80
37.420        90
37.440        87
37.460        67
37.480        53
37.500        90
37.520        83
37.540       113
37.560        73
37.580       103
37.600        97
37.620        80
37.640        80
37.660       110
37.680        83
37.700        73
37.720        90
37.740       100
37.760       123
37.780        80
37.800        60
37.820        90
37.840        73
37.860        73
37.880        47
37.900        73
37.920        70
37.940        67
37.960        53
37.980        93
38.000        90
38.020        93
38.040        60
38.060        70
38.080       107
38.100        80
38.120        67
38.140        90
38.160       123
38.180        87
38.200       107
38.220        93
38.240       100
38.260        67
38.280       103
38.300        47
38.320        93
38.340        93
38.360       107
38.380        53
38.400        87
38.420        60
38.440        53
38.460        63
38.480       100
38.500        93
38.520        77
38.540        80
38.560        77
38.580        97
38.600        63
38.620        77
38.640        67
38.660        67
38.680        93
38.700        87
38.720        67
38.740        80
38.760        73
38.780        93
38.800        93
38.820        80
38.840        93
38.860       103
38.880        80
38.900        93
38.920       107
38.940       120
38.960       103
38.980       117
39.000        97
39.020       100
39.040       130
39.060       117
39.080       120
39.100       143
39.120       117
39.140       143
39.160       107
39.180       130
39.200       113
39.220       120
39.240       110
39.260        97
39.280       107
39.300        77
39.320       113
39.340        90
39.360        97
39.380        70
39.400       110
39.420       120
39.440        63
39.460        53
39.480        83
39.500        83
39.520       103
39.540        57
39.560        73
39.580        90
39.600        80
39.620        77
39.640        83
39.660        73
39.680        73
39.700       107
39.720        70
39.740        70
39.760        73
39.780        93
39.800        90
39.820        87
39.840        83
39.860        80
39.880        93
39.900        80
39.920        97
39.940        57
39.960        73
39.980        77
40.000        90
40.020        67
40.040        80
40.060       100
40.080        60
40.100        90
40.120        83
40.140        83
40.160       107
40.180        70
40.200        60
40.220        87
40.240        83
40.260       127
40.280        83
40.300        77
40.320        63
40.340       113
40.360        73
40.380        53
40.400       103
40.420        83
40.440        63
40.460        73
40.480        87
40.500        77
40.520        87
40.540        63
40.560        53
40.580        50
40.600        70
40.620        83
40.640        87
40.660        93
40.680        83
40.700       130
40.720        57
40.740        73
40.760       120
40.780        73
40.800        50
40.820        77
40.840        33
40.860        60
40.880        87
40.900        90
40.920        93
40.940        90
40.960        70
40.980        70
41.000        63
41.020        77
41.040        57
41.060        77
41.080        60
41.100        83
41.120        70
41.140        83
41.160        47
41.180        73
41.200        70
41.220        97
41.240       137
41.260        77
41.280        70
41.300        63
41.320        80
41.340        50
41.360        80
41.380        57
41.400       100
41.420        73
41.440        77
41.460       113
41.480        73
41.500        50
41.520        93
41.540       117
41.560        47
41.580        67
41.600        73
41.620       110
41.640        90
41.660        70
41.680        87
41.700        80
41.720        60
41.740        73
41.760        83
41.780        80
41.800       110
41.820       117
41.840        63
41.860       117
41.880        80
41.900       127
41.920        83
41.940        80
41.960        77
41.980       133
42.000        63
42.020        77
42.040        87
42.060        73
42.080        97
42.100        93
42.120        87
42.140        70
42.160        97
42.180        83
42.200        93
42.220        83
42.240        87
42.260        67
42.280       100
42.300       117
42.320        83
42.340       123
42.360        90
42.380       100
42.400       143
42.420       113
42.440       123
42.460       103
42.480       100
42.500       120
42.520        90
42.540       103
42.560       103
42.580        80
42.600        93
42.620        60
42.640        90
42.660        63
42.680        87
42.700        87
42.720        80
42.740       113
42.760        70
42.780        83
42.800        70
42.820       103
42.840        53
42.860       127
42.880       100
42.900       123
42.920        67
42.940       103
42.960       110
42.980       113
43.000        70
43.020        87
43.040        90
43.060       137
43.080       110
43.100        77
43.120       113
43.140       110
43.160        67
43.180        70
43.200        97
43.220       100
43.240       117
43.260        67
43.280        67
43.300        97
43.320        70
43.340        90
43.360        63
43.380        63
43.400        83
43.420        80
43.440        97
43.460        60
43.480        77
43.500        67
43.520        93
43.540        63
43.560        73
43.580        60
43.600        83
43.620        63
43.640        50
43.660       110
43.680       113
43.700        80
43.720        87
43.740        50
43.760        77
43.780       107
43.800        60
43.820        83
43.840        73
43.860        80
43.880       100
43.900        67
43.920       103
43.940        60
43.960        87
43.980       110
44.000        70
44.020        70
44.040        67
44.060        93
44.080        87
44.100       100
44.120        80
44.140        77
44.160        83
44.180        80
44.200       127
44.220        77
44.240        90
44.260       120
44.280        77
44.300        60
44.320        73
44.340        70
44.360       117
44.380        73
44.400       100
44.420        73
44.440        67
44.460        97
44.480        73
44.500        73
44.520       103
44.540        80
44.560        73
44.580        90
44.600        60
44.620        73
44.640        50
44.660        73
44.680        70
44.700        80
44.720        83
44.740        73
44.760        90
44.780        80
44.800        77
44.820        53
44.840        57
44.860        90
44.880        80
44.900       100
44.920        57
44.940        73
44.960       107
44.980        73
45.000        63
45.020        77
45.040        57
45.060        67
45.080        87
45.100       110
45.120        93
45.140        80
45.160       100
45.180        83
45.200       153
45.220        67
45.240        93
45.260        57
45.280        80
45.300       120
45.320        80
45.340        80
45.360        73
45.380        93
45.400       127
45.420        93
45.440        73
45.460        93
45.480        87
45.500        63
45.520        93
45.540        63
45.560        60
45.580        30
45.600       133
45.620        67
45.640       107
45.660       103
45.680       110
45.700        70
45.720        73
45.740        73
45.760        70
45.780        80
45.800        90
45.820        67
45.840       100
45.860        53
45.880        83
45.900       100
45.920        93
45.940        97
45.960        87
45.980        83
46.000        73
46.020        97
46.040        70
46.060       113
46.080        90
46.100       120
46.120        83
46.140       103
46.160       140
46.180       107
46.200       127
46.220        93
46.240        93
46.260       103
46.280       137
46.300       107
46.320        97
46.340       110
46.360        83
46.380       113
46.400        93
46.420        87
46.440        90
46.460       100
46.480        97
46.500       117
46.520        80
46.540       113
46.560        90
46.580       113
46.600        80
46.620        83
46.640        93
46.660       103
46.680        80
46.700        63
46.720        73
46.740        97
46.760       100
46.780        60
46.800        87
46.820        80
46.840       137
46.860       127
46.880        97
46.900       103
46.920       123
46.940       123
46.960       140
46.980       167
47.000       143
47.020        93
47.040       133
47.060       170
47.080       157
47.100       107
47.120       137
47.140       150
47.160       163
47.180       130
47.200       163
47.220       140
47.240       133
47.260       133
47.280       143
47.300       110
47.320       137
47.340       130
47.360       133
47.380       137
47.400       130
47.420       197
47.440       177
47.460       150
47.480       153
47.500       133
47.520       127
47.540       160
47.560       110
47.580       100
47.600       130
47.620       140
47.640       123
47.660       103
47.680       123
47.700       103
47.720       137
47.740       107
47.760       117
47.780       147
47.800        87
47.820       117
47.840       100
47.860        80
47.880       107
47.900       100
47.920       103
47.940       103
47.960        97
47.980        97
48.000       117
48.020       100
48.040       117
48.060       103
48.080        87
48.100        83
48.120       120
48.140       150
48.160       130
48.180       110
48.200        97
48.220        83
48.240       157
48.260       143
48.280       150
48.300       133
48.320       180
48.340       140
48.360       153
48.380       160
48.400        87
48.420       100
48.440       130
48.460       110
48.480        73
48.500       113
48.520        87
48.540        87
48.560        80
48.580        73
48.600       107
48.620        97
48.640        87
48.660       113
48.680        83
48.700        57
48.720       100
48.740       123
48.760        63
48.780        93
48.800        77
48.820       103
48.840        77
48.860        70
48.880       100
48.900        77
48.920        73
48.940        73
48.960       107
48.980        97
49.000        97
49.020        83
49.040        93
49.060        80
49.080       127
49.100        97
49.120       113
49.140       107
49.160       147
49.180       113
49.200       117
49.220        83
49.240       130
49.260       103
49.280       110
49.300        80
49.320       103
49.340        90
49.360        83
49.380       110
49.400        80
49.420       107
49.440        50
49.460        90
49.480        97
49.500       100
49.520        93
49.540        90
49.560       110
49.580        63
49.600       110
49.620        73
49.640        73
49.660        90
49.680        83
49.700        80
49.720        93
49.740        97
49.760        90
49.780       107
49.800       100
49.820       117
49.840        70
49.860        90
49.880       110
49.900        90
49.920       100
49.940        83
49.960       123
49.980       107
50.000        93
50.020       113
50.040        90
50.060       110
50.080       120
50.100        63
50.120        70
50.140        80
50.160        60
50.180        97
50.200        77
50.220        90
50.240        83
50.260       100
50.280        83
50.300       110
50.320        97
50.340       107
50.360       117
50.380        83
50.400       100
50.420        93
50.440       120
50.460        70
50.480        90
50.500       127
50.520       133
50.540        93
50.560       113
50.580       130
50.600       100
50.620       120
50.640        93
50.660        97
50.680       160
50.700       123
50.720       130
50.740       117
50.760       117
50.780       177
50.800       157
50.820       130
50.840       170
50.860       127
50.880       180
50.900       153
50.920       117
50.940       153
50.960       123
50.980       143
51.000       117
51.020       173
51.040       113
51.060       143
51.080       163
51.100       147
51.120       127
51.140       173
51.160       163
51.180       170
51.200       163
51.220       133
51.240       133
51.260       160
51.280       120
51.300       167
51.320       150
51.340       130
51.360       170
51.380       157
51.400       153
51.420       160
51.440       160
51.460       153
51.480       147
51.500       167
51.520       150
51.540       133
51.560       170
51.580       227
51.600       127
51.620       180
51.640       150
51.660       143
51.680       173
51.700       167
51.720       190
51.740       180
51.760       207
51.780       177
51.800       173
51.820       177
51.840       257
51.860       203
51.880       227
51.900       307
51.920       263
51.940       253
51.960       283
51.980       280
52.000       317
52.020       333
52.040       277
52.060       293
52.080       357
52.100       410
52.120       350
52.140       440
52.160       513
52.180       486
52.200       603
52.220       760
52.240       836
52.260      1230
52.280      1803
52.300      3015
52.320      4435
52.340      6181
52.360      7810
52.380      9626
52.400     11492
52.420     12898
52.440     13161
52.460     14088
52.480     13171
52.500     12885
52.520     12648
52.540     12612
52.560     13215
52.580     14484
52.600     16703
52.620     20778
52.640     22238
52.660     16100
52.680     10006
52.700      7051
52.720      6564
52.740      7540
52.760      9236
52.780      9873
52.800      6931
52.820      3812
52.840      2236
52.860      1499
52.880      1120
52.900       850
52.920       763
52.940       570
52.960       413
52.980       450
53.000       433
53.020       440
53.040       310
53.060       310
53.080       353
53.100       363
53.120       283
53.140       260
53.160       267
53.180       243
53.200       250
53.220       290
53.240       287
53.260       303
53.280       220
53.300       227
53.320       237
53.340       247
53.360       230
53.380       220
53.400       230
53.420       217
53.440       257
53.460       197
53.480       220
53.500       153
53.520       203
53.540       167
53.560       200
53.580       150
53.600       163
53.620       193
53.640       217
53.660       213
53.680       177
53.700       177
53.720       223
53.740       197
53.760       210
53.780       203
53.800       177
53.820       223
53.840       220
53.860       220
53.880       187
53.900       203
53.920       170
53.940       183
53.960       173
53.980       200
54.000       177
54.020       170
54.040       163
54.060       137
54.080       147
54.100       153
54.120       160
54.140       210
54.160       187
54.180       150
54.200       157
54.220       150
54.240       147
54.260       163
54.280       190
54.300       230
54.320       153
54.340       160
54.360       163
54.380       157
54.400       183
54.420       213
54.440       200
54.460       197
54.480       163
54.500       183
54.520       180
54.540       190
54.560       223
54.580       213
54.600       137
54.620       177
54.640       197
54.660       187
54.680       200
54.700       173
54.720       187
54.740       197
54.760       220
54.780       170
54.800       160
54.820       167
54.840       163
54.860       180
54.880       190
54.900       230
54.920       183
54.940       177
54.960       170
54.980       183
55.000       167
55.020       183
55.040       180
55.060       177
55.080       190
55.100       173
55.120       157
55.140       193
55.160       207
55.180       177
55.200       173
55.220       197
55.240       170
55.260       220
55.280       170
55.300       190
55.320       170
55.340       170
55.360       133
55.380       153
55.400       210
55.420       197
55.440       180
55.460       213
55.480       147
55.500       157
55.520       147
55.540       183
55.560       247
55.580       167
55.600       167
55.620       180
55.640       180
55.660       160
55.680       157
55.700       213
55.720       207
55.740       193
55.760       173
55.780       173
55.800       183
55.820       183
55.840       157
55.860       170
55.880       220
55.900       190
55.920       210
55.940       207
55.960       183
55.980       190
56.000       220
56.020       207
56.040       227
56.060       200
56.080       187
56.100       183
56.120       210
56.140       220
56.160       200
56.180       223
56.200       250
56.220       200
56.240       153
56.260       243
56.280       223
56.300       190
56.320       240
56.340       243
56.360       207
56.380       207
56.400       203
56.420       220
56.440       203
56.460       227
56.480       240
56.500       223
56.520       173
56.540       207
56.560       227
56.580       147
56.600       183
56.620       197
56.640       200
56.660       247
56.680       240
56.700       173
56.720       203
56.740       223
56.760       180
56.780       200
56.800       200
56.820       210
56.840       213
56.860       190
56.880       140
56.900       180
56.920       230
56.940       180
56.960       177
56.980       233
57.000       240
57.020       173
57.040       180
57.060       173
57.080       180
57.100       197
57.120       217
57.140       213
57.160       203
57.180       200
57.200       153
57.220       210
57.240       177
57.260       177
57.280       193
57.300       237
57.320       213
57.340       153
57.360       200
57.380       220
57.400       157
57.420       223
57.440       223
57.460       213
57.480       160
57.500       193
57.520       217
57.540       217
57.560       213
57.580       213
57.600       213
57.620       170
57.640       160
57.660       157
57.680       197
57.700       187
57.720       137
57.740       183
57.760       217
57.780       203
57.800       170
57.820       180
57.840       197
57.860       170
57.880       200
57.900       170
57.920       187
57.940       203
57.960       167
57.980       217
58.000       217
58.020       187
58.040       220
58.060       217
58.080       213
58.100       207
58.120       197
58.140       207
58.160       203
58.180       200
58.200       190
58.220       203
58.240       197
58.260       180
58.280       193
58.300       163
58.320       210
58.340       177
58.360       193
58.380       183
58.400       190
58.420       177
58.440       230
58.460       200
58.480       230
58.500       210
58.520       197
58.540       190
58.560       203
58.580       207
58.600       220
58.620       187
58.640       250
58.660       210
58.680       190
58.700       190
58.720       203
58.740       207
58.760       160
58.780       223
58.800       207
58.820       220
58.840       197
58.860       207
58.880       173
58.900       180
58.920       183
58.940       207
58.960       177
58.980       237
59.000       200
59.020       190
59.040       213
59.060       187
59.080       190
59.100       227
59.120       210
59.140       217
59.160       200
59.180       163
59.200       203
59.220       217
59.240       197
59.260       180
59.280       223
59.300       173
59.320       197
59.340       193
59.360       230
59.380       207
59.400       240
59.420       200
59.440       160
59.460       207
59.480       173
59.500       230
59.520       207
59.540       243
59.560       200
59.580       213
59.600       200
59.620       220
59.640       187
59.660       233
59.680       197
59.700       173
59.720       173
59.740       227
59.760       233
59.780       210
59.800       223
59.820       217
59.840       217
59.860       197
59.880       207
59.900       180
59.920       180
59.940       223
59.960       180
59.980       210
60.000       243
