20.000        47
20.010        33
20.020        47
20.030        53
20.040        53
20.050        73
20.060        40
20.070        60
20.080        20
20.090        73
20.100        20
20.110        27
20.120        47
20.130        60
20.140        40
20.150        40
20.160        27
20.170        27
20.180        27
20.190        27
20.200        27
20.210        27
20.220        47
20.230        73
20.240        47
20.250        40
20.260        67
20.270        27
20.280        67
20.290        20
20.300        33
20.310        27
20.320        20
20.330        53
20.340        27
20.350        40
20.360        20
20.370        40
20.380        67
20.390        40
20.400        60
20.410        27
20.420        53
20.430        20
20.440        40
20.450        80
20.460        40
20.470        40
20.480        27
20.490        53
20.500        47
20.510        33
20.520        47
20.530        20
20.540        33
20.550        47
20.560        47
20.570        60
20.580        60
20.590        47
20.600        53
20.610        27
20.620        53
20.630        33
20.640        47
20.650        47
20.660        33
20.670        67
20.680        27
20.690        67
20.700        47
20.710        53
20.720        53
20.730        27
20.740        33
20.750        40
20.760       100
20.770        40
20.780        53
20.790        67
20.800        53
20.810        40
20.820        40
20.830        53
20.840        40
20.850        40
20.860        53
20.870        27
20.880        53
20.890        33
20.900         0
20.910        33
20.920        27
20.930        47
20.940        67
20.950        60
20.960        47
20.970        53
20.980        20
20.990        60
21.000        47
21.010        40
21.020        53
21.030        27
21.040        47
21.050        67
21.060        80
21.070        33
21.080        87
21.090        53
21.100        47
21.110        33
21.120         7
21.130        40
21.140        20
21.150        47
21.160        40
21.170        47
21.180        27
21.190        33
21.200        47
21.210        73
21.220        20
21.230        27
21.240        47
21.250        40
21.260        27
21.270        13
21.280        27
21.290        47
21.300        60
21.310        73
21.320        47
21.330        53
21.340        40
21.350        60
21.360        33
21.370        47
21.380        27
21.390        27
21.400        73
21.410        53
21.420        53
21.430        47
21.440        60
21.450        20
21.460        47
21.470        53
21.480        33
21.490        33
21.500        47
21.510        33
21.520        27
21.530        20
21.540        27
21.550        53
21.560        47
21.570        53
21.580        67
21.590        20
21.600        20
21.610        60
21.620        40
21.630        27
21.640        13
21.650        40
21.660        53
21.670        27
21.680        47
21.690        33
21.700        33
21.710        47
21.720        27
21.730         7
21.740        33
21.750        47
21.760        33
21.770        27
21.780        40
21.790        27
21.800        40
21.810        13
21.820        33
21.830        33
21.840        33
21.850        40
21.860        47
21.870        13
21.880        67
21.890        27
21.900        67
21.910        33
21.920        60
21.930        40
21.940        33
21.950        40
21.960        60
21.970        33
21.980        53
21.990        40
22.000        53
22.010        27
22.020        13
22.030        27
22.040        53
22.050        27
22.060         7
22.070        60
22.080        60
22.090        40
22.100        20
22.110        33
22.120        53
22.130        87
22.140        60
22.150        20
22.160        13
22.170        33
22.180        40
22.190        27
22.200         7
22.210        53
22.220        40
22.230        20
22.240        33
22.250        40
22.260        27
22.270        27
22.280        27
22.290        33
22.300        20
22.310        33
22.320        13
22.330        40
22.340        20
22.350        33
22.360        33
22.370        60
22.380        27
22.390        47
22.400        33
22.410        27
22.420        53
22.430        33
22.440        40
22.450        33
22.460        40
22.470        40
22.480        33
22.490        27
22.500        27
22.510        53
22.520        27
22.530        47
22.540        67
22.550        60
22.560        47
22.570        53
22.580        80
22.590        60
22.600        40
22.610        73
22.620        73
22.630        87
22.640        53
22.650        87
22.660        73
22.670        93
22.680        73
22.690        73
22.700        53
22.710        60
22.720        67
22.730       120
22.740       120
22.750        80
22.760        33
22.770        67
22.780        60
22.790        67
22.800        60
22.810        67
22.820        20
22.830        73
22.840        73
22.850        40
22.860        27
22.870        33
22.880        60
22.890        47
22.900        47
22.910        53
22.920        40
22.930        40
22.940        67
22.950        80
22.960        27
22.970        47
22.980        33
22.990        53
23.000        33
23.010        27
23.020        47
23.030        60
23.040        73
23.050        40
23.060        27
23.070        47
23.080        13
23.090         7
23.100        13
23.110        40
23.120        80
23.130        47
23.140        33
23.150        13
23.160        40
23.170        27
23.180        53
23.190        53
23.200        47
23.210        53
23.220        47
23.230        27
23.240        33
23.250        47
23.260        20
23.270        33
23.280        27
23.290        47
23.300        33
23.310        27
23.320        33
23.330        20
23.340        67
23.350        40
23.360        40
23.370        40
23.380        27
23.390        40
23.400        33
23.410        27
23.420        33
23.430        13
23.440        27
23.450        47
23.460        33
23.470        27
23.480        40
23.490        27
23.500        33
23.510        33
23.520        47
23.530        53
23.540        27
23.550        27
23.560        67
23.570        33
23.580        33
23.590        13
23.600        20
23.610        13
23.620        40
23.630        20
23.640        27
23.650        27
23.660        40
23.670        53
23.680        13
23.690        47
23.700        20
23.710        27
23.720        80
23.730        53
23.740        33
23.750        40
23.760        53
23.770        27
23.780        33
23.790        60
23.800        53
23.810        40
23.820        60
23.830        13
23.840        27
23.850        13
23.860        27
23.870        27
23.880        40
23.890        13
23.900        53
23.910        33
23.920        20
23.930        33
23.940        13
23.950        33
23.960        27
23.970        40
23.980         7
23.990        33
24.000        40
24.010        47
24.020        40
24.030        20
24.040        40
24.050        53
24.060        33
24.070         7
24.080        20
24.090        20
24.100        47
24.110        27
24.120        20
24.130        60
24.140        60
24.150        33
24.160        27
24.170        40
24.180        40
24.190        53
24.200        20
24.210        13
24.220        13
24.230        33
24.240        40
24.250         7
24.260        20
24.270        60
24.280        20
24.290        13
24.300        40
24.310        53
24.320        27
24.330        27
24.340        33
24.350        47
24.360        47
24.370        53
24.380        33
24.390        47
24.400        40
24.410        53
24.420        40
24.430        40
24.440        27
24.450        20
24.460        27
24.470        53
24.480        53
24.490        27
24.500         7
24.510        13
24.520        40
24.530        53
24.540        13
24.550        27
24.560        20
24.570        27
24.580        13
24.590        33
24.600        53
24.610        20
24.620        47
24.630        47
24.640        33
24.650        33
24.660        20
24.670        33
24.680        40
24.690        27
24.700        27
24.710        40
24.720        20
24.730        40
24.740        27
24.750        47
24.760        20
24.770        60
24.780        40
24.790        20
24.800        33
24.810        40
24.820        27
24.830        13
24.840         7
24.850        40
24.860        13
24.870        27
24.880        53
24.890        13
24.900        47
24.910        33
24.920        60
24.930        33
24.940        27
24.950        40
24.960        53
24.970        33
24.980        40
24.990        27
25.000        27
25.010         7
25.020        20
25.030        13
25.040        40
25.050        13
25.060        47
25.070         7
25.080        20
25.090        47
25.100        33
25.110        33
25.120        40
25.130        80
25.140        60
25.150        33
25.160        20
25.170        40
25.180        47
25.190        47
25.200        60
25.210        27
25.220        33
25.230        13
25.240        73
25.250        40
25.260        53
25.270        13
25.280        20
25.290        73
25.300        40
25.310        80
25.320        53
25.330        33
25.340        27
25.350        20
25.360        20
25.370        20
25.380        20
25.390        33
25.400        33
25.410        40
25.420        33
25.430        13
25.440        53
25.450        20
25.460        27
25.470        20
25.480        60
25.490        27
25.500        20
25.510        47
25.520        27
25.530        80
25.540        20
25.550        40
25.560        73
25.570        67
25.580        67
25.590        80
25.600        93
25.610        73
25.620        27
25.630        73
25.640        73
25.650       100
25.660        67
25.670        53
25.680        40
25.690        47
25.700        47
25.710        40
25.720        73
25.730        47
25.740        60
25.750        73
25.760        80
25.770        60
25.780        80
25.790       107
25.800        93
25.810        67
25.820        67
25.830       127
25.840       140
25.850       120
25.860        87
25.870        87
25.880        80
25.890       100
25.900        40
25.910        87
25.920        60
25.930        53
25.940        60
25.950        13
25.960        20
25.970        33
25.980        20
25.990        53
26.000        47
26.010        33
26.020        13
26.030        40
26.040        67
26.050        33
26.060        40
26.070        47
26.080         7
26.090        40
26.100        13
26.110        20
26.120        47
26.130        27
26.140        27
26.150        33
26.160        40
26.170        33
26.180        73
26.190        20
26.200        60
26.210        13
26.220        33
26.230        13
26.240        47
26.250        20
26.260        27
26.270        20
26.280        33
26.290        33
26.300        33
26.310        33
26.320        40
26.330        53
26.340        40
26.350        27
26.360        27
26.370        20
26.380        40
26.390        40
26.400        80
26.410        13
26.420        40
26.430        47
26.440        47
26.450        33
26.460        47
26.470        20
26.480        53
26.490        53
26.500        33
26.510        47
26.520        60
26.530        20
26.540        27
26.550        87
26.560        40
26.570        60
26.580        40
26.590        40
26.600        53
26.610        27
26.620        67
26.630        47
26.640        33
26.650        53
26.660        40
26.670        20
26.680        47
26.690        60
26.700        20
26.710        67
26.720        67
26.730        13
26.740        47
26.750        27
26.760        13
26.770        40
26.780        47
26.790        60
26.800        27
26.810        40
26.820        60
26.830        40
26.840        20
26.850        33
26.860        47
26.870        20
26.880        80
26.890        40
26.900         7
26.910        40
26.920        33
26.930        60
26.940        33
26.950         7
26.960        53
26.970        27
26.980        27
26.990        40
27.000        33
27.010        33
27.020        40
27.030        27
27.040        27
27.050        20
27.060        27
27.070        40
27.080         7
27.090        60
27.100        47
27.110        20
27.120        27
27.130        33
27.140        33
27.150         7
27.160        13
27.170        13
27.180        13
27.190        33
27.200        20
27.210        20
27.220        27
27.230         7
27.240        13
27.250        53
27.260        20
27.270        33
27.280         7
27.290        13
27.300        27
27.310        13
27.320         0
27.330        13
27.340        33
27.350        20
27.360        13
27.370         0
27.380        40
27.390        33
27.400        13
27.410        20
27.420        13
27.430        27
27.440        27
27.450        33
27.460        13
27.470        40
27.480        13
27.490        20
27.500        33
27.510        20
27.520        20
27.530        27
27.540        13
27.550        20
27.560        53
27.570        27
27.580        33
27.590        40
27.600        33
27.610        33
27.620        33
27.630        40
27.640        40
27.650        40
27.660        47
27.670        67
27.680        80
27.690        80
27.700        40
27.710        67
27.720        73
27.730        33
27.740        53
27.750        53
27.760        47
27.770        47
27.780        60
27.790       100
27.800       113
27.810       113
27.820        60
27.830        80
27.840        73
27.850       107
27.860       113
27.870        87
27.880       133
27.890       107
27.900        80
27.910        93
27.920       107
27.930        67
27.940       107
27.950        80
27.960        60
27.970       100
27.980        53
27.990        67
28.000        47
28.010        27
28.020        47
28.030        60
28.040        47
28.050        40
28.060        27
28.070        40
28.080        33
28.090        33
28.100        33
28.110        27
28.120        60
28.130        27
28.140        33
28.150        13
28.160        40
28.170        13
28.180        53
28.190        73
28.200        67
28.210        47
28.220        40
28.230        53
28.240        40
28.250        33
28.260        40
28.270        47
28.280        33
28.290        47
28.300        93
28.310        40
28.320        20
28.330        13
28.340        47
28.350        33
28.360        53
28.370        47
28.380        87
28.390        67
28.400        40
28.410        33
28.420        33
28.430        47
28.440        13
28.450        33
28.460        60
28.470        60
28.480        20
28.490        33
28.500        27
28.510        47
28.520        13
28.530        27
28.540        47
28.550        20
28.560        33
28.570        40
28.580        40
28.590        80
28.600        27
28.610        67
28.620        47
28.630        40
28.640        60
28.650        33
28.660        27
28.670        47
28.680        33
28.690        33
28.700        47
28.710        40
28.720        20
28.730        40
28.740        20
28.750        27
28.760        40
28.770        20
28.780        33
28.790        60
28.800        40
28.810        40
28.820        53
28.830        40
28.840        27
28.850        60
28.860        40
28.870        47
28.880        73
28.890        33
28.900        33
28.910        73
28.920        93
28.930        53
28.940        73
28.950        73
28.960       127
28.970       107
28.980        93
28.990        80
29.000       147
29.010       167
29.020        80
29.030        80
29.040       160
29.050       133
29.060       107
29.070       140
29.080       113
29.090       160
29.100       140
29.110       113
29.120       167
29.130       160
29.140       147
29.150       147
29.160       173
29.170        73
29.180       120
29.190       147
29.200        80
29.210        80
29.220       113
29.230        60
29.240        73
29.250        73
29.260        40
29.270        40
29.280        53
29.290        60
29.300        27
29.310        40
29.320        33
29.330        33
29.340        40
29.350        40
29.360        47
29.370        40
29.380        40
29.390        33
29.400        53
29.410        80
29.420        20
29.430         7
29.440        20
29.450        80
29.460        67
29.470        47
29.480        73
29.490        93
29.500        60
29.510       100
29.520        60
29.530       107
29.540       147
29.550       107
29.560       100
29.570       167
29.580        93
29.590       107
29.600       120
29.610       160
29.620       173
29.630       113
29.640       173
29.650       100
29.660       120
29.670       133
29.680       107
29.690       107
29.700       113
29.710        80
29.720        87
29.730        60
29.740        60
29.750        80
29.760        60
29.770        20
29.780        67
29.790        33
29.800        27
29.810        40
29.820        33
29.830        40
29.840        27
29.850        20
29.860        33
29.870         7
29.880        33
29.890        33
29.900        20
29.910        27
29.920        47
29.930        73
29.940        27
29.950        13
29.960        40
29.970        27
29.980        13
29.990        13
30.000        33
30.010        20
30.020        20
30.030        20
30.040        20
30.050        47
30.060        33
30.070         7
30.080        27
30.090        27
30.100        20
30.110         7
30.120        33
30.130        27
30.140         7
30.150        13
30.160        20
30.170        13
30.180        40
30.190        27
30.200        13
30.210        20
30.220        33
30.230        20
30.240        27
30.250        13
30.260        13
30.270        27
30.280        27
30.290        33
30.300        40
30.310        80
30.320        27
30.330        47
30.340        47
30.350        47
30.360        33
30.370        60
30.380        67
30.390        40
30.400        67
30.410        80
30.420        93
30.430        73
30.440        87
30.450        53
30.460        87
30.470       107
30.480       107
30.490       113
30.500        80
30.510       120
30.520        87
30.530       107
30.540        80
30.550       113
30.560       107
30.570        93
30.580        47
30.590        67
30.600        47
30.610        73
30.620        67
30.630        73
30.640        73
30.650        47
30.660        20
30.670        27
30.680         7
30.690        53
30.700        33
30.710        33
30.720        27
30.730        33
30.740        13
30.750        20
30.760        33
30.770        13
30.780        20
30.790        33
30.800        13
30.810        13
30.820        27
30.830        40
30.840        27
30.850        13
30.860        20
30.870        33
30.880        20
30.890        40
30.900        33
30.910        47
30.920        53
30.930        27
30.940        33
30.950        33
30.960        20
30.970         0
30.980        13
30.990        20
31.000        33
31.010        47
31.020        27
31.030        27
31.040        20
31.050        27
31.060        13
31.070        33
31.080        20
31.090        33
31.100        13
31.110        20
31.120        13
31.130        40
31.140        20
31.150        20
31.160         7
31.170        27
31.180        33
31.190        20
31.200        53
31.210        40
31.220         7
31.230        27
31.240        20
31.250        20
31.260        40
31.270        20
31.280        40
31.290        47
31.300        40
31.310        20
31.320        27
31.330        27
31.340        20
31.350        20
31.360        40
31.370        13
31.380        27
31.390        20
31.400        40
31.410        20
31.420        40
31.430        47
31.440        40
31.450        33
31.460        27
31.470        27
31.480        40
31.490        47
31.500        20
31.510        33
31.520        20
31.530        20
31.540        13
31.550        13
31.560         7
31.570        47
31.580        47
31.590        27
31.600         7
31.610        13
31.620        13
31.630         7
31.640        13
31.650        47
31.660        20
31.670        13
31.680        13
31.690        20
31.700        33
31.710         7
31.720        13
31.730        27
31.740        13
31.750        20
31.760        13
31.770        13
31.780        27
31.790        27
31.800        60
31.810        47
31.820        13
31.830        27
31.840        20
31.850        53
31.860        20
31.870        33
31.880        20
31.890        33
31.900        27
31.910         7
31.920        20
31.930        40
31.940        20
31.950        40
31.960        40
31.970        20
31.980        40
31.990        20
32.000         7
32.010        13
32.020        13
32.030        33
32.040        40
32.050        87
32.060        67
32.070        40
32.080        27
32.090        47
32.100        53
32.110        20
32.120        87
32.130        67
32.140       113
32.150        40
32.160        53
32.170        80
32.180       100
32.190       120
32.200        80
32.210        93
32.220        87
32.230        80
32.240       127
32.250        73
32.260       133
32.270       100
32.280        60
32.290        87
32.300       113
32.310        93
32.320        87
32.330       107
32.340        87
32.350        67
32.360        73
32.370        67
32.380        93
32.390        20
32.400        27
32.410        13
32.420        47
32.430        40
32.440        33
32.450        27
32.460         7
32.470         7
32.480        53
32.490        33
32.500        40
32.510        40
32.520        27
32.530        20
32.540        27
32.550        47
32.560        27
32.570        33
32.580        13
32.590        40
32.600        60
32.610        13
32.620        40
32.630        40
32.640        40
32.650        47
32.660        27
32.670        33
32.680        33
32.690        47
32.700        40
32.710        27
32.720        13
32.730        13
32.740        27
32.750        40
32.760        20
32.770        60
32.780        33
32.790        33
32.800        33
32.810        27
32.820        27
32.830        27
32.840        33
32.850        33
32.860        40
32.870        40
32.880        40
32.890        20
32.900        33
32.910        27
32.920        27
32.930        13
32.940        27
32.950         7
32.960        20
32.970        33
32.980        20
32.990        20
33.000        13
33.010        20
33.020        20
33.030        27
33.040        33
33.050        20
33.060        13
33.070        27
33.080         7
33.090        27
33.100        13
33.110         7
33.120        40
33.130         7
33.140        13
33.150        20
33.160         7
33.170        13
33.180        27
33.190        20
33.200        33
33.210         7
33.220        20
33.230        20
33.240        13
33.250        40
33.260        33
33.270        13
33.280        13
33.290        27
33.300        27
33.310        40
33.320        20
33.330        13
33.340         7
33.350         7
33.360         7
33.370        47
33.380        13
33.390        27
33.400        27
33.410        33
33.420        13
33.430        27
33.440         7
33.450        40
33.460         7
33.470        27
33.480        27
33.490        27
33.500        27
33.510        27
33.520         7
33.530        47
33.540        40
33.550        13
33.560        33
33.570        47
33.580         7
33.590         7
33.600        33
33.610        13
33.620        20
33.630        33
33.640        20
33.650         7
33.660         7
33.670        27
33.680        20
33.690        33
33.700        20
33.710        33
33.720         7
33.730        40
33.740        40
33.750        33
33.760        40
33.770        27
33.780        13
33.790         7
33.800        20
33.810        40
33.820        47
33.830        13
33.840        13
33.850        27
33.860         7
33.870        33
33.880         7
33.890        60
33.900         7
33.910        20
33.920        13
33.930        20
33.940        47
33.950        27
33.960        13
33.970        33
33.980        27
33.990        20
34.000        13
34.010        13
34.020         7
34.030        20
34.040        27
34.050        13
34.060        13
34.070         7
34.080         7
34.090        13
34.100         0
34.110         7
34.120        27
34.130        27
34.140        20
34.150         0
34.160        20
34.170        13
34.180         7
34.190        47
34.200        33
34.210        13
34.220        47
34.230        27
34.240        13
34.250        40
34.260        20
34.270        13
34.280         7
34.290         7
34.300        40
34.310         7
34.320        13
34.330        27
34.340        13
34.350        27
34.360        13
34.370        33
34.380        20
34.390        27
34.400        13
34.410        33
34.420        20
34.430        13
34.440        40
34.450        13
34.460        27
34.470        13
34.480        27
34.490        20
34.500        33
34.510        13
34.520        27
34.530        13
34.540        27
34.550         0
34.560        20
34.570        20
34.580        40
34.590        33
34.600        13
34.610        33
34.620        13
34.630        20
34.640        20
34.650        47
34.660        20
34.670        53
34.680        47
34.690        13
34.700        13
34.710        33
34.720        27
34.730        53
34.740        53
34.750        47
34.760        27
34.770        53
34.780        33
34.790        20
34.800        27
34.810        47
34.820        33
34.830        13
34.840         7
34.850        33
34.860        13
34.870         0
34.880        40
34.890        40
34.900        33
34.910        40
34.920        40
34.930        20
34.940        20
34.950        27
34.960        27
34.970        60
34.980         7
34.990        20
35.000        13
35.010         7
35.020        27
35.030        13
35.040        20
35.050        13
35.060        67
35.070        27
35.080        13
35.090        27
35.100        13
35.110        20
35.120         7
35.130        13
35.140        13
35.150        27
35.160        27
35.170        33
35.180        13
35.190        40
35.200        40
35.210         0
35.220        27
35.230        20
35.240        13
35.250        13
35.260         7
35.270         7
35.280        20
35.290        33
35.300        33
35.310        33
35.320        47
35.330        20
35.340        27
35.350        20
35.360        27
35.370        13
35.380        13
35.390        20
35.400        20
35.410        33
35.420        33
35.430        20
35.440        20
35.450         7
35.460        47
35.470        13
35.480        47
35.490        20
35.500        47
35.510        20
35.520        20
35.530         7
35.540         7
35.550        13
35.560        13
35.570        20
35.580        27
35.590         7
35.600         7
35.610        13
35.620        33
35.630         7
35.640        20
35.650        20
35.660        13
35.670        27
35.680         7
35.690        40
35.700        13
35.710         0
35.720        20
35.730        27
35.740        20
35.750        20
35.760         0
35.770        33
35.780         7
35.790        53
35.800        20
35.810        20
35.820        27
35.830        20
35.840        27
35.850        20
35.860        33
35.870        27
35.880        27
35.890        47
35.900        20
35.910         0
35.920         0
35.930         7
35.940        13
35.950         7
35.960         7
35.970         7
35.980        13
35.990        20
36.000        13
36.010         7
36.020        33
36.030        33
36.040        13
36.050        13
36.060        33
36.070        13
36.080         7
36.090        20
36.100        27
36.110        20
36.120        27
36.130        33
36.140        13
36.150         0
36.160        20
36.170        33
36.180        20
36.190        27
36.200         0
36.210         7
36.220        27
36.230        27
36.240        27
36.250         7
36.260        27
36.270        20
36.280        13
36.290        20
36.300        20
36.310        20
36.320        40
36.330         7
36.340        40
36.350        40
36.360        20
36.370         7
36.380        13
36.390        13
36.400        73
36.410        13
36.420        27
36.430        60
36.440        47
36.450        20
36.460         7
36.470        20
36.480        33
36.490        20
36.500        40
36.510        20
36.520        13
36.530        33
36.540        27
36.550        20
36.560        27
36.570        13
36.580        13
36.590        33
36.600        40
36.610        20
36.620        27
36.630        13
36.640        27
36.650        13
36.660        33
36.670        27
36.680        27
36.690        67
36.700        33
36.710        20
36.720        27
36.730        13
36.740        40
36.750        20
36.760        20
36.770        20
36.780        13
36.790        20
36.800         7
36.810        40
36.820        20
36.830        13
36.840        33
36.850        33
36.860        53
36.870        13
36.880        33
36.890        40
36.900         7
36.910        20
36.920        33
36.930        33
36.940         0
36.950        20
36.960        20
36.970        47
36.980        27
36.990        20
37.000        33
37.010        20
37.020        13
37.030        13
37.040        27
37.050         0
37.060        47
37.070        47
37.080        33
37.090        27
37.100        33
37.110        13
37.120        40
37.130         7
37.140        40
37.150        47
37.160        33
37.170        20
37.180        27
37.190        13
37.200         7
37.210        33
37.220        13
37.230        20
37.240        20
37.250        13
37.260        20
37.270        27
37.280         7
37.290        27
37.300         0
37.310        40
37.320        13
37.330        13
37.340        33
37.350        20
37.360         7
37.370        20
37.380        33
37.390        40
37.400        33
37.410         0
37.420        40
37.430        27
37.440        27
37.450        40
37.460        27
37.470         0
37.480        20
37.490        40
37.500         7
37.510        13
37.520         7
37.530        13
37.540         0
37.550        13
37.560        20
37.570         0
37.580        13
37.590        13
37.600        40
37.610        13
37.620        33
37.630        13
37.640        13
37.650        13
37.660        20
37.670        67
37.680        20
37.690        27
37.700        13
37.710        20
37.720        20
37.730        33
37.740        20
37.750        20
37.760        13
37.770        13
37.780        20
37.790         7
37.800        20
37.810        20
37.820        13
37.830         7
37.840        27
37.850        40
37.860         7
37.870        13
37.880        20
37.890         0
37.900        27
37.910         7
37.920        13
37.930        27
37.940         0
37.950        20
37.960        40
37.970        27
37.980        33
37.990        13
38.000        53
38.010        13
38.020        13
38.030        40
38.040        47
38.050        20
38.060         0
38.070         7
38.080        20
38.090        20
38.100        20
38.110        20
38.120        33
38.130        20
38.140        27
38.150         0
38.160        33
38.170        27
38.180        13
38.190         7
38.200        13
38.210        20
38.220        27
38.230        27
38.240         7
38.250        40
38.260        27
38.270        33
38.280        33
38.290        27
38.300        13
38.310        27
38.320        20
38.330        20
38.340        40
38.350         7
38.360        13
38.370        33
38.380        27
38.390        20
38.400        20
38.410        13
38.420         7
38.430        13
38.440        13
38.450        40
38.460        33
38.470        33
38.480        27
38.490        20
38.500         7
38.510        47
38.520        20
38.530        20
38.540        20
38.550        13
38.560        20
38.570        13
38.580         7
38.590        20
38.600        20
38.610        13
38.620         7
38.630        33
38.640        40
38.650        40
38.660        67
38.670        27
38.680        20
38.690        33
38.700         0
38.710        33
38.720         7
38.730         7
38.740        33
38.750        27
38.760        13
38.770         0
38.780        33
38.790         7
38.800        53
38.810        13
38.820        47
38.830        27
38.840        33
38.850         7
38.860         0
38.870        27
38.880        27
38.890        27
38.900        40
38.910        13
38.920        33
38.930        13
38.940         7
38.950        53
38.960        13
38.970        20
38.980        13
38.990        47
39.000        53
39.010        33
39.020        40
39.030        33
39.040        67
39.050        33
39.060         7
39.070        40
39.080        13
39.090        13
39.100        20
39.110        27
39.120        13
39.130        13
39.140        33
39.150        20
39.160        47
39.170        33
39.180        20
39.190        20
39.200        13
39.210        33
39.220        40
39.230        13
39.240         0
39.250        33
39.260        20
39.270        27
39.280         7
39.290        20
39.300        13
39.310         7
39.320         0
39.330        27
39.340        27
39.350        47
39.360        20
39.370        20
39.380         0
39.390        13
39.400        27
39.410        27
39.420        33
39.430        27
39.440         7
39.450        13
39.460        20
39.470         7
39.480        27
39.490        27
39.500         7
39.510        33
39.520        13
39.530        27
39.540        13
39.550        27
39.560        33
39.570        27
39.580        13
39.590         0
39.600        27
39.610        13
39.620        33
39.630        47
39.640        13
39.650        60
39.660        40
39.670        13
39.680         0
39.690         7
39.700        13
39.710        33
39.720        27
39.730        47
39.740        20
39.750        20
39.760        13
39.770        33
39.780        13
39.790        13
39.800         7
39.810        33
39.820        27
39.830        27
39.840         7
39.850        13
39.860         7
39.870         7
39.880        20
39.890         7
39.900        13
39.910        27
39.920        27
39.930        60
39.940        13
39.950        27
39.960        20
39.970        20
39.980         7
39.990         0
40.000        20
40.010        13
40.020        47
40.030        27
40.040        13
40.050        40
40.060        27
40.070        33
40.080        13
40.090         7
40.100        47
40.110        27
40.120        47
40.130        40
40.140        13
40.150        13
40.160        27
40.170        60
40.180        40
40.190        20
40.200        40
40.210        20
40.220        27
40.230        20
40.240        80
40.250        47
40.260        47
40.270        33
40.280        47
40.290        47
40.300        40
40.310        53
40.320        53
40.330        20
40.340        27
40.350        13
40.360        27
40.370        20
40.380        27
40.390        47
40.400        27
40.410        40
40.420        40
40.430         7
40.440        33
40.450        33
40.460        40
40.470        40
40.480        13
40.490        47
40.500        27
40.510        13
40.520        40
40.530        27
40.540        40
40.550        13
40.560        27
40.570        47
40.580        13
40.590        13
40.600         7
40.610        13
40.620        27
40.630        13
40.640        27
40.650        33
40.660         7
40.670        13
40.680        13
40.690        27
40.700        13
40.710        20
40.720        20
40.730        20
40.740        20
40.750         7
40.760        40
40.770        20
40.780         7
40.790        33
40.800        20
40.810        40
40.820        27
40.830         7
40.840        47
40.850        20
40.860        33
40.870        27
40.880        47
40.890        13
40.900        33
40.910        40
40.920        13
40.930        20
40.940        27
40.950        20
40.960        20
40.970        20
40.980        13
40.990        33
41.000        20
41.010        33
41.020        13
41.030         7
41.040        13
41.050        20
41.060        27
41.070        47
41.080        33
41.090        33
41.100        20
41.110        20
41.120        13
41.130        27
41.140        47
41.150         7
41.160        47
41.170        20
41.180        13
41.190         7
41.200        13
41.210        40
41.220        40
41.230        20
41.240        13
41.250         7
41.260        27
41.270        27
41.280        33
41.290        13
41.300        13
41.310        20
41.320        40
41.330         0
41.340         7
41.350        20
41.360        40
41.370        13
41.380        47
41.390        13
41.400         7
41.410        20
41.420        33
41.430        27
41.440        13
41.450         7
41.460        13
41.470        13
41.480        13
41.490        27
41.500        33
41.510        53
41.520        13
41.530        27
41.540        20
41.550         7
41.560        33
41.570        33
41.580        33
41.590        13
41.600        40
41.610        33
41.620        40
41.630        27
41.640        20
41.650        13
41.660        20
41.670        33
41.680        13
41.690        13
41.700        13
41.710        27
41.720        20
41.730         0
41.740        20
41.750        27
41.760        13
41.770        27
41.780         7
41.790        20
41.800        20
41.810        33
41.820        27
41.830        27
41.840        33
41.850        13
41.860        27
41.870        13
41.880         0
41.890        27
41.900        33
41.910        33
41.920        40
41.930        13
41.940        27
41.950         0
41.960        20
41.970        13
41.980        13
41.990        40
42.000        20
42.010        27
42.020        33
42.030        13
42.040        27
42.050        13
42.060        20
42.070        13
42.080        27
42.090        20
42.100        33
42.110        27
42.120        13
42.130         7
42.140        20
42.150        33
42.160        27
42.170        20
42.180        27
42.190        20
42.200        33
42.210        33
42.220        27
42.230        20
42.240        20
42.250        40
42.260        33
42.270         0
42.280         7
42.290        33
42.300        47
42.310        20
42.320        27
42.330        40
42.340        27
42.350        33
42.360        20
42.370        33
42.380        47
42.390        27
42.400        53
42.410        40
42.420        33
42.430        47
42.440        33
42.450        27
42.460        67
42.470        20
42.480        40
42.490        27
42.500        40
42.510        20
42.520        47
42.530        67
42.540        27
42.550        27
42.560        20
42.570         7
42.580         0
42.590        33
42.600        33
42.610        27
42.620        40
42.630        27
42.640        20
42.650        27
42.660        40
42.670        13
42.680        13
42.690        13
42.700        47
42.710        27
42.720        27
42.730        33
42.740        13
42.750        20
42.760         7
42.770        27
42.780        27
42.790         7
42.800        13
42.810        13
42.820        13
42.830        13
42.840        33
42.850        20
42.860        40
42.870        20
42.880        33
42.890        13
42.900        13
42.910        67
42.920        27
42.930        33
42.940         7
42.950        20
42.960        20
42.970        20
42.980        33
42.990        33
43.000        33
43.010        13
43.020        13
43.030        13
43.040        13
43.050        13
43.060        27
43.070        20
43.080        40
43.090        33
43.100        40
43.110        27
43.120        20
43.130        13
43.140        20
43.150        13
43.160        27
43.170        13
43.180        20
43.190        20
43.200        27
43.210        20
43.220        33
43.230        20
43.240        20
43.250        33
43.260        20
43.270        40
43.280        27
43.290        27
43.300         7
43.310        20
43.320        20
43.330        27
43.340         7
43.350        13
43.360        13
43.370         0
43.380        40
43.390         7
43.400        13
43.410         7
43.420        33
43.430        13
43.440         7
43.450        40
43.460        33
43.470        13
43.480        33
43.490        20
43.500        27
43.510         7
43.520        40
43.530        20
43.540        20
43.550        33
43.560         7
43.570        33
43.580        27
43.590        13
43.600         0
43.610        33
43.620        20
43.630        27
43.640        13
43.650        33
43.660        33
43.670         0
43.680        33
43.690        33
43.700        20
43.710        27
43.720        20
43.730        47
43.740        20
43.750        13
43.760        20
43.770        13
43.780        27
43.790         0
43.800        40
43.810        20
43.820         7
43.830        40
43.840        33
43.850        27
43.860        20
43.870        33
43.880        13
43.890        27
43.900        27
43.910         0
43.920        27
43.930        27
43.940        13
43.950         7
43.960        27
43.970         7
43.980        20
43.990         7
44.000        47
44.010        33
44.020        20
44.030        20
44.040        27
44.050         7
44.060        20
44.070        13
44.080         0
44.090        40
44.100        27
44.110        27
44.120        13
44.130        13
44.140        20
44.150        27
44.160        33
44.170        27
44.180        47
44.190         7
44.200        53
44.210         7
44.220        40
44.230        13
44.240        20
44.250        27
44.260        33
44.270         7
44.280        47
44.290        20
44.300        13
44.310        27
44.320        40
44.330         7
44.340        20
44.350        13
44.360        20
44.370        40
44.380        27
44.390        40
44.400        13
44.410        20
44.420        27
44.430        20
44.440         7
44.450        13
44.460        33
44.470         0
44.480        20
44.490        33
44.500        27
44.510        27
44.520        20
44.530        20
44.540        20
44.550        13
44.560        20
44.570        40
44.580        27
44.590        27
44.600        13
44.610        67
44.620        20
44.630        27
44.640        13
44.650        27
44.660        20
44.670        13
44.680        20
44.690        27
44.700        13
44.710        27
44.720        27
44.730        27
44.740        33
44.750         0
44.760        33
44.770        20
44.780        20
44.790        13
44.800        20
44.810        27
44.820        33
44.830         7
44.840        13
44.850        20
44.860        27
44.870        13
44.880        13
44.890         7
44.900        20
44.910        20
44.920        33
44.930        33
44.940        33
44.950        20
44.960        13
44.970        13
44.980        20
44.990        13
45.000        27
45.010        20
45.020        20
45.030        13
45.040         7
45.050        27
45.060         7
45.070        40
45.080         7
45.090        27
45.100        33
45.110        40
45.120        27
45.130        27
45.140        13
45.150        27
45.160        53
45.170         7
45.180        20
45.190        20
45.200        20
45.210        33
45.220         7
45.230         0
45.240        40
45.250        13
45.260        40
45.270        33
45.280        13
45.290        20
45.300        20
45.310         0
45.320        20
45.330         7
45.340        67
45.350        27
45.360        20
45.370        20
45.380        13
45.390        13
45.400        33
45.410        40
45.420        47
45.430        27
45.440        13
45.450         7
45.460        47
45.470        40
45.480        27
45.490        20
45.500        20
45.510        20
45.520        27
45.530        13
45.540        13
45.550        20
45.560        20
45.570        20
45.580        27
45.590        47
45.600        33
45.610        33
45.620        27
45.630        53
45.640         0
45.650        33
45.660        20
45.670        27
45.680        27
45.690        20
45.700        33
45.710        40
45.720        13
45.730        33
45.740        40
45.750        67
45.760        27
45.770        20
45.780        33
45.790         7
45.800        47
45.810        33
45.820        20
45.830        27
45.840        27
45.850        13
45.860        40
45.870        33
45.880        20
45.890        27
45.900        27
45.910        33
45.920        33
45.930        67
45.940        60
45.950        33
45.960         0
45.970        53
45.980        40
45.990        53
46.000        67
46.010        40
46.020        27
46.030        47
46.040        60
46.050       120
46.060        33
46.070        53
46.080        40
46.090        73
46.100        47
46.110        40
46.120        60
46.130        67
46.140        60
46.150        13
46.160        40
46.170        33
46.180        73
46.190        67
46.200        60
46.210        60
46.220        73
46.230        60
46.240        40
46.250        73
46.260        93
46.270        73
46.280        67
46.290       100
46.300        73
46.310       100
46.320        87
46.330        73
46.340        67
46.350        80
46.360        33
46.370       120
46.380        47
46.390        67
46.400        40
46.410        60
46.420        53
46.430        60
46.440       113
46.450        33
46.460        27
46.470       100
46.480        40
46.490        47
46.500        53
46.510        67
46.520        47
46.530        80
46.540        27
46.550        53
46.560        20
46.570        67
46.580        27
46.590        47
46.600        40
46.610        47
46.620        87
46.630        27
46.640        67
46.650        27
46.660        27
46.670        27
46.680        20
46.690        33
46.700        47
46.710       113
46.720        33
46.730        53
46.740        53
46.750        47
46.760        60
46.770        33
46.780        47
46.790        47
46.800        33
46.810        27
46.820        53
46.830        40
46.840        67
46.850        60
46.860        40
46.870        33
46.880        47
46.890        53
46.900        53
46.910        33
46.920        53
46.930        53
46.940        53
46.950        13
46.960        20
46.970        47
46.980        67
46.990        40
47.000        33
47.010        40
47.020        47
47.030        20
47.040        33
47.050        60
47.060        27
47.070        67
47.080        27
47.090        20
47.100        60
47.110        40
47.120        53
47.130        27
47.140        47
47.150        27
47.160        47
47.170        20
47.180        47
47.190        27
47.200        33
47.210        27
47.220        47
47.230        60
47.240        47
47.250        27
47.260        33
47.270        20
47.280        27
47.290        27
47.300        47
47.310        33
47.320         7
47.330        53
47.340         7
47.350        53
47.360        27
47.370        60
47.380        27
47.390        27
47.400        33
47.410        20
47.420        33
47.430        13
47.440        20
47.450        33
47.460        27
47.470        47
47.480        27
47.490         7
47.500        20
47.510        40
47.520         7
47.530        13
47.540        20
47.550        27
47.560        20
47.570         0
47.580        20
47.590        33
47.600        27
47.610        27
47.620        20
47.630        20
47.640        40
47.650        20
47.660        27
47.670        20
47.680        47
47.690        47
47.700         7
47.710         7
47.720        40
47.730        20
47.740        27
47.750        20
47.760        20
47.770        13
47.780        27
47.790        20
47.800        33
47.810        13
47.820        20
47.830        20
47.840         7
47.850         7
47.860        47
47.870        47
47.880        13
47.890        33
47.900        27
47.910        20
47.920        60
47.930         7
47.940        13
47.950        20
47.960        20
47.970        27
47.980         7
47.990        33
48.000         7
48.010        13
48.020        40
48.030        13
48.040        27
48.050        33
48.060        20
48.070        27
48.080        27
48.090        40
48.100        27
48.110        40
48.120        20
48.130        13
48.140        20
48.150        27
48.160        40
48.170        47
48.180        40
48.190         0
48.200         7
48.210        33
48.220        40
48.230        47
48.240        27
48.250        27
48.260        20
48.270        40
48.280        33
48.290        27
48.300        47
48.310        13
48.320        27
48.330        27
48.340        27
48.350        27
48.360        20
48.370        40
48.380        20
48.390        20
48.400        27
48.410        27
48.420        33
48.430        33
48.440        47
48.450         7
48.460        13
48.470        53
48.480        27
48.490         7
48.500        20
48.510        33
48.520        33
48.530        27
48.540        47
48.550        40
48.560        27
48.570        33
48.580        27
48.590        40
48.600        33
48.610         7
48.620        13
48.630         7
48.640        13
48.650        27
48.660        13
48.670        40
48.680        33
48.690         7
48.700        20
48.710        20
48.720         7
48.730        27
48.740         7
48.750        33
48.760        73
48.770        27
48.780        20
48.790        33
48.800        20
48.810        47
48.820        33
48.830        33
48.840        27
48.850        27
48.860        20
48.870        13
48.880        33
48.890        27
48.900         7
48.910         7
48.920        27
48.930        40
48.940        33
48.950        33
48.960        27
48.970        27
48.980        27
48.990        33
49.000        20
49.010        20
49.020        13
49.030        20
49.040        53
49.050        33
49.060        20
49.070        33
49.080        20
49.090        27
49.100        47
49.110        20
49.120        33
49.130        20
49.140        53
49.150        40
49.160        40
49.170        33
49.180        53
49.190        40
49.200        27
49.210        20
49.220        40
49.230        27
49.240        13
49.250        67
49.260        20
49.270        20
49.280        47
49.290        27
49.300        27
49.310        20
49.320         7
49.330         0
49.340        20
49.350        33
49.360        33
49.370        20
49.380        20
49.390        47
49.400        47
49.410        27
49.420         7
49.430        13
49.440        20
49.450        27
49.460        13
49.470        33
49.480        20
49.490        33
49.500        33
49.510        27
49.520        27
49.530        20
49.540        13
49.550        20
49.560        20
49.570        33
49.580        33
49.590        20
49.600        20
49.610        47
49.620         0
49.630        13
49.640        33
49.650        33
49.660        40
49.670        60
49.680        13
49.690        33
49.700        27
49.710        20
49.720        47
49.730        47
49.740        53
49.750        40
49.760        33
49.770         7
49.780        27
49.790        33
49.800        33
49.810        53
49.820        40
49.830        33
49.840        53
49.850        53
49.860        27
49.870        27
49.880        20
49.890        20
49.900        33
49.910        47
49.920        40
49.930        40
49.940        33
49.950         7
49.960        47
49.970        40
49.980        27
49.990        33
50.000         7
50.010        67
50.020        27
50.030        13
50.040        33
50.050        13
50.060        53
50.070        13
50.080        20
50.090        40
50.100        67
50.110        47
50.120        47
50.130        40
50.140        47
50.150        53
50.160        47
50.170         7
50.180        27
50.190        53
50.200        20
50.210         0
50.220        47
50.230        33
50.240        20
50.250        33
50.260        13
50.270        40
50.280        20
50.290        27
50.300        20
50.310        27
50.320        33
50.330        20
50.340        33
50.350         7
50.360        33
50.370        27
50.380        13
50.390        13
50.400        27
50.410        53
50.420         7
50.430        20
50.440        47
50.450        27
50.460        27
50.470        13
50.480        20
50.490        47
50.500        47
50.510        33
50.520        20
50.530        47
50.540        47
50.550        47
50.560        67
50.570         7
50.580        20
50.590        40
50.600        13
50.610        33
50.620        27
50.630        53
50.640        27
50.650        40
50.660        53
50.670        53
50.680        20
50.690        47
50.700        47
50.710        73
50.720        33
50.730        53
50.740        40
50.750        47
50.760        47
50.770        47
50.780        40
50.790        80
50.800        53
50.810        87
50.820        47
50.830        67
50.840        53
50.850        20
50.860        47
50.870        47
50.880        53
50.890        40
50.900        80
50.910        33
50.920        60
50.930        67
50.940        80
50.950        73
50.960        13
50.970        40
50.980        47
50.990        33
51.000        47
51.010        40
51.020        40
51.030        27
51.040        47
51.050        87
51.060        53
51.070        80
51.080       100
51.090        93
51.100        27
51.110       107
51.120        33
51.130        67
51.140        60
51.150        73
51.160        80
51.170        67
51.180       107
51.190       120
51.200       100
51.210        40
51.220        67
51.230        47
51.240        60
51.250        47
51.260        53
51.270        53
51.280        33
51.290        73
51.300        47
51.310        80
51.320        67
51.330       120
51.340        80
51.350        87
51.360        53
51.370       107
51.380        80
51.390        60
51.400        67
51.410        80
51.420        73
51.430        80
51.440        80
51.450        80
51.460        53
51.470        87
51.480        80
51.490        73
51.500        93
51.510        67
51.520        53
51.530        40
51.540        53
51.550        60
51.560        73
51.570        73
51.580        67
51.590        60
51.600       107
51.610        33
51.620        87
51.630        53
51.640       107
51.650       100
51.660        80
51.670        93
51.680        87
51.690        67
51.700        53
51.710        53
51.720        47
51.730        87
51.740        60
51.750        93
51.760       120
51.770       107
51.780        87
51.790        87
51.800       107
51.810       120
51.820        67
51.830       107
51.840       113
51.850       133
51.860       173
51.870       113
51.880       107
51.890       140
51.900       140
51.910       140
51.920       147
51.930       100
51.940       147
51.950       127
51.960        93
51.970       140
51.980       133
51.990       167
52.000       167
52.010       147
52.020       180
52.030       147
52.040       167
52.050       120
52.060       180
52.070       153
52.080       160
52.090       153
52.100       187
52.110       200
52.120       127
52.130       100
52.140       127
52.150       160
52.160       133
52.170       180
52.180       180
52.190       153
52.200       120
52.210       127
52.220       200
52.230       193
52.240       213
52.250       193
52.260       247
52.270       187
52.280       280
52.290       353
52.300       373
52.310       300
52.320       380
52.330       287
52.340       373
52.350       300
52.360       387
52.370       373
52.380       353
52.390       400
52.400       393
52.410       420
52.420       540
52.430       460
52.440       620
52.450       833
52.460      1053
52.470      1160
52.480      1599
52.490      2419
52.500      3485
52.510      4745
52.520      7857
52.530     12935
52.540     17620
52.550     21891
52.560     23271
52.570     22344
52.580     20265
52.590     17913
52.600     13981
52.610     10516
52.620      7404
52.630      5471
52.640      4851
52.650      5511
52.660      6751
52.670      8856
52.680     11855
52.690     13401
52.700     14401
52.710     14274
52.720     12655
52.730     11275
52.740      8710
52.750      6417
52.760      4312
52.770      2912
52.780      2046
52.790      1973
52.800      1766
52.810      1966
52.820      1633
52.830      1853
52.840      1619
52.850      1146
52.860      1200
52.870      1046
52.880       840
52.890       693
52.900       446
52.910       360
52.920       380
52.930       353
52.940       220
52.950       267
52.960       267
52.970       333
52.980       193
52.990       273
53.000       193
53.010       227
53.020       173
53.030       153
53.040       153
53.050       180
53.060       153
53.070       173
53.080       127
53.090       147
53.100       120
53.110       160
53.120       140
53.130       147
53.140       187
53.150       153
53.160       180
53.170       167
53.180       147
53.190        93
53.200       153
53.210        87
53.220       113
53.230       113
53.240       107
53.250       133
53.260        93
53.270       100
53.280       140
53.290       107
53.300       120
53.310       140
53.320        80
53.330       140
53.340        93
53.350        80
53.360       100
53.370       127
53.380       120
53.390       147
53.400        87
53.410       113
53.420       120
53.430        93
53.440       147
53.450        93
53.460        87
53.470       107
53.480       127
53.490        73
53.500        87
53.510       107
53.520       120
53.530        67
53.540        80
53.550        67
53.560       113
53.570       113
53.580       100
53.590        53
53.600       113
53.610       113
53.620        73
53.630       100
53.640        73
53.650       107
53.660        87
53.670        93
53.680        87
53.690       100
53.700        73
53.710        87
53.720        93
53.730       133
53.740        60
53.750       120
53.760        87
53.770       100
53.780       133
53.790       113
53.800        93
53.810        87
53.820        93
53.830       113
53.840        53
53.850       127
53.860       127
53.870        80
53.880        87
53.890        87
53.900       113
53.910        87
53.920        67
53.930        53
53.940        87
53.950       120
53.960       100
53.970       100
53.980        93
53.990        67
54.000        73
54.010        73
54.020        87
54.030        73
54.040        53
54.050        73
54.060        93
54.070        93
54.080        67
54.090        40
54.100        53
54.110       100
54.120        73
54.130        87
54.140        73
54.150        60
54.160        87
54.170        60
54.180        73
54.190       100
54.200        93
54.210        87
54.220        87
54.230        60
54.240        73
54.250        60
54.260        53
54.270        80
54.280        47
54.290        67
54.300        60
54.310        67
54.320        53
54.330        40
54.340        60
54.350        47
54.360        80
54.370        93
54.380        60
54.390        47
54.400        93
54.410        60
54.420       120
54.430        73
54.440        53
54.450        80
54.460        27
54.470        80
54.480        80
54.490       100
54.500        47
54.510        80
54.520        60
54.530        27
54.540        80
54.550        47
54.560        27
54.570        67
54.580        53
54.590        67
54.600        73
54.610       113
54.620        87
54.630        73
54.640        53
54.650        73
54.660        93
54.670        60
54.680       120
54.690        60
54.700        73
54.710        80
54.720        53
54.730        67
54.740        60
54.750        40
54.760        87
54.770       120
54.780       107
54.790        73
54.800       113
54.810        73
54.820       100
54.830        73
54.840        33
54.850        67
54.860        80
54.870        73
54.880        73
54.890        73
54.900        80
54.910       133
54.920        80
54.930        60
54.940        87
54.950        53
54.960        67
54.970        60
54.980        47
54.990        73
55.000        73
55.010        67
55.020        60
55.030        67
55.040        67
55.050        40
55.060       100
55.070        60
55.080        87
55.090        73
55.100        73
55.110        47
55.120        80
55.130        60
55.140        93
55.150        60
55.160       100
55.170        73
55.180        73
55.190        67
55.200        73
55.210        53
55.220        47
55.230        93
55.240        80
55.250        13
55.260        80
55.270        67
55.280        53
55.290        60
55.300       100
55.310        33
55.320        87
55.330       113
55.340        93
55.350        53
55.360        40
55.370        87
55.380        93
55.390        80
55.400        73
55.410        47
55.420        60
55.430        40
55.440        73
55.450        67
55.460        60
55.470        80
55.480        93
55.490        27
55.500        53
55.510        53
55.520        87
55.530        60
55.540        87
55.550        80
55.560        93
55.570        80
55.580        73
55.590        33
55.600        80
55.610        47
55.620        67
55.630        67
55.640        40
55.650        67
55.660        80
55.670        73
55.680        80
55.690        67
55.700        60
55.710        87
55.720        33
55.730        73
55.740        87
55.750       100
55.760        53
55.770        53
55.780        87
55.790        20
55.800        53
55.810        93
55.820        53
55.830        60
55.840        60
55.850        93
55.860       107
55.870       100
55.880        67
55.890       120
55.900        53
55.910        80
55.920        73
55.930       120
55.940        87
55.950       100
55.960       107
55.970       100
55.980        47
55.990        60
56.000        80
56.010        73
56.020        87
56.030       107
56.040       100
56.050        93
56.060        80
56.070        47
56.080        93
56.090        67
56.100        93
56.110        80
56.120        47
56.130        80
56.140        67
56.150        60
56.160       107
56.170       100
56.180        67
56.190        60
56.200        80
56.210        60
56.220       120
56.230        33
56.240        80
56.250        67
56.260        73
56.270        60
56.280       100
56.290        73
56.300        47
56.310        60
56.320        67
56.330        87
56.340        67
56.350        53
56.360        67
56.370        53
56.380        73
56.390        73
56.400        67
56.410        80
56.420        60
56.430        60
56.440        47
56.450        60
56.460        60
56.470        73
56.480        73
56.490        53
56.500       153
56.510       107
56.520        40
56.530        53
56.540        93
56.550       107
56.560        47
56.570        53
56.580        40
56.590        60
56.600        87
56.610        60
56.620       100
56.630        73
56.640        80
56.650        73
56.660        53
56.670        53
56.680        73
56.690       107
56.700        73
56.710        87
56.720        53
56.730        53
56.740        87
56.750        60
56.760        47
56.770        73
56.780        33
56.790        67
56.800       100
56.810        93
56.820        53
56.830        47
56.840        33
56.850        67
56.860        47
56.870        67
56.880        33
56.890        33
56.900        80
56.910        93
56.920        60
56.930        60
56.940        47
56.950        60
56.960        67
56.970        73
56.980       133
56.990        67
57.000        27
57.010        60
57.020        60
57.030        53
57.040        53
57.050        53
57.060        60
57.070        73
57.080        80
57.090        60
57.100        33
57.110        53
57.120        60
57.130        53
57.140        53
57.150        67
57.160        67
57.170        80
57.180        60
57.190        47
57.200        47
57.210        53
57.220        73
57.230        67
57.240        67
57.250        20
57.260        80
57.270        80
57.280       120
57.290        80
57.300        13
57.310        73
57.320        53
57.330       127
57.340        73
57.350       100
57.360        53
57.370        27
57.380        60
57.390        73
57.400        60
57.410       120
57.420        87
57.430       100
57.440       113
57.450       140
57.460        47
57.470       100
57.480        80
57.490        67
57.500        80
57.510        93
57.520       100
57.530        53
57.540        67
57.550       100
57.560        73
57.570        67
57.580        60
57.590        47
57.600        47
57.610        67
57.620       133
57.630        53
57.640        80
57.650        80
57.660        93
57.670        47
57.680        80
57.690       107
57.700       120
57.710        87
57.720        27
57.730        80
57.740        60
57.750        67
57.760        60
57.770        53
57.780        87
57.790        60
57.800        67
57.810        87
57.820        87
57.830        53
57.840        27
57.850        60
57.860        87
57.870        47
57.880        87
57.890        73
57.900        53
57.910        80
57.920        47
57.930        60
57.940        87
57.950        53
57.960        60
57.970        80
57.980        47
57.990        53
58.000        40
58.010        87
58.020        60
58.030        40
58.040        60
58.050        93
58.060        73
58.070        53
58.080       113
58.090       120
58.100        53
58.110        60
58.120        53
58.130       107
58.140        60
58.150        87
58.160        47
58.170        40
58.180        47
58.190        47
58.200        47
58.210        73
58.220        33
58.230        87
58.240        53
58.250        73
58.260        40
58.270        40
58.280        53
58.290        40
58.300        53
58.310       100
58.320        67
58.330        40
58.340        67
58.350        87
58.360        40
58.370        73
58.380        33
58.390        40
58.400        73
58.410        80
58.420        73
58.430        73
58.440        47
58.450        80
58.460        47
58.470        47
58.480        60
58.490        27
58.500        93
58.510        67
58.520        67
58.530        87
58.540        40
58.550        67
58.560        60
58.570        13
58.580        47
58.590        33
58.600        47
58.610        40
58.620       107
58.630        73
58.640        93
58.650        60
58.660        53
58.670        60
58.680        40
58.690        27
58.700        87
58.710        47
58.720        40
58.730        67
58.740        53
58.750        47
58.760        60
58.770        53
58.780        73
58.790        73
58.800        47
58.810        67
58.820       107
58.830        47
58.840        33
58.850        60
58.860        60
58.870        73
58.880       100
58.890        60
58.900        40
58.910        73
58.920        53
58.930        33
58.940        53
58.950        53
58.960        87
58.970       100
58.980        67
58.990        67
59.000        67
59.010        60
59.020        53
59.030        40
59.040        47
59.050        27
59.060        60
59.070        40
59.080        80
59.090        87
59.100        27
59.110        60
59.120        47
59.130        67
59.140        53
59.150        67
59.160        20
59.170        53
59.180        67
59.190        87
59.200        67
59.210       127
59.220        47
59.230        60
59.240        67
59.250        47
59.260        87
59.270        73
59.280        53
59.290        33
59.300        67
59.310        60
59.320        80
59.330        67
59.340        27
59.350        27
59.360        53
59.370        13
59.380        73
59.390        67
59.400       100
59.410        47
59.420        33
59.430        67
59.440        73
59.450        73
59.460        73
59.470        67
59.480        47
59.490        40
59.500        47
59.510        67
59.520        60
59.530        93
59.540        73
59.550        27
59.560        53
59.570        53
59.580        53
59.590        40
59.600        60
59.610       113
59.620        20
59.630        40
59.640        73
59.650        47
59.660        47
59.670        53
59.680        53
59.690        80
59.700        80
59.710        27
59.720        47
59.730        60
59.740        60
59.750        73
59.760        47
59.770        67
59.780        73
59.790        80
59.800       107
59.810        80
59.820        33
59.830        80
59.840       100
59.850        60
59.860        47
59.870        53
59.880        60
59.890        27
59.900        53
59.910        67
59.920        33
59.930        27
59.940        87
59.950        60
59.960        60
59.970        73
59.980        47
59.990        33
60.000        33
