20.000        33
20.010        40
20.020        27
20.030        67
20.040        27
20.050        47
20.060        93
20.070        40
20.080        40
20.090        53
20.100        40
20.110        47
20.120        20
20.130        47
20.140        33
20.150        53
20.160        47
20.170        20
20.180        20
20.190        20
20.200        27
20.210        47
20.220        40
20.230        53
20.240        53
20.250        20
20.260        33
20.270        27
20.280        53
20.290        47
20.300        33
20.310        33
20.320        53
20.330        47
20.340        33
20.350        47
20.360        47
20.370        67
20.380        67
20.390        27
20.400        33
20.410        53
20.420        40
20.430         0
20.440        53
20.450        33
20.460        53
20.470        27
20.480        33
20.490        47
20.500        40
20.510        47
20.520        53
20.530        47
20.540        27
20.550        33
20.560        20
20.570        67
20.580        53
20.590        27
20.600        20
20.610        27
20.620        33
20.630        67
20.640        13
20.650        67
20.660        60
20.670        40
20.680        40
20.690        20
20.700        73
20.710        20
20.720        67
20.730        27
20.740        40
20.750        20
20.760        47
20.770        53
20.780        33
20.790        60
20.800        80
20.810        60
20.820        33
20.830        13
20.840        33
20.850        47
20.860        40
20.870        47
20.880        27
20.890        53
20.900        60
20.910        33
20.920        47
20.930        33
20.940        60
20.950        53
20.960        33
20.970        40
20.980        53
20.990        47
21.000        27
21.010        40
21.020        33
21.030        47
21.040        47
21.050        60
21.060        33
21.070        60
21.080        47
21.090        33
21.100        47
21.110        93
21.120        20
21.130        60
21.140        20
21.150        73
21.160        33
21.170        20
21.180        67
21.190        20
21.200        27
21.210        47
21.220        33
21.230        13
21.240        33
21.250        47
21.260        40
21.270        27
21.280        40
21.290        20
21.300        20
21.310        40
21.320        53
21.330        40
21.340        33
21.350        20
21.360        60
21.370        27
21.380        20
21.390        47
21.400        60
21.410        13
21.420        33
21.430        27
21.440        40
21.450        33
21.460        20
21.470        27
21.480        13
21.490        40
21.500        13
21.510        27
21.520        47
21.530        60
21.540        33
21.550        40
21.560        20
21.570        33
21.580        27
21.590        20
21.600        20
21.610        20
21.620        33
21.630        33
21.640        80
21.650        40
21.660        40
21.670        40
21.680        60
21.690        60
21.700        47
21.710        20
21.720        53
21.730        33
21.740        13
21.750        40
21.760        20
21.770        20
21.780        27
21.790        53
21.800        47
21.810        33
21.820        27
21.830        47
21.840        67
21.850        27
21.860        13
21.870        27
21.880        53
21.890        20
21.900        40
21.910        27
21.920        47
21.930        67
21.940        13
21.950        47
21.960        40
21.970        20
21.980        47
21.990        40
22.000        47
22.010        47
22.020        67
22.030        40
22.040        40
22.050        33
22.060        27
22.070        20
22.080         7
22.090        20
22.100        73
22.110        67
22.120        33
22.130         7
22.140        40
22.150        20
22.160        60
22.170        40
22.180        53
22.190        40
22.200        27
22.210        47
22.220        40
22.230        20
22.240        27
22.250        20
22.260        47
22.270        47
22.280        40
22.290        27
22.300        47
22.310        40
22.320        53
22.330        40
22.340        67
22.350        40
22.360        27
22.370        40
22.380        53
22.390        13
22.400        73
22.410        33
22.420        27
22.430        33
22.440        33
22.450        47
22.460        27
22.470        27
22.480        40
22.490        80
22.500        60
22.510        47
22.520        53
22.530        47
22.540        13
22.550        47
22.560        53
22.570        53
22.580        40
22.590        40
22.600        67
22.610        80
22.620        33
22.630        20
22.640        60
22.650        47
22.660        80
22.670        53
22.680        87
22.690        67
22.700       120
22.710       120
22.720        47
22.730       127
22.740        47
22.750        40
22.760        60
22.770        60
22.780        87
22.790        40
22.800        27
22.810        60
22.820        67
22.830        73
22.840        53
22.850        93
22.860        53
22.870        53
22.880        73
22.890        53
22.900        73
22.910        60
22.920        27
22.930        40
22.940        47
22.950        20
22.960        20
22.970        27
22.980        27
22.990        60
23.000        67
23.010        60
23.020        27
23.030        40
23.040        27
23.050        20
23.060        27
23.070        27
23.080        60
23.090        47
23.100        27
23.110        40
23.120        27
23.130        20
23.140        40
23.150        47
23.160        40
23.170        40
23.180        27
23.190       100
23.200        47
23.210        20
23.220        40
23.230        33
23.240        33
23.250        27
23.260        33
23.270        60
23.280        67
23.290        60
23.300        20
23.310        47
23.320        20
23.330        53
23.340        47
23.350        27
23.360        27
23.370        27
23.380        33
23.390         7
23.400        20
23.410        47
23.420        47
23.430        27
23.440        20
23.450        33
23.460        27
23.470        20
23.480        20
23.490        20
23.500        40
23.510        40
23.520        47
23.530        53
23.540        27
23.550         7
23.560        27
23.570        40
23.580        20
23.590        33
23.600        33
23.610         7
23.620        33
23.630        20
23.640        47
23.650        27
23.660        80
23.670        47
23.680        47
23.690        20
23.700        60
23.710        27
23.720        47
23.730        33
23.740        33
23.750        53
23.760        40
23.770        40
23.780        13
23.790        53
23.800        20
23.810        47
23.820        13
23.830        40
23.840        33
23.850        27
23.860        73
23.870        27
23.880        27
23.890        40
23.900        33
23.910        27
23.920        13
23.930        20
23.940        53
23.950        53
23.960        40
23.970         7
23.980        27
23.990        47
24.000        27
24.010        40
24.020        60
24.030        20
24.040        20
24.050        33
24.060        13
24.070        40
24.080        60
24.090         0
24.100        13
24.110        20
24.120        40
24.130         7
24.140        33
24.150        13
24.160         7
24.170        40
24.180        27
24.190        47
24.200         0
24.210        20
24.220        33
24.230        33
24.240        27
24.250        20
24.260        53
24.270        33
24.280        40
24.290        33
24.300        20
24.310        33
24.320        53
24.330        27
24.340        40
24.350         7
24.360        33
24.370        13
24.380        33
24.390        40
24.400        53
24.410        40
24.420        27
24.430        47
24.440        13
24.450         7
24.460        13
24.470        40
24.480        27
24.490        47
24.500        40
24.510        20
24.520        13
24.530        20
24.540        47
24.550        47
24.560        47
24.570        13
24.580        60
24.590        40
24.600        20
24.610        27
24.620        20
24.630        40
24.640        33
24.650        47
24.660        27
24.670        40
24.680        27
24.690        47
24.700        40
24.710        27
24.720        53
24.730        33
24.740        27
24.750        13
24.760        13
24.770        47
24.780        13
24.790        33
24.800        20
24.810        33
24.820        20
24.830        33
24.840        47
24.850        27
24.860        40
24.870        20
24.880        33
24.890        27
24.900        53
24.910        20
24.920        47
24.930        60
24.940        47
24.950        13
24.960        33
24.970        47
24.980        47
24.990        53
25.000        20
25.010        60
25.020        47
25.030        40
25.040        40
25.050        20
25.060        47
25.070        33
25.080        27
25.090        53
25.100        20
25.110        33
25.120        27
25.130        40
25.140        27
25.150        47
25.160         7
25.170        20
25.180        20
25.190        20
25.200        27
25.210        20
25.220        13
25.230        27
25.240        27
25.250        20
25.260        33
25.270        20
25.280        27
25.290        13
25.300        13
25.310        33
25.320        27
25.330        53
25.340        53
25.350        33
25.360        33
25.370        47
25.380        40
25.390        47
25.400        60
25.410        40
25.420        47
25.430        33
25.440        40
25.450        47
25.460        53
25.470        60
25.480        53
25.490        27
25.500        27
25.510        40
25.520        33
25.530        67
25.540        80
25.550        53
25.560        47
25.570        47
25.580        40
25.590        60
25.600        60
25.610        47
25.620        80
25.630        80
25.640        73
25.650        33
25.660        87
25.670        73
25.680        67
25.690        27
25.700        40
25.710        53
25.720        47
25.730        40
25.740        53
25.750        40
25.760        27
25.770        73
25.780        40
25.790        40
25.800        40
25.810         0
25.820        60
25.830        73
25.840        27
25.850        33
25.860        20
25.870        47
25.880        33
25.890        33
25.900        27
25.910        27
25.920        47
25.930        20
25.940        27
25.950        20
25.960        20
25.970        27
25.980        20
25.990        40
26.000        47
26.010        20
26.020        13
26.030        40
26.040        27
26.050        27
26.060        20
26.070        40
26.080        33
26.090        40
26.100        33
26.110        40
26.120        40
26.130        27
26.140        27
26.150        27
26.160        27
26.170        47
26.180        27
26.190        27
26.200        20
26.210        73
26.220        53
26.230        53
26.240        73
26.250        13
26.260        27
26.270        40
26.280        13
26.290        27
26.300        27
26.310        53
26.320        40
26.330        33
26.340        27
26.350        27
26.360        20
26.370        60
26.380        27
26.390        40
26.400        40
26.410        53
26.420         0
26.430        40
26.440        33
26.450        33
26.460        13
26.470        47
26.480        13
26.490        20
26.500        27
26.510        33
26.520        20
26.530        13
26.540        33
26.550        33
26.560        60
26.570        40
26.580        53
26.590        33
26.600        33
26.610        47
26.620        60
26.630        20
26.640        40
26.650        33
26.660        53
26.670        27
26.680        80
26.690        33
26.700        47
26.710        27
26.720        13
26.730        20
26.740        20
26.750        13
26.760        60
26.770        13
26.780        53
26.790        47
26.800        33
26.810        60
26.820        33
26.830        27
26.840        27
26.850        33
26.860         7
26.870        33
26.880        47
26.890        53
26.900        47
26.910        67
26.920        20
26.930        27
26.940        53
26.950        27
26.960        47
26.970        20
26.980        27
26.990        20
27.000        47
27.010        20
27.020        33
27.030        60
27.040        27
27.050        27
27.060        33
27.070        40
27.080        13
27.090         7
27.100        47
27.110        13
27.120         7
27.130        27
27.140        20
27.150         7
27.160        20
27.170        13
27.180        20
27.190         7
27.200        27
27.210        20
27.220        20
27.230         7
27.240        27
27.250        27
27.260        27
27.270        20
27.280        27
27.290        40
27.300        27
27.310        40
27.320        33
27.330        27
27.340        60
27.350        47
27.360        53
27.370        13
27.380        47
27.390        20
27.400        33
27.410        47
27.420        27
27.430        20
27.440        47
27.450        33
27.460        40
27.470        40
27.480        40
27.490        27
27.500        40
27.510        40
27.520        20
27.530        60
27.540        27
27.550        47
27.560        40
27.570        67
27.580        53
27.590        27
27.600        33
27.610        40
27.620        67
27.630        47
27.640        53
27.650        33
27.660        40
27.670        53
27.680        40
27.690        47
27.700        73
27.710        47
27.720        40
27.730        53
27.740        80
27.750        47
27.760       113
27.770       127
27.780       113
27.790        67
27.800        93
27.810        67
27.820       113
27.830        87
27.840        67
27.850        53
27.860        93
27.870        47
27.880        73
27.890        67
27.900        73
27.910        53
27.920        47
27.930        60
27.940        33
27.950        87
27.960        60
27.970        47
27.980        33
27.990        33
28.000        47
28.010        53
28.020        40
28.030        60
28.040        53
28.050        53
28.060        33
28.070        40
28.080        47
28.090        53
28.100        60
28.110        33
28.120        33
28.130        73
28.140        33
28.150        73
28.160        80
28.170        33
28.180        33
28.190        47
28.200        53
28.210        20
28.220        33
28.230        27
28.240        60
28.250        40
28.260        60
28.270        20
28.280        27
28.290        53
28.300        60
28.310        60
28.320        33
28.330        60
28.340        33
28.350        60
28.360        67
28.370        27
28.380        27
28.390        40
28.400        27
28.410        47
28.420        47
28.430        47
28.440        40
28.450         7
28.460        47
28.470        33
28.480        53
28.490        60
28.500        27
28.510        27
28.520        27
28.530        20
28.540        53
28.550        53
28.560        47
28.570        47
28.580        27
28.590        27
28.600        40
28.610        87
28.620        33
28.630        53
28.640        27
28.650        60
28.660        27
28.670        53
28.680        60
28.690        53
28.700        27
28.710        60
28.720        53
28.730        60
28.740        20
28.750        53
28.760        53
28.770        53
28.780        47
28.790        53
28.800        60
28.810        73
28.820        80
28.830        87
28.840        87
28.850        87
28.860        80
28.870        80
28.880       107
28.890       120
28.900       107
28.910       100
28.920       153
28.930       127
28.940       107
28.950       113
28.960       180
28.970       173
28.980       180
28.990       127
29.000       133
29.010       193
29.020       107
29.030       120
29.040       120
29.050       167
29.060       127
29.070       133
29.080       193
29.090        93
29.100       100
29.110        73
29.120       133
29.130       153
29.140       153
29.150        87
29.160       127
29.170       173
29.180        93
29.190        80
29.200        93
29.210       107
29.220       147
29.230        67
29.240        73
29.250        60
29.260        60
29.270        60
29.280        40
29.290        67
29.300        67
29.310        40
29.320        53
29.330        60
29.340        53
29.350        47
29.360        33
29.370         7
29.380        40
29.390        53
29.400        40
29.410        40
29.420        27
29.430        33
29.440        67
29.450        33
29.460        40
29.470        53
29.480        33
29.490        27
29.500        13
29.510        60
29.520        27
29.530        40
29.540        40
29.550        27
29.560        27
29.570        20
29.580        27
29.590        67
29.600        47
29.610        67
29.620        20
29.630        33
29.640        47
29.650        60
29.660        47
29.670        40
29.680        40
29.690        40
29.700        33
29.710        20
29.720        47
29.730        40
29.740        20
29.750        33
29.760        20
29.770        20
29.780        33
29.790        40
29.800        53
29.810        27
29.820        13
29.830         7
29.840        13
29.850        40
29.860         7
29.870        20
29.880        20
29.890        27
29.900        27
29.910        27
29.920        40
29.930        20
29.940        67
29.950        27
29.960        27
29.970        13
29.980        33
29.990        33
30.000        20
30.010        40
30.020        33
30.030        27
30.040        27
30.050        33
30.060        27
30.070        13
30.080        60
30.090        27
30.100        33
30.110        33
30.120        53
30.130        20
30.140        13
30.150        20
30.160        47
30.170        33
30.180        47
30.190        20
30.200        27
30.210        40
30.220         7
30.230        20
30.240        27
30.250        13
30.260        20
30.270        33
30.280        13
30.290        13
30.300        27
30.310        20
30.320        20
30.330         7
30.340        60
30.350        33
30.360        53
30.370        33
30.380        27
30.390        27
30.400        40
30.410        13
30.420        47
30.430        40
30.440        27
30.450        67
30.460        53
30.470        20
30.480        67
30.490        80
30.500        53
30.510        47
30.520        33
30.530        40
30.540        47
30.550        33
30.560        60
30.570        33
30.580        53
30.590        47
30.600        27
30.610        60
30.620        33
30.630        13
30.640        47
30.650        27
30.660         0
30.670        13
30.680        13
30.690        40
30.700        40
30.710         7
30.720        33
30.730        40
30.740        40
30.750        27
30.760        53
30.770         7
30.780        47
30.790        33
30.800        47
30.810         7
30.820        27
30.830        27
30.840        27
30.850        47
30.860        47
30.870        13
30.880         7
30.890        27
30.900        20
30.910        27
30.920        27
30.930        27
30.940        20
30.950        60
30.960        33
30.970        27
30.980        20
30.990        27
31.000        13
31.010        13
31.020        33
31.030        47
31.040         7
31.050        20
31.060        13
31.070        33
31.080        27
31.090        47
31.100        20
31.110        60
31.120        20
31.130        20
31.140        13
31.150        13
31.160        27
31.170        13
31.180        27
31.190         7
31.200        20
31.210        53
31.220        13
31.230        20
31.240        33
31.250        40
31.260        40
31.270        53
31.280        47
31.290        60
31.300        20
31.310        60
31.320        47
31.330        33
31.340        20
31.350        47
31.360        13
31.370        20
31.380        53
31.390        60
31.400        20
31.410        27
31.420        40
31.430        13
31.440        33
31.450        27
31.460        33
31.470        27
31.480        27
31.490        27
31.500        33
31.510         7
31.520        47
31.530        73
31.540        40
31.550        33
31.560        27
31.570        13
31.580        20
31.590        47
31.600        33
31.610        40
31.620        27
31.630        40
31.640        13
31.650        13
31.660        20
31.670        13
31.680        27
31.690         7
31.700        13
31.710        20
31.720        27
31.730        33
31.740        33
31.750         0
31.760        13
31.770        20
31.780        33
31.790        20
31.800        53
31.810        13
31.820        33
31.830        27
31.840        20
31.850         7
31.860        27
31.870         7
31.880        33
31.890        33
31.900        60
31.910        47
31.920        13
31.930        40
31.940        27
31.950        20
31.960        20
31.970        40
31.980        20
31.990        20
32.000        20
32.010        53
32.020        53
32.030        33
32.040        60
32.050        33
32.060        47
32.070        40
32.080        53
32.090       100
32.100        33
32.110        73
32.120        47
32.130        80
32.140        27
32.150        20
32.160        67
32.170        87
32.180        73
32.190        60
32.200        47
32.210        73
32.220        47
32.230        13
32.240        53
32.250       100
32.260        53
32.270        60
32.280        60
32.290        73
32.300        67
32.310        27
32.320        20
32.330        53
32.340        53
32.350        40
32.360        60
32.370        53
32.380        20
32.390        27
32.400        27
32.410        33
32.420        27
32.430        13
32.440        20
32.450        53
32.460        40
32.470         7
32.480        13
32.490        27
32.500        20
32.510        20
32.520         7
32.530        27
32.540        33
32.550        47
32.560        13
32.570        33
32.580        33
32.590        13
32.600        27
32.610         7
32.620        40
32.630        20
32.640         7
32.650        13
32.660         0
32.670        27
32.680        40
32.690        13
32.700        47
32.710        33
32.720        67
32.730        20
32.740        20
32.750        20
32.760        20
32.770         7
32.780        33
32.790        40
32.800         7
32.810        27
32.820        20
32.830         7
32.840        20
32.850        20
32.860        20
32.870        13
32.880        33
32.890        20
32.900        33
32.910         7
32.920        20
32.930        13
32.940        27
32.950        27
32.960        20
32.970        20
32.980        27
32.990        13
33.000        33
33.010         7
33.020        20
33.030        27
33.040        20
33.050        13
33.060         0
33.070        13
33.080        20
33.090        33
33.100        27
33.110        47
33.120        27
33.130         0
33.140         0
33.150        20
33.160        20
33.170         7
33.180        20
33.190        33
33.200        27
33.210        27
33.220        47
33.230        33
33.240        27
33.250        13
33.260        13
33.270        27
33.280        13
33.290        20
33.300         7
33.310        13
33.320        27
33.330        13
33.340         7
33.350         0
33.360        33
33.370        47
33.380        33
33.390        20
33.400        20
33.410        27
33.420        40
33.430        13
33.440        40
33.450        33
33.460         7
33.470        13
33.480        27
33.490        13
33.500        27
33.510        27
33.520        60
33.530         7
33.540         7
33.550        13
33.560        20
33.570        20
33.580        20
33.590        33
33.600        13
33.610        27
33.620         7
33.630        40
33.640         7
33.650        20
33.660        13
33.670        13
33.680        33
33.690        47
33.700         7
33.710        13
33.720        13
33.730        27
33.740        47
33.750        13
33.760        13
33.770         7
33.780        13
33.790        33
33.800        20
33.810        53
33.820        33
33.830        13
33.840        33
33.850         7
33.860        20
33.870        40
33.880        40
33.890        20
33.900        20
33.910        47
33.920        33
33.930        20
33.940        27
33.950         7
33.960        47
33.970         7
33.980        20
33.990        27
34.000        13
34.010        27
34.020        47
34.030        33
34.040         7
34.050         7
34.060        33
34.070        13
34.080         7
34.090        40
34.100        33
34.110        33
34.120        13
34.130        27
34.140        33
34.150        27
34.160        20
34.170        13
34.180         7
34.190         0
34.200        20
34.210        20
34.220        27
34.230        13
34.240        20
34.250         7
34.260        13
34.270        27
34.280        20
34.290        13
34.300        13
34.310        33
34.320        27
34.330        13
34.340         0
34.350         7
34.360         7
34.370        13
34.380        20
34.390        47
34.400        13
34.410        13
34.420         7
34.430        20
34.440        13
34.450         7
34.460        27
34.470        33
34.480         7
34.490        20
34.500         7
34.510         7
34.520        20
34.530         7
34.540        27
34.550        47
34.560        27
34.570        20
34.580        13
34.590        33
34.600        27
34.610        47
34.620        47
34.630        27
34.640        47
34.650        33
34.660        20
34.670        13
34.680        60
34.690        13
34.700        20
34.710         7
34.720        33
34.730        13
34.740        27
34.750        33
34.760        60
34.770        27
34.780        53
34.790        40
34.800        27
34.810        27
34.820        13
34.830        47
34.840        27
34.850        27
34.860        13
34.870        13
34.880        13
34.890        53
34.900        13
34.910        13
34.920        33
34.930         7
34.940         7
34.950        27
34.960         7
34.970        33
34.980        27
34.990        20
35.000        13
35.010        33
35.020        33
35.030        27
35.040        33
35.050         7
35.060        13
35.070         7
35.080        47
35.090        47
35.100        33
35.110         7
35.120        33
35.130        13
35.140        27
35.150        13
35.160        13
35.170         7
35.180        27
35.190         7
35.200        40
35.210        27
35.220        27
35.230        13
35.240        27
35.250        13
35.260        27
35.270        33
35.280        33
35.290        20
35.300        27
35.310        27
35.320        13
35.330        13
35.340        27
35.350        13
35.360        27
35.370        13
35.380         7
35.390         0
35.400        33
35.410        20
35.420        27
35.430        27
35.440        20
35.450        13
35.460        33
35.470        60
35.480        20
35.490        20
35.500        40
35.510        33
35.520        33
35.530        13
35.540        13
35.550        27
35.560        13
35.570         7
35.580        27
35.590        20
35.600        20
35.610         7
35.620        33
35.630         7
35.640         0
35.650        20
35.660        27
35.670        13
35.680         7
35.690        27
35.700        20
35.710        13
35.720        47
35.730        13
35.740        20
35.750        47
35.760         7
35.770        47
35.780        27
35.790         7
35.800         7
35.810         7
35.820        27
35.830        13
35.840         7
35.850         7
35.860        20
35.870         7
35.880        27
35.890        53
35.900        20
35.910        20
35.920        27
35.930        13
35.940        40
35.950         0
35.960         0
35.970        20
35.980        33
35.990        20
36.000        20
36.010        27
36.020        13
36.030        13
36.040        33
36.050        33
36.060        27
36.070        27
36.080        27
36.090         7
36.100         7
36.110        13
36.120        20
36.130        20
36.140        27
36.150         7
36.160        33
36.170         0
36.180        20
36.190        13
36.200        33
36.210        33
36.220        20
36.230         7
36.240        20
36.250        13
36.260        20
36.270        27
36.280         7
36.290        33
36.300        20
36.310        27
36.320        33
36.330        27
36.340        13
36.350        20
36.360        13
36.370        20
36.380        40
36.390         7
36.400        27
36.410        20
36.420        13
36.430        20
36.440        20
36.450        13
36.460        20
36.470        53
36.480        13
36.490        20
36.500        27
36.510        20
36.520        13
36.530        13
36.540         7
36.550        53
36.560        47
36.570        20
36.580        27
36.590         7
36.600         7
36.610        13
36.620        20
36.630        20
36.640        27
36.650        27
36.660        47
36.670        27
36.680        27
36.690         7
36.700        20
36.710        13
36.720        20
36.730        53
36.740         7
36.750         7
36.760        13
36.770        27
36.780         7
36.790        33
36.800        20
36.810        27
36.820        27
36.830         7
36.840        13
36.850         7
36.860        33
36.870        27
36.880        27
36.890        20
36.900        40
36.910        13
36.920         7
36.930        27
36.940         7
36.950        47
36.960        20
36.970        20
36.980        40
36.990        27
37.000         7
37.010        20
37.020         7
37.030         7
37.040        40
37.050        13
37.060        13
37.070        33
37.080        20
37.090        13
37.100        13
37.110        33
37.120        27
37.130         7
37.140         0
37.150        13
37.160        20
37.170        27
37.180         7
37.190        27
37.200        33
37.210        13
37.220        33
37.230         7
37.240        27
37.250        20
37.260        27
37.270        13
37.280        20
37.290        20
37.300        40
37.310        27
37.320        27
37.330         0
37.340         7
37.350        27
37.360        20
37.370        40
37.380        60
37.390        27
37.400        53
37.410        27
37.420        33
37.430        53
37.440        27
37.450         7
37.460        20
37.470        20
37.480        20
37.490        13
37.500        33
37.510        20
37.520         7
37.530        33
37.540        20
37.550         7
37.560        40
37.570        27
37.580        20
37.590         0
37.600        20
37.610        40
37.620        20
37.630        13
37.640        20
37.650        13
37.660        13
37.670        27
37.680        13
37.690        20
37.700        27
37.710        20
37.720        33
37.730         7
37.740        27
37.750        33
37.760        13
37.770        13
37.780         7
37.790        20
37.800        27
37.810        33
37.820        20
37.830        40
37.840        20
37.850        20
37.860        13
37.870         0
37.880        13
37.890        20
37.900         0
37.910        13
37.920        20
37.930         7
37.940        27
37.950        13
37.960        13
37.970        13
37.980         0
37.990        20
38.000        33
38.010         7
38.020         0
38.030        27
38.040        13
38.050        33
38.060        13
38.070        13
38.080        27
38.090        40
38.100        27
38.110        13
38.120         7
38.130        27
38.140        33
38.150         7
38.160        20
38.170        33
38.180         0
38.190        27
38.200        33
38.210        13
38.220        33
38.230        40
38.240         7
38.250        33
38.260        53
38.270        20
38.280        33
38.290        67
38.300        47
38.310        20
38.320        27
38.330        27
38.340        33
38.350        47
38.360        33
38.370         0
38.380        53
38.390         0
38.400        13
38.410        13
38.420        40
38.430         7
38.440        27
38.450         0
38.460        27
38.470        27
38.480        20
38.490        13
38.500        40
38.510        27
38.520        13
38.530         7
38.540        13
38.550        27
38.560        27
38.570         7
38.580        13
38.590         7
38.600        20
38.610        20
38.620        13
38.630        20
38.640        33
38.650        13
38.660        20
38.670        33
38.680        20
38.690         7
38.700        33
38.710        13
38.720        13
38.730        33
38.740        13
38.750        27
38.760        27
38.770        27
38.780        13
38.790         7
38.800        27
38.810        13
38.820        20
38.830        13
38.840         0
38.850        13
38.860        20
38.870        40
38.880        47
38.890        27
38.900        27
38.910         7
38.920         7
38.930        13
38.940        33
38.950        20
38.960        20
38.970        33
38.980        47
38.990       220
39.000        60
39.010        20
39.020        33
39.030        27
39.040        33
39.050        13
39.060        20
39.070        33
39.080         7
39.090        27
39.100        27
39.110        27
39.120        27
39.130        20
39.140        33
39.150         7
39.160         7
39.170         0
39.180        33
39.190         7
39.200         7
39.210        20
39.220        27
39.230         7
39.240         0
39.250        33
39.260        20
39.270        33
39.280        13
39.290        13
39.300         7
39.310        20
39.320        13
39.330         0
39.340        20
39.350         7
39.360        27
39.370        27
39.380        27
39.390        27
39.400        47
39.410        20
39.420        27
39.430        13
39.440         7
39.450        13
39.460        13
39.470        33
39.480        20
39.490        13
39.500        27
39.510        13
39.520        27
39.530         0
39.540        27
39.550        27
39.560        20
39.570        13
39.580         7
39.590        40
39.600         7
39.610        20
39.620         7
39.630        33
39.640        27
39.650        20
39.660        13
39.670        27
39.680        13
39.690         7
39.700         0
39.710        13
39.720         0
39.730         7
39.740         7
39.750        20
39.760        20
39.770        20
39.780        47
39.790         7
39.800        20
39.810        20
39.820        33
39.830        13
39.840         7
39.850        13
39.860         7
39.870         7
39.880         7
39.890        20
39.900        33
39.910         7
39.920        33
39.930        40
39.940        27
39.950         7
39.960        13
39.970        13
39.980        40
39.990        40
40.000        20
40.010         7
40.020        20
40.030        13
40.040        20
40.050        20
40.060        47
40.070        27
40.080        27
40.090        40
40.100        47
40.110        47
40.120         7
40.130        67
40.140        60
40.150        53
40.160        33
40.170        33
40.180        40
40.190        60
40.200        60
40.210        13
40.220        33
40.230        47
40.240        67
40.250        33
40.260        40
40.270        53
40.280        40
40.290        40
40.300        40
40.310        13
40.320        20
40.330        27
40.340        27
40.350        33
40.360        27
40.370        27
40.380        27
40.390        20
40.400        40
40.410        33
40.420        33
40.430        27
40.440        40
40.450        33
40.460        33
40.470        47
40.480        13
40.490        13
40.500        20
40.510        40
40.520        40
40.530        20
40.540        20
40.550        33
40.560        53
40.570        20
40.580         7
40.590        27
40.600        20
40.610        33
40.620        20
40.630        40
40.640         7
40.650        27
40.660        33
40.670        13
40.680        13
40.690        20
40.700        27
40.710        27
40.720        27
40.730        13
40.740        20
40.750         7
40.760        20
40.770        13
40.780        13
40.790         7
40.800        13
40.810        33
40.820        33
40.830         0
40.840        13
40.850        13
40.860        13
40.870        13
40.880        13
40.890        33
40.900        13
40.910        27
40.920         7
40.930        47
40.940        20
40.950        20
40.960        20
40.970        27
40.980        27
40.990         0
41.000        33
41.010         0
41.020        40
41.030         7
41.040        13
41.050        33
41.060        13
41.070        33
41.080        20
41.090        20
41.100        27
41.110        20
41.120         0
41.130        20
41.140        27
41.150        13
41.160        13
41.170        13
41.180        20
41.190        13
41.200        20
41.210        13
41.220        33
41.230        40
41.240        33
41.250         7
41.260        13
41.270        40
41.280        47
41.290        33
41.300         7
41.310         0
41.320        33
41.330        33
41.340        27
41.350        27
41.360        20
41.370        20
41.380        33
41.390        27
41.400        40
41.410        13
41.420        27
41.430        20
41.440        13
41.450        27
41.460        33
41.470        47
41.480         7
41.490        20
41.500        40
41.510        20
41.520         0
41.530        53
41.540        20
41.550        20
41.560         7
41.570        20
41.580        20
41.590        40
41.600        13
41.610         7
41.620        13
41.630        13
41.640        33
41.650        27
41.660        20
41.670        20
41.680        20
41.690        13
41.700        13
41.710        13
41.720        20
41.730        33
41.740         0
41.750        27
41.760         7
41.770        20
41.780         7
41.790         0
41.800        13
41.810        73
41.820        20
41.830        27
41.840        27
41.850        27
41.860        40
41.870         7
41.880         7
41.890         0
41.900        60
41.910        27
41.920        27
41.930        20
41.940        27
41.950        47
41.960        27
41.970        20
41.980        27
41.990        27
42.000        33
42.010        20
42.020        33
42.030         7
42.040        27
42.050        20
42.060        13
42.070         0
42.080        33
42.090        27
42.100        27
42.110        47
42.120         7
42.130        47
42.140        33
42.150        27
42.160         7
42.170        13
42.180         7
42.190        33
42.200        33
42.210        27
42.220        13
42.230        53
42.240        20
42.250        27
42.260         7
42.270        33
42.280        53
42.290        27
42.300         0
42.310        20
42.320        20
42.330        13
42.340        60
42.350        20
42.360        13
42.370        27
42.380        27
42.390        53
42.400        20
42.410        27
42.420        20
42.430        27
42.440        13
42.450        27
42.460        20
42.470        13
42.480         7
42.490        20
42.500        13
42.510        27
42.520        33
42.530        20
42.540        20
42.550        13
42.560        27
42.570        27
42.580        13
42.590        40
42.600        40
42.610        20
42.620        33
42.630        13
42.640        60
42.650        13
42.660        20
42.670        33
42.680        27
42.690        53
42.700        27
42.710        40
42.720        33
42.730        13
42.740        40
42.750        33
42.760        33
42.770        13
42.780         7
42.790        13
42.800        20
42.810        33
42.820        67
42.830        27
42.840        20
42.850        60
42.860        53
42.870        27
42.880        33
42.890        47
42.900        27
42.910        33
42.920        13
42.930        13
42.940        13
42.950        33
42.960        47
42.970        13
42.980        20
42.990         7
43.000        47
43.010        40
43.020         0
43.030         7
43.040        27
43.050        27
43.060        20
43.070        27
43.080        27
43.090        13
43.100        33
43.110        20
43.120        33
43.130         0
43.140        13
43.150        27
43.160        40
43.170        13
43.180        20
43.190         7
43.200        13
43.210        20
43.220        27
43.230        40
43.240        33
43.250        27
43.260        20
43.270        13
43.280        27
43.290        27
43.300        40
43.310        20
43.320        20
43.330         0
43.340         7
43.350        20
43.360        20
43.370        13
43.380        13
43.390        13
43.400         0
43.410        27
43.420        20
43.430        20
43.440        47
43.450        33
43.460         7
43.470        33
43.480         7
43.490        33
43.500        27
43.510        13
43.520        67
43.530        20
43.540        33
43.550        33
43.560        13
43.570        13
43.580        27
43.590        13
43.600        40
43.610        27
43.620        53
43.630        20
43.640        20
43.650        40
43.660        27
43.670        20
43.680        40
43.690        20
43.700         0
43.710        47
43.720        13
43.730        33
43.740        13
43.750         7
43.760        20
43.770        40
43.780        20
43.790        20
43.800        33
43.810        27
43.820        27
43.830        13
43.840        27
43.850        20
43.860        13
43.870        33
43.880        13
43.890         7
43.900        13
43.910         7
43.920        47
43.930        33
43.940        13
43.950        27
43.960        13
43.970        20
43.980        13
43.990        20
44.000        27
44.010        33
44.020        20
44.030        13
44.040        40
44.050        27
44.060        40
44.070        20
44.080        47
44.090         7
44.100        27
44.110        40
44.120        33
44.130        13
44.140        13
44.150        67
44.160        27
44.170        20
44.180        47
44.190        27
44.200         7
44.210        33
44.220        27
44.230        20
44.240        33
44.250        27
44.260        27
44.270        27
44.280        13
44.290        13
44.300        33
44.310        27
44.320        33
44.330        20
44.340        13
44.350        33
44.360        20
44.370        27
44.380         7
44.390        27
44.400        13
44.410         7
44.420        27
44.430        27
44.440        40
44.450        13
44.460        33
44.470        27
44.480        20
44.490        27
44.500        20
44.510        40
44.520        27
44.530         7
44.540         0
44.550         0
44.560        13
44.570        27
44.580        47
44.590        13
44.600        40
44.610        27
44.620        40
44.630        13
44.640        27
44.650        27
44.660        27
44.670         7
44.680        33
44.690        33
44.700         7
44.710        13
44.720        33
44.730        33
44.740        20
44.750        13
44.760        20
44.770        13
44.780         7
44.790         7
44.800        20
44.810        33
44.820         7
44.830        13
44.840        27
44.850        27
44.860        53
44.870        13
44.880        27
44.890        20
44.900        13
44.910        20
44.920        33
44.930        20
44.940         7
44.950        27
44.960        13
44.970        20
44.980        20
44.990        13
45.000         7
45.010         7
45.020        20
45.030        33
45.040         7
45.050         0
45.060        27
45.070        13
45.080        33
45.090        27
45.100        20
45.110        27
45.120        40
45.130        13
45.140        13
45.150        13
45.160         7
45.170        40
45.180        20
45.190        27
45.200        20
45.210        27
45.220        13
45.230        20
45.240        20
45.250         7
45.260        33
45.270         7
45.280        13
45.290        27
45.300        20
45.310         7
45.320         7
45.330        27
45.340        27
45.350         7
45.360        33
45.370        27
45.380        20
45.390         7
45.400        13
45.410        53
45.420        20
45.430        53
45.440        20
45.450        47
45.460        20
45.470        27
45.480        13
45.490         7
45.500        13
45.510        33
45.520        20
45.530         7
45.540        33
45.550        20
45.560        20
45.570        33
45.580        27
45.590        27
45.600        20
45.610         7
45.620        27
45.630        47
45.640        13
45.650        40
45.660        33
45.670        60
45.680        27
45.690         7
45.700        13
45.710        33
45.720        27
45.730        40
45.740        13
45.750        13
45.760        27
45.770        40
45.780        20
45.790        33
45.800        20
45.810        33
45.820        40
45.830        33
45.840        33
45.850        40
45.860        67
45.870        33
45.880        20
45.890        40
45.900        47
45.910        27
45.920        33
45.930        67
45.940        33
45.950        53
45.960        33
45.970        27
45.980        33
45.990        13
46.000        33
46.010        53
46.020        53
46.030        73
46.040        47
46.050        53
46.060        53
46.070        60
46.080        67
46.090        33
46.100        67
46.110        53
46.120        53
46.130        27
46.140        47
46.150        60
46.160        33
46.170        20
46.180        53
46.190        53
46.200        27
46.210        87
46.220       100
46.230        40
46.240        47
46.250        67
46.260        20
46.270        33
46.280        67
46.290        67
46.300        53
46.310        40
46.320        53
46.330        87
46.340        27
46.350        60
46.360        47
46.370        47
46.380        60
46.390        40
46.400        40
46.410        47
46.420         7
46.430        40
46.440        20
46.450        33
46.460        33
46.470        40
46.480        53
46.490        27
46.500        33
46.510        33
46.520         7
46.530        33
46.540        20
46.550        27
46.560        13
46.570        40
46.580        20
46.590        53
46.600        33
46.610        53
46.620        47
46.630        13
46.640        20
46.650        13
46.660        40
46.670         7
46.680        20
46.690        27
46.700        33
46.710        33
46.720        40
46.730        33
46.740        40
46.750        80
46.760        40
46.770        20
46.780        67
46.790        20
46.800        20
46.810        20
46.820        47
46.830        20
46.840        40
46.850        40
46.860        13
46.870        13
46.880        47
46.890        47
46.900        47
46.910        27
46.920        27
46.930        40
46.940        47
46.950        60
46.960        73
46.970        53
46.980        40
46.990        40
47.000        40
47.010        33
47.020        47
47.030        33
47.040        33
47.050        33
47.060        40
47.070        40
47.080        33
47.090        47
47.100        47
47.110        47
47.120        33
47.130        33
47.140        27
47.150        40
47.160         7
47.170        47
47.180        33
47.190        27
47.200        33
47.210        27
47.220        40
47.230        27
47.240        27
47.250        53
47.260        27
47.270        27
47.280        27
47.290        53
47.300        53
47.310        27
47.320        20
47.330        13
47.340        33
47.350         0
47.360        47
47.370        20
47.380        40
47.390        33
47.400        27
47.410        27
47.420        13
47.430        27
47.440        13
47.450        40
47.460        27
47.470        60
47.480        33
47.490        60
47.500        13
47.510        13
47.520        47
47.530        13
47.540        53
47.550        20
47.560        13
47.570        40
47.580        40
47.590        47
47.600        20
47.610        33
47.620        40
47.630        20
47.640        40
47.650        20
47.660        47
47.670        33
47.680        73
47.690        13
47.700        40
47.710        33
47.720        13
47.730        27
47.740        33
47.750        33
47.760        60
47.770        20
47.780        27
47.790        40
47.800        33
47.810        33
47.820        53
47.830        47
47.840        27
47.850         7
47.860        27
47.870        20
47.880        27
47.890        33
47.900        13
47.910        33
47.920        27
47.930        20
47.940        40
47.950         7
47.960         7
47.970        40
47.980        20
47.990        20
48.000         7
48.010        27
48.020        33
48.030        33
48.040        47
48.050        40
48.060        20
48.070        40
48.080        27
48.090        27
48.100        40
48.110        20
48.120        33
48.130        60
48.140        27
48.150        53
48.160        27
48.170        33
48.180        13
48.190        47
48.200        27
48.210        27
48.220        27
48.230        13
48.240        20
48.250        47
48.260        27
48.270         7
48.280        40
48.290        33
48.300        67
48.310         7
48.320        20
48.330        20
48.340        60
48.350        13
48.360        40
48.370        20
48.380        13
48.390        13
48.400        13
48.410        27
48.420         7
48.430        13
48.440        27
48.450         7
48.460        13
48.470        60
48.480        27
48.490         7
48.500        13
48.510        13
48.520        27
48.530        13
48.540         0
48.550         7
48.560        47
48.570         7
48.580        27
48.590        13
48.600        20
48.610        33
48.620        13
48.630        53
48.640        27
48.650        33
48.660        20
48.670        27
48.680        33
48.690        20
48.700        27
48.710        27
48.720         0
48.730        13
48.740        20
48.750         7
48.760         7
48.770        33
48.780        27
48.790        27
48.800        47
48.810        13
48.820        20
48.830        13
48.840        20
48.850        27
48.860        27
48.870        20
48.880         7
48.890         7
48.900        20
48.910        27
48.920        27
48.930        20
48.940        33
48.950        13
48.960         7
48.970         7
48.980        40
48.990        27
49.000        13
49.010        27
49.020        20
49.030        13
49.040        47
49.050        40
49.060        33
49.070        33
49.080        13
49.090        67
49.100        13
49.110        13
49.120         7
49.130         0
49.140        13
49.150        47
49.160        33
49.170        40
49.180        33
49.190         7
49.200        27
49.210        13
49.220        20
49.230        13
49.240        20
49.250        27
49.260        20
49.270        13
49.280        20
49.290         7
49.300        13
49.310        33
49.320        27
49.330        20
49.340         7
49.350        13
49.360        33
49.370        20
49.380        33
49.390        13
49.400        33
49.410        27
49.420        33
49.430        20
49.440        40
49.450        33
49.460        33
49.470        27
49.480        27
49.490        13
49.500        47
49.510        47
49.520        13
49.530        27
49.540        27
49.550        40
49.560         7
49.570        20
49.580        13
49.590        33
49.600        40
49.610        40
49.620        20
49.630        20
49.640        33
49.650        20
49.660        33
49.670        20
49.680        40
49.690        47
49.700        53
49.710         7
49.720        40
49.730        40
49.740        20
49.750        47
49.760        33
49.770         7
49.780        40
49.790         7
49.800        20
49.810        27
49.820        20
49.830         7
49.840        33
49.850        40
49.860        20
49.870         7
49.880        27
49.890        40
49.900        47
49.910        13
49.920        13
49.930        20
49.940        20
49.950        27
49.960        40
49.970        27
49.980        20
49.990        33
50.000        33
50.010         0
50.020        13
50.030        47
50.040        33
50.050        40
50.060        13
50.070        13
50.080        27
50.090        47
50.100        40
50.110        13
50.120        27
50.130        33
50.140        33
50.150        13
50.160        40
50.170        13
50.180        27
50.190        40
50.200        20
50.210         7
50.220        40
50.230         7
50.240        33
50.250        20
50.260        20
50.270         7
50.280        40
50.290        60
50.300        53
50.310        27
50.320        40
50.330        20
50.340        53
50.350        20
50.360        27
50.370        40
50.380        33
50.390         7
50.400        47
50.410        20
50.420        53
50.430        40
50.440        47
50.450        13
50.460        20
50.470        60
50.480        20
50.490         0
50.500        27
50.510        13
50.520        33
50.530        53
50.540        60
50.550        20
50.560        67
50.570        67
50.580        53
50.590        27
50.600        40
50.610        47
50.620        40
50.630        40
50.640        40
50.650        33
50.660        20
50.670        67
50.680        40
50.690        33
50.700        53
50.710        47
50.720        47
50.730        13
50.740        47
50.750        33
50.760        27
50.770        60
50.780        53
50.790        47
50.800        60
50.810        27
50.820        47
50.830        53
50.840        40
50.850        40
50.860        27
50.870        40
50.880        53
50.890        60
50.900        47
50.910        40
50.920        20
50.930        33
50.940        27
50.950        47
50.960        47
50.970        47
50.980        73
50.990        33
51.000        33
51.010        47
51.020        20
51.030        33
51.040        27
51.050        20
51.060        40
51.070        47
51.080        33
51.090        40
51.100        33
51.110        53
51.120        60
51.130        27
51.140        40
51.150        47
51.160        60
51.170        40
51.180        33
51.190        47
51.200        27
51.210        40
51.220        40
51.230        53
51.240        87
51.250        60
51.260        27
51.270        27
51.280        53
51.290        47
51.300        60
51.310        40
51.320        13
51.330        33
51.340        60
51.350        27
51.360        60
51.370        40
51.380        53
51.390        53
51.400        67
51.410        40
51.420        53
51.430        27
51.440        53
51.450        53
51.460        13
51.470        40
51.480        33
51.490        53
51.500        60
51.510        47
51.520        73
51.530        53
51.540        33
51.550        40
51.560        73
51.570        40
51.580        40
51.590        27
51.600        67
51.610        40
51.620        40
51.630        40
51.640        40
51.650        33
51.660       100
51.670        53
51.680        47
51.690        73
51.700        53
51.710        67
51.720        67
51.730        80
51.740        67
51.750        33
51.760       107
51.770        60
51.780        60
51.790        53
51.800       100
51.810        80
51.820        40
51.830        53
51.840        87
51.850        73
51.860        40
51.870        67
51.880        67
51.890        60
51.900       120
51.910        80
51.920       113
51.930       100
51.940        73
51.950        93
51.960       133
51.970        93
51.980        53
51.990        67
52.000        87
52.010        93
52.020        80
52.030       107
52.040        87
52.050       153
52.060       100
52.070        80
52.080       107
52.090        93
52.100       113
52.110       187
52.120        80
52.130       153
52.140       113
52.150       127
52.160       153
52.170       187
52.180       127
52.190       180
52.200       273
52.210       207
52.220       187
52.230       233
52.240       213
52.250       380
52.260       387
52.270       580
52.280       813
52.290      1106
52.300      1040
52.310      1519
52.320      1913
52.330      2232
52.340      2806
52.350      2992
52.360      3479
52.370      3885
52.380      4252
52.390      4598
52.400      4825
52.410      5165
52.420      5338
52.430      5091
52.440      5285
52.450      5198
52.460      4945
52.470      4945
52.480      4611
52.490      4332
52.500      4278
52.510      3918
52.520      4005
52.530      3605
52.540      3539
52.550      3559
52.560      3492
52.570      3585
52.580      3272
52.590      3165
52.600      3185
52.610      3132
52.620      3045
52.630      3059
52.640      2552
52.650      2266
52.660      1813
52.670      1499
52.680      1359
52.690      1020
52.700       740
52.710       866
52.720       826
52.730       846
52.740       820
52.750       820
52.760       780
52.770       813
52.780       840
52.790       673
52.800       613
52.810       460
52.820       407
52.830       360
52.840       187
52.850       260
52.860       267
52.870       233
52.880       167
52.890       127
52.900       127
52.910       140
52.920       140
52.930       127
52.940       107
52.950        80
52.960        87
52.970        93
52.980       147
52.990        73
53.000       113
53.010        47
53.020       127
53.030        93
53.040        73
53.050        93
53.060        67
53.070        47
53.080        67
53.090        73
53.100        60
53.110       107
53.120       100
53.130        80
53.140        53
53.150        53
53.160        53
53.170        73
53.180        40
53.190        87
53.200        67
53.210        67
53.220        80
53.230        47
53.240        67
53.250        80
53.260        60
53.270        60
53.280        53
53.290        73
53.300        40
53.310        80
53.320        33
53.330        33
53.340        20
53.350        53
53.360        40
53.370        60
53.380        47
53.390        47
53.400        60
53.410        33
53.420        80
53.430        40
53.440        60
53.450        47
53.460        20
53.470        67
53.480        60
53.490        40
53.500        40
53.510        93
53.520        53
53.530        67
53.540        47
53.550        67
53.560        33
53.570        87
53.580        33
53.590        40
53.600        33
53.610        47
53.620        60
53.630        40
53.640        20
53.650       107
53.660        53
53.670        73
53.680        40
53.690        53
53.700        53
53.710        67
53.720        67
53.730        67
53.740        73
53.750        40
53.760        47
53.770        60
53.780        47
53.790        33
53.800        33
53.810        53
53.820        47
53.830        40
53.840        67
53.850        33
53.860        20
53.870        53
53.880        40
53.890        73
53.900        47
53.910        40
53.920        40
53.930        73
53.940        13
53.950       100
53.960        27
53.970        73
53.980        67
53.990        73
54.000        53
54.010        27
54.020        40
54.030        67
54.040        40
54.050        33
54.060        40
54.070         7
54.080        40
54.090        47
54.100        60
54.110        67
54.120        20
54.130        33
54.140        47
54.150        40
54.160        33
54.170        53
54.180        33
54.190        47
54.200        40
54.210        33
54.220        60
54.230        40
54.240        27
54.250        40
54.260        40
54.270        67
54.280        47
54.290        40
54.300        40
54.310        47
54.320        20
54.330        47
54.340        27
54.350        60
54.360        60
54.370        33
54.380        40
54.390        13
54.400        80
54.410        60
54.420        33
54.430        80
54.440        67
54.450        33
54.460        33
54.470        13
54.480        27
54.490        33
54.500        47
54.510        60
54.520        53
54.530         7
54.540        60
54.550        27
54.560        47
54.570        60
54.580        53
54.590        73
54.600        60
54.610        20
54.620        47
54.630        13
54.640        27
54.650        60
54.660        47
54.670        33
54.680        13
54.690        60
54.700        27
54.710        20
54.720        40
54.730        47
54.740        40
54.750        53
54.760        53
54.770        47
54.780        47
54.790        40
54.800        47
54.810        20
54.820        47
54.830        33
54.840        13
54.850        20
54.860        53
54.870        33
54.880        33
54.890        13
54.900        20
54.910        13
54.920        40
54.930        47
54.940        33
54.950        33
54.960        40
54.970        47
54.980        33
54.990        27
55.000        27
55.010        73
55.020        33
55.030        60
55.040        33
55.050        60
55.060        27
55.070        47
55.080        53
55.090        27
55.100        53
55.110        20
55.120        40
55.130        13
55.140        33
55.150        33
55.160        13
55.170        20
55.180        40
55.190         7
55.200        53
55.210        20
55.220        73
55.230        40
55.240        47
55.250        40
55.260        13
55.270        40
55.280        20
55.290        20
55.300        40
55.310        27
55.320        27
55.330        27
55.340        33
55.350        33
55.360        33
55.370        33
55.380        33
55.390        27
55.400        40
55.410        53
55.420        20
55.430        40
55.440        73
55.450        33
55.460        20
55.470        60
55.480        27
55.490        47
55.500        40
55.510        80
55.520        93
55.530        40
55.540        67
55.550        13
55.560        33
55.570        40
55.580        33
55.590        27
55.600        40
55.610        33
55.620        40
55.630        20
55.640        60
55.650        47
55.660        67
55.670        20
55.680        27
55.690        60
55.700        27
55.710        47
55.720        87
55.730        67
55.740        80
55.750        67
55.760        67
55.770        13
55.780        53
55.790        47
55.800        33
55.810        73
55.820        60
55.830        73
55.840        47
55.850        67
55.860        93
55.870        60
55.880        60
55.890        60
55.900        67
55.910        67
55.920       107
55.930        60
55.940        93
55.950        53
55.960        40
55.970        73
55.980        87
55.990        47
56.000        47
56.010        53
56.020        47
56.030        60
56.040        33
56.050        67
56.060        67
56.070        60
56.080        60
56.090        40
56.100        80
56.110        40
56.120        33
56.130        73
56.140        47
56.150        73
56.160        60
56.170        47
56.180        73
56.190        53
56.200        60
56.210        47
56.220        60
56.230        33
56.240        40
56.250        53
56.260        27
56.270        87
56.280       100
56.290        47
56.300        13
56.310        67
56.320        47
56.330        40
56.340        47
56.350        60
56.360        47
56.370        67
56.380        67
56.390        20
56.400        73
56.410        80
56.420        33
56.430        20
56.440        47
56.450        60
56.460        53
56.470        20
56.480        73
56.490        47
56.500        80
56.510        47
56.520        53
56.530        40
56.540        27
56.550        47
56.560        53
56.570        27
56.580        40
56.590        67
56.600        20
56.610        47
56.620        73
56.630        27
56.640        27
56.650        40
56.660        13
56.670        40
56.680        27
56.690        40
56.700        47
56.710        20
56.720        60
56.730        47
56.740        33
56.750        40
56.760         7
56.770        67
56.780        73
56.790        27
56.800        53
56.810        40
56.820        40
56.830        53
56.840        27
56.850        27
56.860        33
56.870        47
56.880        47
56.890        40
56.900        27
56.910        80
56.920        27
56.930        40
56.940        27
56.950        33
56.960        13
56.970        40
56.980        33
56.990        47
57.000        47
57.010        47
57.020        60
57.030        87
57.040        73
57.050        53
57.060        27
57.070        47
57.080        40
57.090        47
57.100        27
57.110        40
57.120        53
57.130        13
57.140        40
57.150        33
57.160        60
57.170        40
57.180        87
57.190        40
57.200        47
57.210        60
57.220        13
57.230        53
57.240        27
57.250        93
57.260        33
57.270        33
57.280        53
57.290        47
57.300        60
57.310        53
57.320        60
57.330        53
57.340        33
57.350        53
57.360        40
57.370        47
57.380        60
57.390        40
57.400        27
57.410        47
57.420        73
57.430        47
57.440        33
57.450        67
57.460        47
57.470        53
57.480        40
57.490        27
57.500        67
57.510        73
57.520        60
57.530        40
57.540        40
57.550        73
57.560        20
57.570        47
57.580        33
57.590        53
57.600        33
57.610        80
57.620        47
57.630        53
57.640        47
57.650        40
57.660        40
57.670        33
57.680        27
57.690        53
57.700        40
57.710        47
57.720        47
57.730        53
57.740        33
57.750        33
57.760        40
57.770        27
57.780        40
57.790        33
57.800        47
57.810        27
57.820        53
57.830        27
57.840        33
57.850        33
57.860        53
57.870        53
57.880        47
57.890        53
57.900        40
57.910        20
57.920        53
57.930        13
57.940        60
57.950        13
57.960        53
57.970        20
57.980        27
57.990        13
58.000        13
58.010        60
58.020        27
58.030        47
58.040        60
58.050        53
58.060         7
58.070        33
58.080        33
58.090        27
58.100        67
58.110        73
58.120        60
58.130        33
58.140        13
58.150        53
58.160        47
58.170        73
58.180        40
58.190        67
58.200        27
58.210        53
58.220        33
58.230        47
58.240        40
58.250        53
58.260        20
58.270        20
58.280        33
58.290        27
58.300        33
58.310        33
58.320        53
58.330        40
58.340        80
58.350        60
58.360        33
58.370        40
58.380        53
58.390        27
58.400        33
58.410        27
58.420        33
58.430        60
58.440        40
58.450        47
58.460        27
58.470        47
58.480        47
58.490        53
58.500        60
58.510        40
58.520        40
58.530        47
58.540        33
58.550        40
58.560        53
58.570        53
58.580        47
58.590        53
58.600        47
58.610        40
58.620        33
58.630        27
58.640        47
58.650        33
58.660        33
58.670        47
58.680        33
58.690        53
58.700        40
58.710        40
58.720        80
58.730        20
58.740        33
58.750        13
58.760         7
58.770        33
58.780        40
58.790        33
58.800        33
58.810        40
58.820        47
58.830        27
58.840        67
58.850        60
58.860        20
58.870        33
58.880        20
58.890        33
58.900        33
58.910        33
58.920        47
58.930        13
58.940        13
58.950        67
58.960        47
58.970        33
58.980        20
58.990        40
59.000        20
59.010        53
59.020        33
59.030        73
59.040        40
59.050        47
59.060        33
59.070        40
59.080        40
59.090         7
59.100        20
59.110        40
59.120        33
59.130        13
59.140        73
59.150        20
59.160        53
59.170        27
59.180        20
59.190        47
59.200        27
59.210        40
59.220        27
59.230        27
59.240        20
59.250        40
59.260        73
59.270        60
59.280        53
59.290        40
59.300        33
59.310        53
59.320        13
59.330        73
59.340        60
59.350        53
59.360        60
59.370        47
59.380        40
59.390         0
59.400        13
59.410        40
59.420        13
59.430        40
59.440        60
59.450        60
59.460        13
59.470        40
59.480        33
59.490        53
59.500        40
59.510        33
59.520        40
59.530        67
59.540        27
59.550        20
59.560         7
59.570        60
59.580        73
59.590        40
59.600        53
59.610        27
59.620        20
59.630        40
59.640        33
59.650        67
59.660        13
59.670        60
59.680        40
59.690        27
59.700        33
59.710        87
59.720        67
59.730        47
59.740        60
59.750        40
59.760        47
59.770        40
59.780        53
59.790       100
59.800        27
59.810        40
59.820        53
59.830        60
59.840        53
59.850        47
59.860        27
59.870        80
59.880        53
59.890        40
59.900        67
59.910        73
59.920        47
59.930        53
59.940        33
59.950        47
59.960        33
59.970        73
59.980        60
59.990        27
60.000        27
