20.000        20
20.020        20
20.040        60
20.060        47
20.080        17
20.100        53
20.120        37
20.140        57
20.160        37
20.180        40
20.200        47
20.220        60
20.240        53
20.260        60
20.280        63
20.300        60
20.320        67
20.340        37
20.360        67
20.380        57
20.400        57
20.420        33
20.440        57
20.460        33
20.480        57
20.500        47
20.520        53
20.540        40
20.560        50
20.580        47
20.600        57
20.620        60
20.640        47
20.660        63
20.680        20
20.700        43
20.720        60
20.740        60
20.760        43
20.780        57
20.800        57
20.820        63
20.840        63
20.860        43
20.880        50
20.900        67
20.920        50
20.940        70
20.960        37
20.980        53
21.000        47
21.020        53
21.040        70
21.060        50
21.080        80
21.100        40
21.120        47
21.140        93
21.160        37
21.180        80
21.200        53
21.220        77
21.240        77
21.260        63
21.280        63
21.300        60
21.320        93
21.340        63
21.360        53
21.380        43
21.400        47
21.420        73
21.440        37
21.460        83
21.480        63
21.500        40
21.520        47
21.540        67
21.560        73
21.580        53
21.600        73
21.620        23
21.640        67
21.660        57
21.680        57
21.700       107
21.720        23
21.740        83
21.760        23
21.780        63
21.800        70
21.820        33
21.840        43
21.860        27
21.880        63
21.900        37
21.920        33
21.940        73
21.960        33
21.980        80
22.000        33
22.020        47
22.040        90
22.060        37
22.080        53
22.100       107
22.120        37
22.140        67
22.160        50
22.180        30
22.200       130
22.220        50
22.240        33
22.260        87
22.280        53
22.300        37
22.320       130
22.340        17
22.360        67
22.380        37
22.400        53
22.420        90
22.440        33
22.460        57
22.480        37
22.500        40
22.520        67
22.540        43
22.560        50
22.580        73
22.600        33
22.620       130
22.640        50
22.660        37
22.680        97
22.700        57
22.720        97
22.740        93
22.760        47
22.780        87
22.800        37
22.820        50
22.840       120
22.860        23
22.880        83
22.900        93
22.920        40
22.940       233
22.960        50
22.980        50
23.000        93
23.020        33
23.040       187
23.060        40
23.080        30
23.100       337
23.120        53
23.140       760
23.160       213
23.180        33
23.200       167
23.220        43
23.240       117
23.260        53
23.280        23
23.300        83
23.320        23
23.340        33
23.360       110
23.380        27
23.400        77
23.420        80
23.440        37
23.460       127
23.480        23
23.500        63
23.520        90
23.540        37
23.560       157
23.580        23
23.600        73
23.620        90
23.640        33
23.660       107
23.680        43
23.700        77
23.720        63
23.740        70
23.760        77
23.780        53
23.800       100
23.820        40
23.840       133
23.860        37
23.880        73
23.900       103
23.920        53
23.940       113
23.960        37
23.980        90
24.000        40
24.020       110
24.040       100
24.060        40
24.080       103
24.100        30
24.120       100
24.140        23
24.160       110
24.180        43
24.200        57
24.220       137
24.240        43
24.260        80
24.280        47
24.300        47
24.320       113
24.340        27
24.360        73
24.380        60
24.400        33
24.420       157
24.440        17
24.460       110
24.480        33
24.500        70
24.520       120
24.540        23
24.560        87
24.580        33
24.600       137
24.620        83
24.640        43
24.660       107
24.680        27
24.700       163
24.720        43
24.740        70
24.760       163
24.780        53
24.800       410
24.820        83
24.840       233
24.860       127
24.880       123
24.900       446
24.920        90
24.940       290
24.960        70
24.980       590
25.000       167
25.020        77
25.040       250
25.060        53
25.080       526
25.100        33
25.120       117
25.140       307
25.160        40
25.180       443
25.200       536
25.220        43
25.240        80
25.260       347
25.280        33
25.300       573
25.320       350
25.340        37
25.360       107
25.380       556
25.400        27
25.420        43
25.440      3292
25.460        13
25.480        40
25.500      3515
25.520        43
25.540        30
25.560     12552
25.580        37
25.600      1326
25.620     51283
25.640        40
25.660     34450
25.680     63088
25.700        27
25.720      6794
25.740     20935
25.760        63
25.780      1599
25.800      4105
25.820        53
25.840      1143
25.860        70
25.880       483
25.900      1023
25.920        93
25.940       370
25.960        93
25.980        87
26.000       870
26.020        60
26.040       390
26.060        83
26.080        33
26.100       730
26.120        23
26.140       150
26.160       203
26.180        20
26.200       443
26.220       167
26.240        30
26.260       250
26.280        27
26.300       486
26.320        90
26.340        27
26.360       307
26.380        17
26.400        40
26.420       526
26.440        30
26.460       193
26.480        37
26.500       100
26.520       483
26.540        37
26.560       230
26.580        20
26.600        43
26.620       476
26.640        27
26.660       143
26.680       130
26.700        90
26.720       320
26.740        17
26.760       203
26.780        13
26.800        50
26.820       333
26.840        23
26.860       220
26.880        30
26.900       133
26.920       400
26.940        17
26.960       247
26.980        33
27.000       177
27.020       267
27.040        23
27.060       150
27.080        20
27.100       260
27.120       120
27.140        23
27.160       173
27.180        20
27.200       280
27.220        30
27.240       120
27.260        97
27.280        50
27.300       270
27.320        37
27.340       217
27.360        20
27.380       343
27.400        33
27.420       143
27.440       110
27.460        77
27.480       277
27.500        40
27.520       160
27.540        33
27.560       240
27.580        50
27.600       167
27.620        43
27.640       163
27.660       157
27.680        60
27.700       137
27.720        40
27.740       330
27.760        27
27.780       143
27.800        37
27.820       313
27.840        40
27.860       133
27.880        47
27.900       147
27.920       160
27.940        57
27.960        97
27.980        40
28.000       260
28.020        47
28.040       170
28.060        47
28.080       277
28.100        23
28.120       107
28.140        80
28.160        37
28.180       300
28.200        47
28.220       130
28.240        17
28.260       183
28.280       113
28.300        37
28.320       150
28.340        23
28.360       233
28.380        70
28.400        43
28.420        93
28.440        43
28.460       247
28.480        27
28.500       150
28.520        30
28.540       113
28.560       207
28.580        30
28.600       160
28.620        20
28.640       300
28.660        23
28.680       133
28.700        67
28.720        90
28.740       270
28.760        30
28.780       157
28.800        57
28.820       310
28.840        43
28.860       120
28.880        83
28.900        47
28.920       267
28.940       263
28.960        63
28.980       160
29.000        60
29.020       293
29.040        70
29.060        70
29.080       173
29.100        27
29.120       153
29.140       303
29.160        60
29.180       117
29.200        57
29.220        57
29.240       290
29.260        53
29.280       117
29.300        67
29.320        63
29.340       280
29.360       103
29.380       217
29.400       167
29.420       153
29.440       263
29.460        97
29.480       147
29.500       200
29.520        47
29.540       243
29.560       173
29.580        90
29.600       160
29.620       130
29.640       120
29.660       297
29.680       107
29.700       200
29.720       137
29.740        87
29.760       313
29.780        53
29.800        53
29.820       187
29.840        23
29.860        57
29.880       267
29.900        30
29.920       110
29.940        60
29.960        37
29.980       340
30.000        10
30.020        37
30.040       150
30.060        17
30.080       143
30.100       163
30.120        40
30.140       130
30.160        60
30.180        20
30.200       277
30.220        27
30.240        47
30.260       167
30.280        17
30.300        40
30.320       203
30.340        20
30.360       140
30.380        30
30.400       150
30.420       130
30.440        33
30.460       120
30.480        27
30.500        80
30.520       223
30.540        77
30.560       117
30.580        43
30.600       193
30.620        70
30.640        83
30.660        70
30.680        70
30.700       243
30.720        37
30.740       110
30.760        40
30.780        80
30.800       140
30.820        20
30.840       133
30.860        27
30.880       197
30.900        33
30.920        23
30.940        80
30.960        27
30.980       190
31.000        20
31.020        97
31.040        23
31.060       137
31.080        60
31.100        37
31.120        97
31.140        30
31.160       163
31.180        33
31.200       100
31.220        37
31.240       163
31.260        50
31.280        43
31.300       123
31.320        33
31.340       187
31.360        57
31.380        90
31.400        40
31.420        77
31.440       203
31.460        40
31.480        97
31.500        80
31.520        47
31.540       143
31.560        30
31.580        97
31.600        20
31.620       183
31.640        43
31.660        57
31.680        63
31.700        30
31.720       143
31.740        13
31.760        73
31.780        63
31.800        23
31.820       153
31.840        10
31.860        53
31.880        93
31.900        23
31.920       113
31.940        63
31.960        17
31.980       120
32.000        23
32.020        20
32.040       220
32.060        27
32.080        17
32.100        97
32.120        93
32.140        53
32.160       180
32.180        87
32.200        90
32.220       120
32.240        67
32.260       180
32.280        90
32.300        70
32.320       120
32.340        43
32.360        47
32.380       217
32.400        37
32.420        70
32.440        27
32.460        40
32.480       197
32.500        47
32.520        97
32.540        27
32.560        63
32.580       180
32.600        57
32.620       103
32.640        27
32.660       173
32.680        40
32.700        70
32.720        50
32.740        27
32.760       133
32.780         7
32.800        70
32.820        20
32.840       127
32.860        63
32.880        23
32.900        83
32.920        27
32.940       150
32.960        37
32.980        43
33.000       103
33.020         7
33.040       130
33.060        23
33.080        67
33.100        23
33.120        27
33.140       163
33.160        23
33.180        87
33.200        23
33.220        33
33.240       117
33.260        17
33.280        70
33.300        37
33.320        33
33.340        97
33.360        77
33.380        17
33.400        50
33.420        30
33.440        70
33.460        83
33.480        27
33.500        90
33.520        20
33.540        23
33.560       140
33.580       137
33.600        20
33.620        50
33.640        63
33.660        30
33.680       117
33.700         3
33.720        63
33.740        30
33.760        23
33.780       147
33.800        17
33.820        13
33.840        20
33.860        90
33.880        20
33.900        97
33.920        30
33.940        17
33.960        87
33.980        27
34.000       130
34.020        13
34.040        37
34.060        77
34.080        23
34.100        20
34.120       147
34.140        20
34.160        77
34.180        27
34.200        37
34.220        67
34.240        20
34.260        77
34.280        37
34.300        37
34.320       107
34.340        30
34.360        43
34.380        40
34.400         7
34.420       113
34.440        57
34.460        57
34.480        17
34.500        33
34.520       167
34.540        17
34.560        50
34.580        20
34.600       103
34.620        50
34.640        30
34.660        57
34.680        17
34.700        70
34.720        30
34.740        63
34.760        40
34.780        83
34.800        80
34.820        30
34.840        53
34.860        27
34.880       117
34.900        27
34.920        57
34.940        30
34.960        93
34.980        13
35.000        37
35.020        23
35.040        43
35.060        80
35.080        23
35.100        50
35.120        20
35.140        93
35.160        27
35.180        57
35.200         7
35.220        93
35.240        40
35.260        53
35.280        23
35.300        83
35.320        33
35.340        27
35.360        17
35.380        57
35.400        40
35.420        40
35.440        43
35.460        30
35.480        50
35.500        13
35.520        67
35.540        13
35.560        67
35.580        27
35.600        60
35.620        23
35.640        73
35.660        53
35.680        37
35.700        50
35.720        40
35.740       127
35.760        10
35.780        57
35.800        10
35.820       117
35.840        17
35.860        47
35.880        40
35.900        67
35.920        50
35.940        37
35.960        87
35.980        73
36.000       100
36.020        60
36.040        73
36.060        33
36.080       107
36.100         0
36.120        67
36.140        17
36.160        60
36.180        33
36.200        27
36.220        23
36.240        40
36.260        63
36.280        23
36.300        57
36.320        10
36.340        53
36.360        17
36.380        30
36.400        13
36.420        67
36.440        23
36.460        23
36.480        17
36.500        30
36.520        80
36.540        27
36.560        53
36.580        23
36.600        87
36.620        17
36.640        50
36.660        20
36.680        67
36.700        27
36.720        50
36.740        30
36.760        53
36.780        53
36.800        20
36.820        33
36.840        17
36.860       100
36.880        23
36.900        43
36.920        13
36.940       103
36.960        20
36.980        37
37.000        17
37.020        60
37.040        43
37.060        37
37.080        20
37.100        33
37.120        40
37.140        33
37.160        40
37.180        13
37.200        67
37.220        27
37.240        47
37.260        20
37.280        77
37.300        17
37.320        40
37.340        13
37.360        70
37.380        13
37.400        33
37.420        30
37.440        10
37.460        57
37.480        27
37.500        40
37.520        13
37.540        67
37.560        30
37.580        47
37.600        30
37.620        60
37.640        33
37.660        30
37.680        23
37.700        47
37.720        40
37.740        23
37.760        40
37.780        23
37.800        83
37.820        20
37.840        47
37.860        10
37.880        60
37.900        43
37.920        17
37.940        50
37.960        43
37.980        53
38.000        10
38.020        33
38.040        30
38.060        60
38.080        37
38.100        23
38.120        27
38.140        27
38.160        70
38.180        27
38.200        23
38.220        30
38.240        47
38.260        50
38.280        30
38.300        40
38.320        27
38.340        50
38.360        30
38.380        43
38.400        23
38.420        53
38.440        50
38.460        23
38.480        43
38.500        33
38.520        57
38.540        33
38.560        37
38.580        43
38.600        17
38.620        27
38.640        20
38.660        23
38.680         3
38.700        37
38.720        20
38.740        23
38.760        17
38.780        43
38.800        47
38.820         7
38.840        30
38.860        30
38.880        60
38.900        30
38.920        47
38.940        27
38.960        60
38.980        30
39.000        53
39.020        33
39.040        23
39.060        37
39.080        50
39.100        43
39.120        30
39.140        47
39.160        37
39.180        60
39.200        30
39.220        60
39.240        23
39.260        37
39.280        23
39.300        63
39.320        37
39.340        37
39.360        77
39.380        37
39.400        83
39.420        50
39.440        57
39.460        43
39.480        63
39.500        37
39.520        37
39.540        43
39.560        33
39.580        63
39.600        27
39.620        33
39.640        30
39.660        60
39.680        10
39.700        23
39.720        37
39.740        13
39.760        23
39.780        30
39.800        30
39.820        23
39.840        10
39.860        57
39.880        27
39.900        13
39.920        30
39.940        13
39.960        53
39.980        33
40.000        23
40.020        20
40.040        20
40.060        60
40.080        17
40.100        37
40.120        30
40.140        50
40.160        33
40.180        20
40.200        17
40.220        37
40.240        60
40.260        27
40.280        17
40.300        37
40.320        40
40.340        23
40.360        30
40.380        20
40.400        40
40.420        37
40.440        20
40.460        17
40.480        20
40.500        60
40.520        23
40.540        33
40.560        23
40.580        23
40.600        33
40.620        27
40.640        20
40.660        20
40.680        23
40.700        20
40.720        30
40.740        20
40.760        33
40.780        20
40.800        27
40.820        30
40.840        33
40.860        13
40.880        33
40.900        30
40.920        17
40.940        20
40.960        20
40.980        33
41.000        27
41.020        40
41.040        20
41.060        30
41.080        17
41.100        17
41.120        30
41.140        20
41.160        33
41.180        23
41.200        33
41.220        33
41.240        23
41.260        40
41.280        20
41.300        33
41.320        27
41.340        13
41.360        23
41.380        30
41.400        40
41.420        17
41.440        33
41.460        27
41.480        37
41.500        33
41.520        20
41.540        27
41.560        33
41.580        17
41.600        43
41.620         3
41.640        33
41.660        13
41.680        30
41.700        20
41.720        30
41.740        10
41.760        33
41.780        57
41.800        10
41.820        10
41.840        23
41.860        33
41.880         7
41.900        33
41.920        13
41.940        23
41.960        53
41.980        17
42.000        20
42.020        13
42.040        23
42.060        10
42.080        27
42.100        13
42.120        43
42.140        33
42.160        27
42.180        30
42.200        17
42.220        30
42.240        30
42.260        50
42.280        13
42.300        33
42.320        30
42.340        27
42.360        37
42.380        47
42.400        67
42.420        40
42.440        57
42.460        53
42.480        57
42.500        20
42.520        30
42.540        53
42.560        40
42.580        30
42.600        47
42.620        20
42.640        53
42.660        50
42.680        23
42.700        37
42.720        20
42.740        40
42.760        10
42.780        33
42.800        27
42.820        37
42.840        40
42.860        33
42.880        53
42.900        27
42.920        27
42.940        10
42.960        27
42.980        47
43.000        47
43.020        23
43.040        60
43.060        30
43.080        53
43.100        63
43.120        27
43.140        50
43.160        37
43.180        33
43.200        27
43.220        53
43.240        53
43.260        47
43.280        23
43.300        27
43.320        27
43.340        27
43.360        23
43.380        27
43.400        37
43.420        27
43.440        27
43.460        30
43.480        33
43.500        10
43.520        30
43.540        17
43.560        23
43.580        43
43.600        27
43.620        10
43.640        17
43.660        20
43.680        30
43.700        40
43.720        37
43.740        20
43.760        23
43.780        27
43.800        73
43.820        40
43.840        37
43.860        17
43.880        30
43.900        27
43.920        27
43.940        37
43.960        27
43.980        43
44.000        27
44.020        20
44.040        23
44.060        30
44.080        57
44.100        17
44.120        43
44.140        17
44.160        37
44.180        40
44.200        23
44.220        20
44.240        43
44.260        43
44.280        10
44.300        27
44.320        13
44.340        20
44.360        30
44.380        17
44.400        23
44.420        13
44.440        23
44.460        10
44.480        23
44.500        20
44.520        30
44.540        27
44.560        20
44.580        33
44.600        13
44.620        37
44.640        13
44.660        13
44.680        13
44.700        40
44.720        17
44.740        20
44.760        17
44.780        20
44.800        53
44.820        17
44.840        23
44.860        20
44.880        37
44.900        30
44.920        27
44.940        13
44.960        43
44.980        13
45.000        20
45.020        17
45.040        23
45.060        10
45.080        10
45.100        27
45.120        23
45.140        30
45.160        17
45.180        40
45.200        17
45.220        47
45.240        27
45.260        30
45.280        30
45.300        30
45.320        30
45.340        10
45.360        23
45.380        27
45.400        23
45.420        40
45.440        37
45.460        43
45.480        33
45.500        20
45.520        20
45.540        17
45.560        33
45.580        37
45.600        33
45.620        37
45.640        30
45.660        30
45.680        37
45.700        20
45.720        37
45.740        37
45.760        37
45.780        17
45.800        37
45.820        27
45.840        40
45.860        23
45.880        27
45.900        33
45.920        33
45.940        27
45.960        33
45.980        23
46.000        37
46.020        53
46.040        40
46.060        30
46.080        33
46.100        33
46.120        17
46.140        27
46.160        30
46.180        63
46.200        27
46.220        43
46.240        40
46.260        37
46.280        47
46.300        50
46.320        23
46.340        43
46.360        50
46.380        30
46.400        33
46.420        30
46.440        37
46.460        13
46.480        33
46.500        10
46.520        30
46.540        23
46.560        27
46.580        27
46.600        33
46.620        10
46.640        27
46.660        50
46.680        33
46.700        27
46.720        23
46.740        33
46.760        27
46.780        67
46.800        27
46.820        33
46.840        30
46.860        83
46.880        47
46.900        23
46.920        17
46.940        67
46.960        30
46.980        47
47.000        37
47.020        50
47.040        90
47.060        33
47.080        53
47.100        33
47.120       190
47.140        30
47.160       120
47.180        37
47.200      1126
47.220       157
47.240       390
47.260       107
47.280       300
47.300       150
47.320        60
47.340        73
47.360        67
47.380        93
47.400        20
47.420        47
47.440        53
47.460        87
47.480        47
47.500        77
47.520        57
47.540        83
47.560        57
47.580        73
47.600        57
47.620        40
47.640        83
47.660        47
47.680        63
47.700        30
47.720        57
47.740        20
47.760        53
47.780        30
47.800        47
47.820        30
47.840        30
47.860        13
47.880        47
47.900        37
47.920        20
47.940        23
47.960        20
47.980        40
48.000        20
48.020        27
48.040        30
48.060        37
48.080        20
48.100        60
48.120        27
48.140        33
48.160        27
48.180        37
48.200        10
48.220        37
48.240        33
48.260        23
48.280        23
48.300        13
48.320        47
48.340        23
48.360        43
48.380        30
48.400        37
48.420        33
48.440        43
48.460        37
48.480        43
48.500        37
48.520        67
48.540        53
48.560        43
48.580        43
48.600        47
48.620        40
48.640        37
48.660        47
48.680        40
48.700        47
48.720        50
48.740        27
48.760        23
48.780         7
48.800        17
48.820        30
48.840        57
48.860        17
48.880        30
48.900        23
48.920        30
48.940        20
48.960        27
48.980        40
49.000        30
49.020        37
49.040        23
49.060        57
49.080        33
49.100        60
49.120        40
49.140        50
49.160        40
49.180        77
49.200        33
49.220        43
49.240        47
49.260        73
49.280        27
49.300        33
49.320        43
49.340        50
49.360        43
49.380        23
49.400        37
49.420        33
49.440        37
49.460        37
49.480        50
49.500        23
49.520        50
49.540        20
49.560        53
49.580        20
49.600        53
49.620        17
49.640        17
49.660        17
49.680        40
49.700        13
49.720        30
49.740        50
49.760        43
49.780        50
49.800        23
49.820        20
49.840        30
49.860        43
49.880        37
49.900        33
49.920        30
49.940        70
49.960        20
49.980        40
50.000        30
50.020        27
50.040        23
50.060        13
50.080        30
50.100        33
50.120        37
50.140        27
50.160        23
50.180        13
50.200        37
50.220        30
50.240        37
50.260        20
50.280        60
50.300        13
50.320        20
50.340        30
50.360        33
50.380        17
50.400         3
50.420        60
50.440        27
50.460        47
50.480        13
50.500        40
50.520        20
50.540        57
50.560        20
50.580        53
50.600        23
50.620        50
50.640        47
50.660        33
50.680        43
50.700        20
50.720       290
50.740        30
50.760       117
50.780        20
50.800       340
50.820        83
50.840       113
50.860        50
50.880       160
50.900       263
50.920        23
50.940        70
50.960        63
50.980       347
51.000        43
51.020       107
51.040        33
51.060       377
51.080        23
51.100       117
51.120        33
51.140       290
51.160       157
51.180        43
51.200       117
51.220        90
51.240       330
51.260        10
51.280       133
51.300        20
51.320       347
51.340        27
51.360       137
51.380        23
51.400       277
51.420       167
51.440        67
51.460        77
51.480        77
51.500       333
51.520        50
51.540       107
51.560        47
51.580       383
51.600        27
51.620       190
51.640        40
51.660       363
51.680        90
51.700        80
51.720        53
51.740       113
51.760       323
51.780        33
51.800       210
51.820        40
51.840       540
51.860        47
51.880       160
51.900        53
51.920       383
51.940       253
51.960       117
51.980       123
52.000        97
52.020       506
52.040        53
52.060       243
52.080        50
52.100       653
52.120       107
52.140       213
52.160       110
52.180       470
52.200       443
52.220       123
52.240       247
52.260       147
52.280      1316
52.300        57
52.320       476
52.340        43
52.360      3132
52.380       663
52.400      1246
52.420       113
52.440      3542
52.460      3652
52.480      1263
52.500      1333
52.520      3482
52.540     16184
52.560       543
52.580     19952
52.600      7827
52.620    150080
52.640        43
52.660     36622
52.680        50
52.700     37242
52.720      8177
52.740     21508
52.760      4638
52.780     45898
52.800     25653
52.820      2552
52.840      3182
52.860      1373
52.880      4838
52.900        53
52.920      1200
52.940        83
52.960      1856
52.980        20
53.000       370
53.020        60
53.040       883
53.060       460
53.080       117
53.100       173
53.120       257
53.140       686
53.160        20
53.180       237
53.200        30
53.220       646
53.240        23
53.260       213
53.280        37
53.300       550
53.320       133
53.340       133
53.360        97
53.380       200
53.400       430
53.420        40
53.440       200
53.460        63
53.480       476
53.500        30
53.520       137
53.540        13
53.560       370
53.580        83
53.600       113
53.620        40
53.640       280
53.660       190
53.680        37
53.700        97
53.720       100
53.740       363
53.760        47
53.780       163
53.800        33
53.820       397
53.840        23
53.860       137
53.880        53
53.900       403
53.920        53
53.940        90
53.960        27
53.980       137
54.000       197
54.020        57
54.040       103
54.060        93
54.080       230
54.100        27
54.120        90
54.140        43
54.160       350
54.180        17
54.200       110
54.220        13
54.240       320
54.260        50
54.280        87
54.300        33
54.320       230
54.340       133
54.360        73
54.380        67
54.400       120
54.420       213
54.440        43
54.460       107
54.480        50
54.500       257
54.520        37
54.540       110
54.560        23
54.580       220
54.600        50
54.620       107
54.640        43
54.660       223
54.680       110
54.700        27
54.720        53
54.740        37
54.760       250
54.780        13
54.800       103
54.820        60
54.840       117
54.860       170
54.880        50
54.900        70
54.920       100
54.940       220
54.960         7
54.980        87
55.000        27
55.020       207
55.040       120
55.060        33
55.080        93
55.100        43
55.120       263
55.140        37
55.160        80
55.180        17
55.200       213
55.220        50
55.240        80
55.260        50
55.280       163
55.300       137
55.320        20
55.340        83
55.360        47
55.380       183
55.400        13
55.420        80
55.440        30
55.460       180
55.480        97
55.500        33
55.520        53
55.540        43
55.560       197
55.580        33
55.600        70
55.620        13
55.640       183
55.660        40
55.680        63
55.700        30
55.720       113
55.740        93
55.760        47
55.780        40
55.800        50
55.820       153
55.840        33
55.860        57
55.880        30
55.900       237
55.920        40
55.940        83
55.960        20
55.980       130
56.000       107
56.020        53
56.040       100
56.060        40
56.080       167
56.100        17
56.120        87
56.140        23
56.160       223
56.180        17
56.200        87
56.220        20
56.240       180
56.260        63
56.280        57
56.300        40
56.320        90
56.340       127
56.360        47
56.380        53
56.400        43
56.420       153
56.440        43
56.460        30
56.480        20
56.500       207
56.520        20
56.540        57
56.560        23
56.580       227
56.600        70
56.620        40
56.640        47
56.660        67
56.680       130
56.700        40
56.720        53
56.740        53
56.760       170
56.780        30
56.800        83
56.820        30
56.840       163
56.860        20
56.880        60
56.900        20
56.920       173
56.940        30
56.960        90
56.980        57
57.000       123
57.020        40
57.040        43
57.060        40
57.080       113
57.100       117
57.120        53
57.140        40
57.160        77
57.180       120
57.200        10
57.220        40
57.240        47
57.260       163
57.280         7
57.300        83
57.320        13
57.340       123
57.360        27
57.380        63
57.400        50
57.420       113
57.440        73
57.460        70
57.480        33
57.500       103
57.520        93
57.540        23
57.560        40
57.580        57
57.600       100
57.620        23
57.640        80
57.660        27
57.680       207
57.700        33
57.720        50
57.740        40
57.760        73
57.780       123
57.800        17
57.820        80
57.840        13
57.860       177
57.880        13
57.900        67
57.920        20
57.940        77
57.960       113
57.980        23
58.000        63
58.020        27
58.040       203
58.060        33
58.080        30
58.100        30
58.120        67
58.140       120
58.160        20
58.180        63
58.200        23
58.220        83
58.240       120
58.260        10
58.280        70
58.300        37
58.320       103
58.340        37
58.360        60
58.380        33
58.400        23
58.420       177
58.440        13
58.460        60
58.480        23
58.500        73
58.520        97
58.540        13
58.560        47
58.580        37
58.600       123
58.620        17
58.640        77
58.660        20
58.680        77
58.700        23
58.720        20
58.740        33
58.760        63
58.780       123
58.800         7
58.820        73
58.840         3
58.860       113
58.880       107
58.900        40
58.920        57
58.940        47
58.960       120
58.980         7
59.000        83
59.020        20
59.040       180
59.060        23
59.080        57
59.100        37
59.120       120
59.140        70
59.160        27
59.180        50
59.200        13
59.220       180
59.240        33
59.260        23
59.280        23
59.300        90
59.320        90
59.340        27
59.360        43
59.380        17
59.400       143
59.420        23
59.440        50
59.460        13
59.480        80
59.500       130
59.520        20
59.540        67
59.560         7
59.580       170
59.600        47
59.620        40
59.640        33
59.660        73
59.680        57
59.700        13
59.720        43
59.740        27
59.760       117
59.780        20
59.800        80
59.820        30
59.840       103
59.860        47
59.880        43
59.900        17
59.920        53
59.940       123
59.960        10
59.980        43
60.000        23
