20.000       100
20.010       100
20.020       167
20.030       140
20.040       120
20.050        80
20.060       180
20.070       107
20.080       120
20.090        80
20.100        93
20.110       100
20.120       113
20.130       140
20.140       153
20.150       140
20.160       140
20.170       147
20.180       167
20.190       147
20.200       120
20.210       173
20.220       153
20.230       113
20.240       147
20.250       100
20.260       120
20.270       107
20.280        93
20.290       167
20.300       167
20.310       147
20.320       127
20.330       107
20.340        80
20.350       153
20.360       153
20.370        93
20.380       120
20.390        93
20.400       160
20.410       107
20.420       273
20.430       140
20.440       140
20.450       140
20.460       100
20.470       167
20.480       133
20.490       113
20.500       100
20.510       153
20.520       107
20.530       107
20.540       140
20.550       120
20.560        87
20.570       133
20.580        60
20.590        93
20.600        93
20.610       153
20.620       153
20.630       147
20.640       207
20.650       120
20.660       133
20.670       147
20.680       173
20.690        93
20.700       167
20.710       113
20.720       107
20.730       140
20.740        87
20.750       120
20.760       113
20.770       107
20.780       120
20.790       120
20.800       120
20.810       147
20.820       107
20.830       113
20.840        73
20.850        67
20.860       120
20.870       187
20.880       100
20.890       140
20.900       113
20.910       120
20.920       153
20.930       120
20.940       147
20.950       120
20.960       167
20.970       107
20.980       173
20.990       107
21.000       133
21.010       153
21.020       160
21.030       133
21.040       140
21.050       147
21.060       120
21.070       127
21.080       107
21.090       167
21.100       147
21.110       100
21.120       113
21.130       133
21.140       147
21.150        80
21.160       127
21.170       133
21.180        73
21.190       153
21.200       133
21.210        93
21.220       120
21.230       193
21.240       127
21.250       173
21.260       140
21.270       133
21.280        87
21.290       207
21.300       173
21.310       133
21.320       167
21.330       120
21.340       140
21.350       153
21.360       187
21.370       200
21.380       127
21.390       187
21.400       127
21.410       133
21.420       107
21.430       153
21.440       207
21.450       167
21.460       133
21.470       127
21.480       127
21.490       127
21.500       160
21.510       133
21.520       107
21.530       140
21.540       153
21.550       153
21.560        80
21.570       133
21.580       120
21.590       173
21.600       133
21.610       153
21.620       147
21.630       167
21.640       147
21.650       207
21.660       127
21.670       193
21.680       220
21.690       153
21.700       167
21.710       173
21.720       180
21.730       147
21.740       187
21.750       167
21.760       153
21.770       107
21.780       153
21.790       113
21.800       127
21.810       173
21.820       153
21.830       240
21.840       233
21.850       147
21.860       180
21.870       193
21.880       233
21.890        93
21.900       193
21.910       153
21.920       133
21.930       160
21.940       187
21.950       280
21.960       133
21.970       227
21.980       127
21.990        93
22.000       193
22.010       227
22.020       240
22.030       160
22.040       173
22.050       120
22.060       167
22.070       240
22.080       227
22.090       153
22.100       133
22.110       180
22.120       240
22.130       173
22.140       247
22.150       213
22.160       220
22.170       200
22.180       167
22.190       167
22.200       173
22.210       227
22.220       147
22.230       200
22.240       193
22.250       193
22.260       213
22.270       240
22.280       253
22.290       167
22.300       167
22.310       207
22.320       193
22.330       220
22.340       173
22.350       240
22.360       220
22.370       180
22.380       173
22.390       233
22.400       140
22.410       240
22.420       293
22.430       253
22.440       200
22.450       193
22.460       200
22.470       220
22.480       227
22.490       200
22.500       240
22.510       187
22.520       233
22.530       227
22.540       220
22.550       253
22.560       213
22.570       253
22.580       260
22.590       213
22.600       240
22.610       253
22.620       293
22.630       313
22.640       240
22.650       233
22.660       327
22.670       267
22.680       207
22.690       207
22.700       193
22.710       240
22.720       193
22.730       293
22.740       213
22.750       240
22.760       280
22.770       187
22.780       140
22.790       233
22.800       207
22.810       227
22.820       240
22.830       253
22.840       280
22.850       200
22.860       167
22.870       340
22.880       240
22.890       267
22.900       253
22.910       273
22.920       320
22.930       280
22.940       273
22.950       347
22.960       280
22.970       360
22.980       280
22.990       373
23.000       307
23.010       313
23.020       466
23.030       340
23.040       513
23.050       526
23.060       660
23.070       960
23.080      1100
23.090      1499
23.100      1493
23.110      1593
23.120      1786
23.130      1606
23.140      1513
23.150      1379
23.160       933
23.170       693
23.180       480
23.190       426
23.200       360
23.210       340
23.220       367
23.230       380
23.240       267
23.250       333
23.260       300
23.270       333
23.280       280
23.290       267
23.300       287
23.310       260
23.320       253
23.330       273
23.340       253
23.350       253
23.360       260
23.370       300
23.380       407
23.390       300
23.400       287
23.410       307
23.420       267
23.430       260
23.440       247
23.450       267
23.460       260
23.470       313
23.480       307
23.490       280
23.500       267
23.510       233
23.520       287
23.530       233
23.540       280
23.550       260
23.560       273
23.570       347
23.580       280
23.590       307
23.600       293
23.610       280
23.620       253
23.630       300
23.640       187
23.650       293
23.660       273
23.670       293
23.680       287
23.690       293
23.700       227
23.710       247
23.720       313
23.730       313
23.740       260
23.750       260
23.760       287
23.770       180
23.780       287
23.790       320
23.800       207
23.810       293
23.820       300
23.830       207
23.840       220
23.850       273
23.860       193
23.870       267
23.880       280
23.890       240
23.900       280
23.910       200
23.920       320
23.930       213
23.940       273
23.950       267
23.960       267
23.970       273
23.980       280
23.990       220
24.000       227
24.010       300
24.020       227
24.030       180
24.040       260
24.050       340
24.060       233
24.070       240
24.080       313
24.090       300
24.100       287
24.110       280
24.120       333
24.130       273
24.140       227
24.150       307
24.160       233
24.170       267
24.180       287
24.190       307
24.200       300
24.210       207
24.220       253
24.230       240
24.240       227
24.250       267
24.260       280
24.270       260
24.280       287
24.290       287
24.300       260
24.310       213
24.320       353
24.330       340
24.340       247
24.350       353
24.360       240
24.370       320
24.380       293
24.390       213
24.400       253
24.410       426
24.420       280
24.430       273
24.440       280
24.450       233
24.460       320
24.470       267
24.480       273
24.490       200
24.500       367
24.510       273
24.520       340
24.530       247
24.540       273
24.550       327
24.560       287
24.570       333
24.580       313
24.590       213
24.600       360
24.610       233
24.620       307
24.630       347
24.640       327
24.650       313
24.660       380
24.670       293
24.680       320
24.690       393
24.700       327
24.710       600
24.720       466
24.730       473
24.740       653
24.750       646
24.760       853
24.770       853
24.780       760
24.790       800
24.800       873
24.810       753
24.820       846
24.830       846
24.840       893
24.850       940
24.860       886
24.870       833
24.880       760
24.890       866
24.900       806
24.910       840
24.920      1020
24.930      1000
24.940       766
24.950       880
24.960       633
24.970       846
24.980      1000
24.990       786
25.000       966
25.010       920
25.020       920
25.030       920
25.040       920
25.050       880
25.060       940
25.070       906
25.080       813
25.090       940
25.100       926
25.110       966
25.120       766
25.130       926
25.140       893
25.150       966
25.160       853
25.170       933
25.180       920
25.190       960
25.200       886
25.210      1013
25.220       940
25.230       966
25.240       926
25.250       906
25.260       933
25.270       993
25.280      1073
25.290       980
25.300      1093
25.310      1086
25.320      1220
25.330      1133
25.340      1319
25.350      1213
25.360      1519
25.370      1379
25.380      1719
25.390      1926
25.400      2272
25.410      2439
25.420      2752
25.430      3245
25.440      3998
25.450      4245
25.460      5018
25.470      6031
25.480      6564
25.490      7897
25.500      9390
25.510     11535
25.520     13994
25.530     19266
25.540     24310
25.550     31421
25.560     41597
25.570     56111
25.580     79755
25.590    109036
25.600    135313
25.610    150700
25.620    156684
25.630    158637
25.640    155158
25.650    148134
25.660    134959
25.670    115234
25.680     98721
25.690     91117
25.700     84833
25.710     76509
25.720     59876
25.730     42790
25.740     24344
25.750     14601
25.760     10849
25.770      8990
25.780      8097
25.790      7230
25.800      5991
25.810      5351
25.820      4558
25.830      3958
25.840      3432
25.850      3005
25.860      2892
25.870      2126
25.880      1953
25.890      1633
25.900      1659
25.910      1386
25.920      1606
25.930      1353
25.940      1319
25.950      1193
25.960      1126
25.970      1160
25.980      1333
25.990      1246
26.000      1200
26.010      1273
26.020      1299
26.030      1166
26.040      1106
26.050       860
26.060       913
26.070       966
26.080       973
26.090      1046
26.100       966
26.110       853
26.120       800
26.130       826
26.140       913
26.150       906
26.160       900
26.170       873
26.180       860
26.190       840
26.200       860
26.210       800
26.220       880
26.230       746
26.240       760
26.250       873
26.260       853
26.270       886
26.280       773
26.290       880
26.300       666
26.310       720
26.320       680
26.330       720
26.340       653
26.350       846
26.360       813
26.370       773
26.380       760
26.390       640
26.400       760
26.410       720
26.420       886
26.430       573
26.440       753
26.450       666
26.460       660
26.470       586
26.480       740
26.490       660
26.500       593
26.510       760
26.520       820
26.530       600
26.540       613
26.550       626
26.560       546
26.570       620
26.580       620
26.590       740
26.600       766
26.610       686
26.620       606
26.630       640
26.640       686
26.650       686
26.660       686
26.670       533
26.680       646
26.690       720
26.700       753
26.710       560
26.720       480
26.730       660
26.740       633
26.750       653
26.760       606
26.770       753
26.780       653
26.790       680
26.800       580
26.810       540
26.820       553
26.830       733
26.840       566
26.850       566
26.860       533
26.870       686
26.880       580
26.890       666
26.900       606
26.910       640
26.920       466
26.930       693
26.940       686
26.950       520
26.960       533
26.970       653
26.980       600
26.990       633
27.000       600
27.010       546
27.020       600
27.030       686
27.040       620
27.050       700
27.060       560
27.070       546
27.080       613
27.090       533
27.100       640
27.110       493
27.120       473
27.130       560
27.140       573
27.150       646
27.160       600
27.170       680
27.180       580
27.190       640
27.200       506
27.210       560
27.220       466
27.230       566
27.240       600
27.250       600
27.260       606
27.270       526
27.280       653
27.290       473
27.300       580
27.310       513
27.320       486
27.330       593
27.340       533
27.350       620
27.360       566
27.370       526
27.380       633
27.390       553
27.400       553
27.410       473
27.420       620
27.430       633
27.440       566
27.450       653
27.460       493
27.470       580
27.480       466
27.490       606
27.500       540
27.510       620
27.520       466
27.530       566
27.540       566
27.550       433
27.560       533
27.570       626
27.580       440
27.590       540
27.600       493
27.610       520
27.620       620
27.630       640
27.640       473
27.650       633
27.660       566
27.670       493
27.680       393
27.690       473
27.700       573
27.710       413
27.720       600
27.730       433
27.740       606
27.750       506
27.760       586
27.770       473
27.780       486
27.790       613
27.800       540
27.810       613
27.820       560
27.830       466
27.840       506
27.850       460
27.860       533
27.870       593
27.880       493
27.890       640
27.900       393
27.910       466
27.920       560
27.930       520
27.940       546
27.950       613
27.960       640
27.970       526
27.980       600
27.990       480
28.000       513
28.010       533
28.020       486
28.030       593
28.040       493
28.050       446
28.060       506
28.070       407
28.080       413
28.090       580
28.100       506
28.110       460
28.120       506
28.130       440
28.140       540
28.150       546
28.160       426
28.170       500
28.180       506
28.190       480
28.200       506
28.210       573
28.220       393
28.230       393
28.240       480
28.250       407
28.260       433
28.270       426
28.280       347
28.290       473
28.300       473
28.310       533
28.320       553
28.330       473
28.340       420
28.350       606
28.360       440
28.370       460
28.380       420
28.390       367
28.400       506
28.410       526
28.420       413
28.430       446
28.440       593
28.450       500
28.460       413
28.470       460
28.480       546
28.490       566
28.500       520
28.510       426
28.520       473
28.530       433
28.540       400
28.550       493
28.560       466
28.570       560
28.580       520
28.590       433
28.600       593
28.610       493
28.620       493
28.630       453
28.640       460
28.650       393
28.660       500
28.670       500
28.680       466
28.690       440
28.700       420
28.710       393
28.720       426
28.730       513
28.740       540
28.750       426
28.760       546
28.770       433
28.780       440
28.790       513
28.800       407
28.810       480
28.820       533
28.830       506
28.840       600
28.850       580
28.860       546
28.870       480
28.880       580
28.890       506
28.900       426
28.910       446
28.920       540
28.930       500
28.940       426
28.950       460
28.960       526
28.970       453
28.980       420
28.990       493
29.000       553
29.010       486
29.020       400
29.030       380
29.040       493
29.050       593
29.060       433
29.070       480
29.080       440
29.090       480
29.100       460
29.110       426
29.120       433
29.130       480
29.140       506
29.150       546
29.160       400
29.170       446
29.180       453
29.190       393
29.200       473
29.210       413
29.220       453
29.230       493
29.240       433
29.250       473
29.260       500
29.270       513
29.280       407
29.290       440
29.300       480
29.310       440
29.320       433
29.330       506
29.340       393
29.350       500
29.360       413
29.370       453
29.380       540
29.390       506
29.400       440
29.410       573
29.420       440
29.430       327
29.440       560
29.450       413
29.460       513
29.470       466
29.480       313
29.490       380
29.500       466
29.510       407
29.520       420
29.530       506
29.540       546
29.550       433
29.560       380
29.570       473
29.580       540
29.590       686
29.600       600
29.610       486
29.620       586
29.630       693
29.640       573
29.650       673
29.660       573
29.670       526
29.680       646
29.690       513
29.700       646
29.710       620
29.720       546
29.730       553
29.740       600
29.750       426
29.760       546
29.770       486
29.780       426
29.790       480
29.800       393
29.810       486
29.820       440
29.830       340
29.840       400
29.850       433
29.860       413
29.870       393
29.880       393
29.890       333
29.900       466
29.910       340
29.920       347
29.930       466
29.940       393
29.950       393
29.960       407
29.970       327
29.980       333
29.990       333
30.000       387
30.010       353
30.020       373
30.030       407
30.040       293
30.050       387
30.060       307
30.070       360
30.080       280
30.090       347
30.100       373
30.110       387
30.120       340
30.130       420
30.140       340
30.150       393
30.160       407
30.170       280
30.180       320
30.190       367
30.200       426
30.210       473
30.220       360
30.230       360
30.240       300
30.250       426
30.260       360
30.270       453
30.280       333
30.290       347
30.300       426
30.310       353
30.320       360
30.330       393
30.340       320
30.350       393
30.360       413
30.370       387
30.380       320
30.390       367
30.400       420
30.410       400
30.420       300
30.430       347
30.440       393
30.450       413
30.460       340
30.470       353
30.480       373
30.490       327
30.500       333
30.510       320
30.520       446
30.530       407
30.540       360
30.550       373
30.560       320
30.570       466
30.580       400
30.590       380
30.600       360
30.610       407
30.620       526
30.630       333
30.640       307
30.650       333
30.660       360
30.670       267
30.680       340
30.690       293
30.700       273
30.710       380
30.720       387
30.730       253
30.740       347
30.750       260
30.760       313
30.770       273
30.780       347
30.790       360
30.800       333
30.810       340
30.820       327
30.830       280
30.840       387
30.850       260
30.860       307
30.870       347
30.880       340
30.890       233
30.900       313
30.910       340
30.920       380
30.930       360
30.940       253
30.950       313
30.960       247
30.970       340
30.980       340
30.990       320
31.000       260
31.010       320
31.020       313
31.030       300
31.040       333
31.050       340
31.060       260
31.070       240
31.080       273
31.090       267
31.100       287
31.110       327
31.120       353
31.130       267
31.140       287
31.150       273
31.160       380
31.170       340
31.180       313
31.190       247
31.200       367
31.210       260
31.220       307
31.230       327
31.240       380
31.250       367
31.260       267
31.270       267
31.280       280
31.290       360
31.300       446
31.310       380
31.320       320
31.330       260
31.340       253
31.350       300
31.360       347
31.370       247
31.380       300
31.390       253
31.400       307
31.410       240
31.420       287
31.430       233
31.440       240
31.450       213
31.460       233
31.470       267
31.480       360
31.490       273
31.500       313
31.510       287
31.520       300
31.530       267
31.540       267
31.550       287
31.560       340
31.570       247
31.580       193
31.590       253
31.600       273
31.610       293
31.620       267
31.630       340
31.640       260
31.650       353
31.660       240
31.670       267
31.680       307
31.690       287
31.700       347
31.710       280
31.720       233
31.730       213
31.740       347
31.750       200
31.760       313
31.770       207
31.780       253
31.790       273
31.800       280
31.810       280
31.820       273
31.830       233
31.840       267
31.850       267
31.860       327
31.870       233
31.880       293
31.890       327
31.900       280
31.910       193
31.920       213
31.930       273
31.940       253
31.950       300
31.960       227
31.970       293
31.980       220
31.990       293
32.000       267
32.010       300
32.020       253
32.030       207
32.040       220
32.050       187
32.060       213
32.070       240
32.080       253
32.090       240
32.100       220
32.110       247
32.120       313
32.130       293
32.140       260
32.150       293
32.160       426
32.170       307
32.180       300
32.190       207
32.200       400
32.210       373
32.220       340
32.230       340
32.240       320
32.250       287
32.260       320
32.270       340
32.280       293
32.290       387
32.300       453
32.310       313
32.320       300
32.330       253
32.340       280
32.350       267
32.360       247
32.370       267
32.380       287
32.390       320
32.400       253
32.410       247
32.420       207
32.430       247
32.440       260
32.450       200
32.460       207
32.470       273
32.480       240
32.490       193
32.500       193
32.510       207
32.520       280
32.530       147
32.540       220
32.550       280
32.560       167
32.570       220
32.580       200
32.590       260
32.600       213
32.610       280
32.620       160
32.630       280
32.640       213
32.650       207
32.660       167
32.670       327
32.680       280
32.690       307
32.700       207
32.710       233
32.720       193
32.730       287
32.740       227
32.750       253
32.760       247
32.770       253
32.780       200
32.790       240
32.800       207
32.810       220
32.820       213
32.830       233
32.840       207
32.850       267
32.860       180
32.870       247
32.880       240
32.890       267
32.900       280
32.910       160
32.920       287
32.930       213
32.940       193
32.950       240
32.960       280
32.970       227
32.980       200
32.990       200
33.000       200
33.010       240
33.020       140
33.030       193
33.040       227
33.050       193
33.060       200
33.070       153
33.080       200
33.090       220
33.100       220
33.110       233
33.120       173
33.130       167
33.140       153
33.150       200
33.160       200
33.170       187
33.180       200
33.190       180
33.200       233
33.210        80
33.220       187
33.230       113
33.240       180
33.250       213
33.260       187
33.270       167
33.280       220
33.290       167
33.300       287
33.310       153
33.320       153
33.330       213
33.340       160
33.350       200
33.360       193
33.370       187
33.380       127
33.390       180
33.400       140
33.410       187
33.420       180
33.430       133
33.440       167
33.450       187
33.460       247
33.470       207
33.480       193
33.490       200
33.500       120
33.510       147
33.520       147
33.530       260
33.540       153
33.550       260
33.560       193
33.570       207
33.580       220
33.590       180
33.600       220
33.610       213
33.620       120
33.630       180
33.640       173
33.650       153
33.660       247
33.670       160
33.680       167
33.690       133
33.700       207
33.710       193
33.720       180
33.730       140
33.740       167
33.750       207
33.760       180
33.770       173
33.780       160
33.790       200
33.800       167
33.810       173
33.820       227
33.830       213
33.840       187
33.850       227
33.860       100
33.870       113
33.880       133
33.890       180
33.900       167
33.910       120
33.920       113
33.930       193
33.940       167
33.950       120
33.960       147
33.970       180
33.980       180
33.990       167
34.000       187
34.010       127
34.020       187
34.030       107
34.040       133
34.050       193
34.060       233
34.070       207
34.080       180
34.090       167
34.100       167
34.110       213
34.120       180
34.130       160
34.140       167
34.150       100
34.160       180
34.170       200
34.180       227
34.190       187
34.200       127
34.210       193
34.220       140
34.230       173
34.240       160
34.250       167
34.260       147
34.270       120
34.280       133
34.290       140
34.300       120
34.310       187
34.320       147
34.330       220
34.340       127
34.350       160
34.360       167
34.370       160
34.380       160
34.390       153
34.400       113
34.410       180
34.420       200
34.430       120
34.440       140
34.450       167
34.460       140
34.470       147
34.480       160
34.490       133
34.500       187
34.510       180
34.520       140
34.530       133
34.540       140
34.550       147
34.560        93
34.570       120
34.580       160
34.590       153
34.600       173
34.610       173
34.620       167
34.630       100
34.640       187
34.650       180
34.660       127
34.670       153
34.680       160
34.690       167
34.700        93
34.710       113
34.720       113
34.730       153
34.740       173
34.750       120
34.760        93
34.770       147
34.780       140
34.790       167
34.800       207
34.810       167
34.820       133
34.830       133
34.840       113
34.850       140
34.860       113
34.870       133
34.880        93
34.890       187
34.900        93
34.910        93
34.920       160
34.930       133
34.940       107
34.950       153
34.960       153
34.970       140
34.980       147
34.990       133
35.000       147
35.010       100
35.020       153
35.030       120
35.040       140
35.050       127
35.060       120
35.070        93
35.080       140
35.090       147
35.100       153
35.110       133
35.120       140
35.130       133
35.140       207
35.150       127
35.160       133
35.170       113
35.180       140
35.190       153
35.200       140
35.210       133
35.220        93
35.230       147
35.240       133
35.250       160
35.260       133
35.270       133
35.280       127
35.290       153
35.300       113
35.310       133
35.320       153
35.330       147
35.340       127
35.350       120
35.360        87
35.370       147
35.380       140
35.390       173
35.400        87
35.410       100
35.420        80
35.430       140
35.440       133
35.450        60
35.460       167
35.470       107
35.480       140
35.490       127
35.500       107
35.510       120
35.520       100
35.530       100
35.540       113
35.550       100
35.560       140
35.570       100
35.580       140
35.590       140
35.600       120
35.610       100
35.620       127
35.630        73
35.640       133
35.650       160
35.660       133
35.670       140
35.680       147
35.690       180
35.700       160
35.710       140
35.720       127
35.730       153
35.740       140
35.750       180
35.760       147
35.770       113
35.780       127
35.790       147
35.800       113
35.810       140
35.820       140
35.830       153
35.840       107
35.850       133
35.860       153
35.870       140
35.880       100
35.890       140
35.900       153
35.910       153
35.920       120
35.930        93
35.940       113
35.950       200
35.960       147
35.970       100
35.980       167
35.990       107
36.000       167
36.010       140
36.020       127
36.030        93
36.040       100
36.050        80
36.060       153
36.070        87
36.080       153
36.090       107
36.100        93
36.110       133
36.120       173
36.130       160
36.140       120
36.150       107
36.160       107
36.170       113
36.180       127
36.190       153
36.200        80
36.210       140
36.220        80
36.230       113
36.240       100
36.250       120
36.260       140
36.270       133
36.280       127
36.290       107
36.300       147
36.310        87
36.320       100
36.330       100
36.340       120
36.350        93
36.360        87
36.370        93
36.380       133
36.390       100
36.400        93
36.410        87
36.420       120
36.430        73
36.440       113
36.450       140
36.460        80
36.470       120
36.480        53
36.490       133
36.500        60
36.510        73
36.520       153
36.530        60
36.540       113
36.550       120
36.560       107
36.570        73
36.580       120
36.590        93
36.600       100
36.610       140
36.620       120
36.630       120
36.640        87
36.650       100
36.660        87
36.670        73
36.680       167
36.690       100
36.700       120
36.710       100
36.720        93
36.730       100
36.740        93
36.750       100
36.760        60
36.770       147
36.780        80
36.790       153
36.800        73
36.810       140
36.820       120
36.830       140
36.840       100
36.850       120
36.860       120
36.870        40
36.880       180
36.890        87
36.900       127
36.910       127
36.920        73
36.930       127
36.940        73
36.950       107
36.960        73
36.970       147
36.980        73
36.990        80
37.000       120
37.010       120
37.020       107
37.030        60
37.040        93
37.050        93
37.060       113
37.070       107
37.080        87
37.090        87
37.100        60
37.110        87
37.120        73
37.130       107
37.140       100
37.150       100
37.160        60
37.170        67
37.180       127
37.190       127
37.200       133
37.210        60
37.220       120
37.230       100
37.240       127
37.250        73
37.260        93
37.270        73
37.280        87
37.290        87
37.300        53
37.310        80
37.320       113
37.330        73
37.340        47
37.350       120
37.360        60
37.370        87
37.380        73
37.390        53
37.400        67
37.410        80
37.420        93
37.430        73
37.440       100
37.450       113
37.460        60
37.470       120
37.480        53
37.490       133
37.500        73
37.510        93
37.520        27
37.530       107
37.540        80
37.550        60
37.560       100
37.570        67
37.580        87
37.590        53
37.600        80
37.610       147
37.620       100
37.630        93
37.640        67
37.650        73
37.660        73
37.670       100
37.680        93
37.690        73
37.700        67
37.710        67
37.720        67
37.730       133
37.740        60
37.750        87
37.760        67
37.770       133
37.780        80
37.790        80
37.800       107
37.810        73
37.820        87
37.830        93
37.840       113
37.850       100
37.860       100
37.870       113
37.880        80
37.890        60
37.900        87
37.910        67
37.920       120
37.930       113
37.940        93
37.950        87
37.960        87
37.970       107
37.980        67
37.990       107
38.000        87
38.010        60
38.020        67
38.030        67
38.040        73
38.050        40
38.060       113
38.070        60
38.080        80
38.090        80
38.100        93
38.110        80
38.120       100
38.130        47
38.140        87
38.150       127
38.160       113
38.170        40
38.180        93
38.190        80
38.200        93
38.210       140
38.220        60
38.230        67
38.240       107
38.250        67
38.260       100
38.270        87
38.280        67
38.290        87
38.300       107
38.310        73
38.320        87
38.330       107
38.340        80
38.350        93
38.360        73
38.370        67
38.380        80
38.390        87
38.400        67
38.410        80
38.420       107
38.430       100
38.440        93
38.450       107
38.460        60
38.470        87
38.480        80
38.490        67
38.500        53
38.510        67
38.520        93
38.530       100
38.540        47
38.550       107
38.560       107
38.570        53
38.580        60
38.590        67
38.600       113
38.610        80
38.620        73
38.630        67
38.640        47
38.650        67
38.660        67
38.670       113
38.680       100
38.690        93
38.700        73
38.710        60
38.720        67
38.730        53
38.740        87
38.750       113
38.760        80
38.770        53
38.780        73
38.790        80
38.800        93
38.810        73
38.820        87
38.830        80
38.840        73
38.850        60
38.860        60
38.870        67
38.880       120
38.890        73
38.900        67
38.910        53
38.920        73
38.930        93
38.940       100
38.950        93
38.960        87
38.970       107
38.980        67
38.990        93
39.000        87
39.010       133
39.020       100
39.030        73
39.040       107
39.050        40
39.060       107
39.070        73
39.080        60
39.090       100
39.100       113
39.110        67
39.120        80
39.130        87
39.140        73
39.150       113
39.160        67
39.170        80
39.180        73
39.190       113
39.200        87
39.210        93
39.220        53
39.230       100
39.240        60
39.250        87
39.260        93
39.270       100
39.280        93
39.290        53
39.300        73
39.310        60
39.320        80
39.330        87
39.340        80
39.350        73
39.360        80
39.370        93
39.380        67
39.390        93
39.400        53
39.410        47
39.420       120
39.430        67
39.440        53
39.450        93
39.460        80
39.470        87
39.480        80
39.490        80
39.500        67
39.510        73
39.520        87
39.530        67
39.540        53
39.550        33
39.560       120
39.570       133
39.580        73
39.590        27
39.600        93
39.610        67
39.620        73
39.630       107
39.640        53
39.650        80
39.660        40
39.670        73
39.680        67
39.690        60
39.700        87
39.710        73
39.720        80
39.730        53
39.740        87
39.750        53
39.760        60
39.770        47
39.780        53
39.790        87
39.800        40
39.810        73
39.820        40
39.830        47
39.840        60
39.850        60
39.860        47
39.870        60
39.880        20
39.890        60
39.900        47
39.910        67
39.920       100
39.930        87
39.940        80
39.950        73
39.960        80
39.970        73
39.980        87
39.990        67
40.000        67
40.010        87
40.020        53
40.030        80
40.040        73
40.050        67
40.060       100
40.070        87
40.080        60
40.090        60
40.100        53
40.110        67
40.120        47
40.130        80
40.140        73
40.150        73
40.160        53
40.170        87
40.180        27
40.190        80
40.200        47
40.210        60
40.220        60
40.230        60
40.240        80
40.250        47
40.260        67
40.270        73
40.280        33
40.290        40
40.300        53
40.310        93
40.320        47
40.330       107
40.340        80
40.350        67
40.360        73
40.370        87
40.380        47
40.390       107
40.400        53
40.410        40
40.420       120
40.430        47
40.440        53
40.450        67
40.460        47
40.470        60
40.480        53
40.490        73
40.500        67
40.510        53
40.520        87
40.530        67
40.540        80
40.550        53
40.560        47
40.570        87
40.580        47
40.590        93
40.600        47
40.610        40
40.620        87
40.630        60
40.640        47
40.650        47
40.660        33
40.670        33
40.680        53
40.690        67
40.700        47
40.710        33
40.720        73
40.730        93
40.740        33
40.750        73
40.760        47
40.770        40
40.780        40
40.790        53
40.800         7
40.810        87
40.820        53
40.830        67
40.840        33
40.850        67
40.860        73
40.870        67
40.880        47
40.890        53
40.900        73
40.910        33
40.920        47
40.930        47
40.940        40
40.950        60
40.960        60
40.970        27
40.980        80
40.990        47
41.000        33
41.010        47
41.020       100
41.030        40
41.040        13
41.050        60
41.060        40
41.070        53
41.080        20
41.090        73
41.100        53
41.110        67
41.120        60
41.130        27
41.140        40
41.150       120
41.160        67
41.170        60
41.180        73
41.190        80
41.200        87
41.210        47
41.220        93
41.230        60
41.240        60
41.250        47
41.260        67
41.270        67
41.280        80
41.290        80
41.300        60
41.310       100
41.320        73
41.330        40
41.340        60
41.350        53
41.360        80
41.370        60
41.380        47
41.390        47
41.400        73
41.410        40
41.420        53
41.430        53
41.440        60
41.450        60
41.460        53
41.470        80
41.480        73
41.490        87
41.500        40
41.510        73
41.520        53
41.530        47
41.540        93
41.550        47
41.560        27
41.570        33
41.580        73
41.590        60
41.600        40
41.610        73
41.620        60
41.630        33
41.640        47
41.650        60
41.660        67
41.670        13
41.680        60
41.690        27
41.700        40
41.710        27
41.720        33
41.730        47
41.740        40
41.750        47
41.760        27
41.770        53
41.780        73
41.790        33
41.800        47
41.810        47
41.820        40
41.830        53
41.840        53
41.850        67
41.860        73
41.870        80
41.880        67
41.890        60
41.900        73
41.910         0
41.920        60
41.930        33
41.940        40
41.950        33
41.960        47
41.970        87
41.980        67
41.990        40
42.000        40
42.010       100
42.020        67
42.030        47
42.040        60
42.050        33
42.060        73
42.070        60
42.080        53
42.090        40
42.100        67
42.110        67
42.120        60
42.130        33
42.140        73
42.150        40
42.160        47
42.170        60
42.180        53
42.190        47
42.200        40
42.210        67
42.220        67
42.230        33
42.240        47
42.250        13
42.260        53
42.270        67
42.280        60
42.290        53
42.300        60
42.310        47
42.320        53
42.330        53
42.340        93
42.350        67
42.360       107
42.370        60
42.380       113
42.390        67
42.400        27
42.410        87
42.420       100
42.430       133
42.440        93
42.450        53
42.460        67
42.470       113
42.480        87
42.490        87
42.500        73
42.510        87
42.520        80
42.530       100
42.540        60
42.550        93
42.560        60
42.570        80
42.580        60
42.590        53
42.600        80
42.610        33
42.620        60
42.630        53
42.640        60
42.650        40
42.660        33
42.670        53
42.680        67
42.690        87
42.700        47
42.710        40
42.720        47
42.730        67
42.740        47
42.750        67
42.760        47
42.770        53
42.780        80
42.790        53
42.800        40
42.810        47
42.820        73
42.830        67
42.840        73
42.850        87
42.860        60
42.870        27
42.880        60
42.890        67
42.900        67
42.910        67
42.920        60
42.930        40
42.940       120
42.950        67
42.960        60
42.970        87
42.980        40
42.990        60
43.000        40
43.010        87
43.020        40
43.030        73
43.040        53
43.050        87
43.060        47
43.070        53
43.080        80
43.090        87
43.100        73
43.110        67
43.120        67
43.130        33
43.140        80
43.150        67
43.160        87
43.170        80
43.180       107
43.190        40
43.200        33
43.210        53
43.220        47
43.230        27
43.240       107
43.250        87
43.260        67
43.270        40
43.280        80
43.290        47
43.300        80
43.310        53
43.320        47
43.330        33
43.340        20
43.350        67
43.360        53
43.370        53
43.380        87
43.390        60
43.400        40
43.410        73
43.420        33
43.430        53
43.440        53
43.450        60
43.460        87
43.470        47
43.480        60
43.490        67
43.500        53
43.510        13
43.520        80
43.530        40
43.540        40
43.550        13
43.560        73
43.570        27
43.580        53
43.590        47
43.600        53
43.610        40
43.620        67
43.630        13
43.640        60
43.650        53
43.660        53
43.670        60
43.680       107
43.690        40
43.700        73
43.710        40
43.720        53
43.730        47
43.740        40
43.750        33
43.760        27
43.770        47
43.780       107
43.790        53
43.800        73
43.810        60
43.820        53
43.830        27
43.840        33
43.850        73
43.860        60
43.870        20
43.880        33
43.890        33
43.900        40
43.910        47
43.920        53
43.930        73
43.940        27
43.950        20
43.960        20
43.970        20
43.980        47
43.990        53
44.000        47
44.010        60
44.020        33
44.030        80
44.040        33
44.050        47
44.060        47
44.070        60
44.080        47
44.090        47
44.100        53
44.110        47
44.120        33
44.130        47
44.140        33
44.150        47
44.160        27
44.170        47
44.180        47
44.190        67
44.200        27
44.210        33
44.220        27
44.230        73
44.240        73
44.250        60
44.260        27
44.270        60
44.280        33
44.290        47
44.300        73
44.310        67
44.320        73
44.330        53
44.340        53
44.350        47
44.360        47
44.370        40
44.380        53
44.390       100
44.400        60
44.410        87
44.420        47
44.430        40
44.440        60
44.450        40
44.460        33
44.470        47
44.480        40
44.490        67
44.500        20
44.510        53
44.520        60
44.530        67
44.540        33
44.550        67
44.560        33
44.570        40
44.580        47
44.590        33
44.600        27
44.610        33
44.620        33
44.630        33
44.640        73
44.650        47
44.660        20
44.670        33
44.680        80
44.690        53
44.700        13
44.710        40
44.720        53
44.730        40
44.740        53
44.750        60
44.760        60
44.770        93
44.780        33
44.790        80
44.800        40
44.810        47
44.820        47
44.830         7
44.840        47
44.850        53
44.860        33
44.870        27
44.880        47
44.890        47
44.900        47
44.910        33
44.920        80
44.930        40
44.940        47
44.950        33
44.960        73
44.970        40
44.980        27
44.990        33
45.000        27
45.010        80
45.020        40
45.030        33
45.040        33
45.050        40
45.060        40
45.070        60
45.080        60
45.090        40
45.100        53
45.110        40
45.120       100
45.130        20
45.140        13
45.150        87
45.160        47
45.170        53
45.180        33
45.190        47
45.200        47
45.210        80
45.220        73
45.230        53
45.240        60
45.250        13
45.260        47
45.270        40
45.280        33
45.290        53
45.300        53
45.310        60
45.320        60
45.330        60
45.340        20
45.350        47
45.360        53
45.370        60
45.380        47
45.390        40
45.400        67
45.410        27
45.420        40
45.430        60
45.440        53
45.450        73
45.460        20
45.470        53
45.480        53
45.490        67
45.500        33
45.510        40
45.520        40
45.530        40
45.540        67
45.550        33
45.560        40
45.570        20
45.580        40
45.590        60
45.600        47
45.610        47
45.620        47
45.630        80
45.640        67
45.650        60
45.660        93
45.670        87
45.680        60
45.690        13
45.700        47
45.710        20
45.720        27
45.730        27
45.740        33
45.750         7
45.760        67
45.770        53
45.780        73
45.790        27
45.800        27
45.810        33
45.820        67
45.830        80
45.840        67
45.850        47
45.860        40
45.870        33
45.880        33
45.890        53
45.900        47
45.910        60
45.920        53
45.930        33
45.940        33
45.950        33
45.960        53
45.970        87
45.980        53
45.990        40
46.000        53
46.010        67
46.020        60
46.030        60
46.040        67
46.050        47
46.060        33
46.070        60
46.080        67
46.090        67
46.100        20
46.110        73
46.120        60
46.130        67
46.140        73
46.150        33
46.160        73
46.170        73
46.180        73
46.190        33
46.200        87
46.210       107
46.220        60
46.230        80
46.240       120
46.250        33
46.260        80
46.270        53
46.280       120
46.290        53
46.300        67
46.310       100
46.320        93
46.330       107
46.340        73
46.350        67
46.360        73
46.370        27
46.380        67
46.390        53
46.400        67
46.410        47
46.420        40
46.430        40
46.440        20
46.450        93
46.460        60
46.470        47
46.480        40
46.490        60
46.500        13
46.510        60
46.520        33
46.530        73
46.540        47
46.550        67
46.560        20
46.570        47
46.580        53
46.590       100
46.600        67
46.610       107
46.620        60
46.630        40
46.640        93
46.650        40
46.660        87
46.670        67
46.680        40
46.690        60
46.700        67
46.710       100
46.720        53
46.730       100
46.740        53
46.750       140
46.760        87
46.770        67
46.780       100
46.790        87
46.800        93
46.810        87
46.820       133
46.830       147
46.840       113
46.850        87
46.860        80
46.870       167
46.880       113
46.890        40
46.900        53
46.910        93
46.920        80
46.930       127
46.940       100
46.950       107
46.960       100
46.970       113
46.980        73
46.990        73
47.000        93
47.010       147
47.020        87
47.030        93
47.040       140
47.050       140
47.060       127
47.070       147
47.080       193
47.090       193
47.100       273
47.110       273
47.120       347
47.130       340
47.140       407
47.150       533
47.160       613
47.170       900
47.180      1173
47.190      1206
47.200      1413
47.210      1506
47.220      1599
47.230      1566
47.240      1233
47.250       893
47.260       933
47.270       666
47.280       480
47.290       320
47.300       300
47.310       280
47.320       227
47.330       287
47.340       160
47.350       240
47.360       153
47.370       147
47.380       167
47.390       133
47.400       120
47.410       100
47.420        93
47.430       113
47.440        87
47.450        80
47.460       127
47.470        87
47.480       100
47.490       113
47.500       127
47.510       113
47.520       120
47.530        80
47.540        73
47.550       113
47.560        80
47.570       113
47.580        80
47.590        73
47.600       100
47.610        80
47.620        73
47.630       100
47.640        80
47.650        87
47.660        53
47.670        67
47.680        87
47.690        67
47.700        67
47.710        53
47.720        80
47.730        73
47.740        73
47.750       100
47.760        47
47.770        73
47.780        93
47.790        67
47.800        73
47.810        73
47.820        40
47.830        80
47.840        53
47.850        60
47.860        73
47.870        47
47.880        47
47.890        47
47.900        73
47.910        67
47.920        33
47.930        67
47.940        33
47.950        47
47.960        73
47.970       100
47.980        73
47.990        73
48.000        93
48.010        53
48.020        80
48.030        53
48.040        60
48.050        40
48.060        53
48.070        80
48.080        53
48.090        73
48.100        73
48.110        33
48.120        60
48.130        53
48.140        80
48.150        87
48.160        73
48.170        60
48.180        40
48.190        27
48.200        53
48.210        53
48.220        80
48.230        33
48.240        87
48.250        53
48.260        53
48.270        67
48.280        60
48.290        87
48.300        60
48.310        67
48.320        60
48.330        47
48.340        87
48.350        80
48.360        73
48.370        33
48.380        53
48.390       107
48.400        60
48.410        33
48.420        80
48.430        87
48.440       100
48.450        60
48.460       113
48.470        60
48.480        53
48.490        87
48.500        53
48.510        47
48.520        93
48.530        20
48.540        93
48.550        40
48.560        73
48.570       100
48.580        47
48.590        53
48.600        80
48.610        40
48.620        80
48.630        73
48.640        47
48.650        40
48.660        47
48.670        40
48.680        40
48.690        47
48.700        53
48.710        40
48.720        47
48.730        67
48.740        53
48.750        60
48.760        80
48.770        40
48.780        80
48.790        47
48.800        47
48.810        60
48.820        27
48.830        73
48.840        47
48.850        53
48.860        47
48.870        53
48.880        47
48.890        53
48.900        53
48.910        40
48.920        27
48.930        33
48.940        60
48.950        67
48.960        47
48.970        47
48.980        87
48.990       100
49.000        60
49.010        60
49.020        60
49.030        60
49.040        40
49.050        80
49.060        67
49.070        93
49.080        80
49.090        73
49.100        93
49.110        80
49.120        40
49.130       133
49.140        73
49.150        93
49.160       100
49.170        93
49.180        80
49.190        80
49.200       100
49.210       107
49.220       120
49.230       113
49.240        67
49.250        87
49.260        67
49.270        93
49.280        67
49.290       100
49.300       113
49.310        60
49.320        40
49.330       107
49.340        80
49.350        87
49.360       100
49.370       100
49.380        40
49.390        73
49.400        53
49.410        67
49.420        47
49.430        60
49.440       100
49.450        53
49.460        67
49.470        53
49.480        33
49.490        80
49.500        27
49.510        87
49.520        53
49.530        47
49.540        27
49.550        27
49.560        47
49.570        60
49.580        60
49.590        73
49.600        27
49.610         7
49.620        60
49.630        67
49.640        87
49.650        27
49.660        40
49.670        27
49.680        40
49.690        47
49.700        20
49.710        60
49.720        80
49.730        47
49.740        73
49.750        47
49.760        40
49.770       127
49.780        27
49.790        67
49.800        60
49.810        87
49.820        20
49.830        47
49.840        67
49.850        47
49.860        60
49.870        47
49.880        80
49.890        73
49.900        93
49.910        53
49.920        60
49.930        60
49.940        67
49.950        47
49.960        73
49.970        93
49.980        33
49.990        60
50.000        60
50.010       113
50.020        53
50.030        93
50.040        87
50.050        93
50.060       120
50.070        53
50.080        67
50.090        67
50.100        33
50.110        40
50.120       100
50.130        67
50.140        27
50.150        60
50.160        47
50.170        47
50.180        73
50.190        40
50.200        67
50.210        40
50.220        53
50.230        87
50.240        40
50.250        93
50.260        47
50.270        80
50.280        13
50.290        40
50.300        40
50.310        27
50.320        47
50.330        60
50.340        73
50.350        67
50.360        67
50.370        67
50.380        33
50.390        40
50.400        53
50.410        40
50.420        67
50.430        53
50.440        60
50.450        87
50.460        20
50.470        53
50.480        27
50.490        27
50.500        27
50.510        40
50.520        40
50.530        53
50.540        67
50.550        73
50.560        53
50.570        73
50.580        53
50.590        73
50.600        60
50.610        60
50.620       100
50.630       113
50.640        87
50.650       127
50.660       227
50.670       187
50.680       247
50.690       267
50.700       280
50.710       353
50.720       307
50.730       320
50.740       380
50.750       307
50.760       307
50.770       327
50.780       440
50.790       367
50.800       393
50.810       407
50.820       353
50.830       353
50.840       400
50.850       400
50.860       373
50.870       380
50.880       446
50.890       380
50.900       360
50.910       426
50.920       347
50.930       380
50.940       347
50.950       287
50.960       420
50.970       333
50.980       413
50.990       340
51.000       440
51.010       486
51.020       413
51.030       380
51.040       433
51.050       440
51.060       533
51.070       466
51.080       373
51.090       453
51.100       320
51.110       380
51.120       433
51.130       393
51.140       420
51.150       387
51.160       407
51.170       340
51.180       446
51.190       440
51.200       287
51.210       453
51.220       407
51.230       407
51.240       407
51.250       420
51.260       473
51.270       360
51.280       473
51.290       387
51.300       433
51.310       400
51.320       407
51.330       480
51.340       486
51.350       373
51.360       340
51.370       333
51.380       380
51.390       387
51.400       413
51.410       380
51.420       446
51.430       393
51.440       407
51.450       506
51.460       426
51.470       407
51.480       353
51.490       353
51.500       566
51.510       453
51.520       426
51.530       380
51.540       460
51.550       446
51.560       400
51.570       486
51.580       387
51.590       433
51.600       540
51.610       426
51.620       446
51.630       493
51.640       453
51.650       493
51.660       413
51.670       500
51.680       440
51.690       473
51.700       460
51.710       387
51.720       620
51.730       506
51.740       453
51.750       420
51.760       453
51.770       506
51.780       420
51.790       520
51.800       480
51.810       493
51.820       473
51.830       493
51.840       446
51.850       513
51.860       433
51.870       620
51.880       440
51.890       520
51.900       546
51.910       546
51.920       553
51.930       586
51.940       520
51.950       460
51.960       520
51.970       493
51.980       466
51.990       526
52.000       493
52.010       526
52.020       640
52.030       673
52.040       553
52.050       600
52.060       706
52.070       666
52.080       720
52.090       686
52.100       793
52.110       713
52.120       660
52.130       793
52.140       820
52.150       780
52.160       793
52.170       893
52.180       913
52.190       826
52.200       853
52.210       846
52.220       946
52.230      1066
52.240      1046
52.250      1166
52.260      1266
52.270      1619
52.280      1359
52.290      1619
52.300      1926
52.310      1853
52.320      2359
52.330      2732
52.340      2906
52.350      3439
52.360      3132
52.370      3692
52.380      3672
52.390      4285
52.400      4765
52.410      4678
52.420      4965
52.430      5784
52.440      6631
52.450      7857
52.460      9596
52.470     10109
52.480     12928
52.490     15634
52.500     19625
52.510     26143
52.520     33760
52.530     41883
52.540     54305
52.550     66114
52.560     83966
52.570    105478
52.580    128102
52.590    145735
52.600    155338
52.610    157097
52.620    151866
52.630    142576
52.640    123597
52.650     97974
52.660     74144
52.670     56731
52.680     49494
52.690     50773
52.700     54731
52.710     64641
52.720     77382
52.730     86039
52.740     91457
52.750     91383
52.760     89244
52.770     79775
52.780     66047
52.790     50327
52.800     34693
52.810     23351
52.820     15494
52.830     11769
52.840      9256
52.850      7790
52.860      6897
52.870      6018
52.880      5444
52.890      4978
52.900      4512
52.910      3772
52.920      3425
52.930      3099
52.940      2666
52.950      1906
52.960      1799
52.970      1799
52.980      1279
52.990      1379
53.000      1393
53.010      1253
53.020      1113
53.030      1279
53.040      1140
53.050      1166
53.060      1153
53.070      1086
53.080      1040
53.090       900
53.100       953
53.110       860
53.120       886
53.130      1013
53.140       840
53.150       773
53.160       840
53.170       833
53.180       720
53.190       786
53.200       793
53.210       566
53.220       713
53.230       646
53.240       660
53.250       680
53.260       606
53.270       693
53.280       633
53.290       673
53.300       633
53.310       646
53.320       653
53.330       566
53.340       633
53.350       606
53.360       593
53.370       553
53.380       506
53.390       553
53.400       520
53.410       446
53.420       506
53.430       466
53.440       546
53.450       600
53.460       460
53.470       413
53.480       560
53.490       600
53.500       520
53.510       600
53.520       486
53.530       446
53.540       433
53.550       473
53.560       353
53.570       373
53.580       473
53.590       500
53.600       460
53.610       420
53.620       433
53.630       380
53.640       393
53.650       473
53.660       460
53.670       526
53.680       466
53.690       420
53.700       420
53.710       446
53.720       307
53.730       446
53.740       353
53.750       460
53.760       446
53.770       373
53.780       380
53.790       360
53.800       313
53.810       340
53.820       367
53.830       347
53.840       373
53.850       380
53.860       347
53.870       473
53.880       300
53.890       387
53.900       407
53.910       380
53.920       333
53.930       307
53.940       353
53.950       300
53.960       260
53.970       313
53.980       313
53.990       426
54.000       333
54.010       287
54.020       393
54.030       320
54.040       293
54.050       320
54.060       373
54.070       300
54.080       220
54.090       313
54.100       333
54.110       313
54.120       320
54.130       413
54.140       347
54.150       347
54.160       353
54.170       353
54.180       340
54.190       360
54.200       333
54.210       333
54.220       380
54.230       280
54.240       367
54.250       340
54.260       293
54.270       313
54.280       240
54.290       300
54.300       300
54.310       207
54.320       327
54.330       287
54.340       340
54.350       333
54.360       367
54.370       413
54.380       340
54.390       347
54.400       313
54.410       293
54.420       320
54.430       267
54.440       300
54.450       233
54.460       280
54.470       240
54.480       293
54.490       320
54.500       213
54.510       193
54.520       260
54.530       347
54.540       300
54.550       267
54.560       240
54.570       233
54.580       327
54.590       300
54.600       247
54.610       227
54.620       300
54.630       320
54.640       280
54.650       213
54.660       200
54.670       287
54.680       280
54.690       347
54.700       300
54.710       240
54.720       247
54.730       267
54.740       273
54.750       267
54.760       307
54.770       280
54.780       307
54.790       273
54.800       207
54.810       300
54.820       307
54.830       260
54.840       280
54.850       207
54.860       293
54.870       260
54.880       273
54.890       233
54.900       327
54.910       247
54.920       213
54.930       267
54.940       300
54.950       227
54.960       213
54.970       307
54.980       313
54.990       213
55.000       253
55.010       233
55.020       280
55.030       267
55.040       287
55.050       227
55.060       360
55.070       187
55.080       220
55.090       247
55.100       320
55.110       200
55.120       273
55.130       167
55.140       273
55.150       227
55.160       260
55.170       287
55.180       233
55.190       273
55.200       240
55.210       307
55.220       353
55.230       267
55.240       233
55.250       227
55.260       273
55.270       287
55.280       287
55.290       247
55.300       260
55.310       307
55.320       253
55.330       247
55.340       240
55.350       220
55.360       320
55.370       180
55.380       220
55.390       240
55.400       187
55.410       233
55.420       227
55.430       253
55.440       273
55.450       267
55.460       240
55.470       247
55.480       173
55.490       233
55.500       213
55.510       207
55.520       267
55.530       227
55.540       253
55.550       200
55.560       173
55.570       167
55.580       227
55.590       227
55.600       167
55.610       173
55.620       227
55.630       300
55.640       187
55.650       280
55.660       267
55.670       173
55.680       160
55.690       293
55.700       213
55.710       253
55.720       287
55.730       180
55.740       213
55.750       247
55.760       200
55.770       253
55.780       220
55.790       173
55.800       240
55.810       253
55.820       247
55.830       160
55.840       173
55.850       193
55.860       180
55.870       140
55.880       240
55.890       200
55.900       173
55.910       233
55.920       193
55.930       187
55.940       207
55.950       200
55.960       220
55.970       307
55.980       280
55.990       207
56.000       207
56.010       207
56.020       260
56.030       187
56.040       207
56.050       280
56.060       240
56.070       200
56.080       213
56.090       147
56.100       280
56.110       260
56.120       213
56.130       200
56.140       187
56.150       253
56.160       180
56.170       233
56.180       240
56.190       193
56.200       200
56.210       220
56.220       233
56.230       173
56.240       220
56.250       240
56.260       193
56.270       160
56.280       240
56.290       220
56.300       260
56.310       200
56.320       187
56.330       160
56.340       200
56.350       240
56.360       207
56.370       240
56.380       167
56.390       133
56.400       220
56.410       167
56.420       147
56.430       233
56.440       213
56.450       147
56.460       220
56.470       253
56.480       227
56.490       147
56.500       187
56.510       267
56.520       240
56.530       133
56.540       213
56.550       233
56.560       193
56.570       213
56.580       220
56.590       173
56.600       220
56.610       233
56.620       220
56.630       207
56.640       167
56.650       213
56.660       167
56.670       193
56.680       153
56.690       220
56.700       200
56.710       187
56.720       180
56.730       207
56.740       260
56.750       207
56.760       207
56.770       200
56.780       193
56.790       213
56.800       147
56.810       140
56.820       147
56.830       127
56.840       353
56.850       173
56.860       240
56.870       167
56.880       160
56.890       180
56.900       193
56.910       227
56.920       187
56.930       180
56.940       227
56.950       213
56.960       173
56.970       133
56.980       173
56.990       200
57.000       233
57.010       153
57.020       173
57.030       213
57.040       120
57.050       207
57.060       213
57.070       193
57.080       187
57.090       240
57.100       133
57.110       267
57.120       187
57.130       227
57.140       213
57.150       193
57.160       167
57.170       187
57.180       220
57.190       207
57.200       193
57.210       200
57.220       133
57.230       167
57.240       173
57.250       207
57.260       187
57.270       200
57.280       213
57.290       180
57.300       127
57.310       193
57.320       147
57.330       187
57.340       240
57.350       213
57.360       240
57.370       200
57.380       233
57.390       200
57.400       180
57.410       173
57.420       120
57.430       173
57.440       213
57.450       260
57.460       160
57.470       153
57.480       207
57.490       207
57.500       187
57.510       107
57.520       280
57.530       167
57.540       200
57.550       107
57.560       140
57.570       120
57.580       213
57.590       167
57.600       213
57.610       167
57.620       180
57.630       220
57.640       160
57.650       147
57.660       127
57.670       140
57.680       207
57.690       200
57.700       120
57.710       247
57.720       133
57.730       113
57.740       220
57.750       133
57.760       187
57.770       220
57.780       120
57.790       173
57.800       160
57.810       187
57.820       147
57.830       213
57.840       140
57.850       100
57.860       173
57.870       167
57.880       133
57.890       187
57.900       153
57.910       187
57.920       153
57.930       207
57.940       220
57.950       200
57.960       133
57.970       127
57.980       173
57.990       200
58.000       193
58.010       207
58.020       213
58.030       180
58.040       140
58.050       227
58.060       153
58.070       220
58.080       113
58.090       207
58.100       213
58.110       160
58.120       140
58.130       160
58.140       107
58.150       187
58.160       133
58.170       167
58.180       180
58.190       240
58.200       193
58.210       127
58.220       133
58.230       240
58.240       147
58.250       160
58.260       207
58.270       127
58.280       207
58.290       153
58.300       213
58.310       147
58.320       113
58.330       113
58.340       147
58.350       133
58.360       100
58.370       133
58.380       107
58.390       133
58.400       133
58.410       160
58.420       153
58.430       167
58.440       127
58.450       167
58.460       140
58.470       173
58.480       160
58.490       127
58.500       147
58.510       107
58.520        93
58.530       133
58.540       140
58.550       107
58.560       193
58.570       113
58.580       127
58.590       160
58.600       153
58.610       113
58.620       140
58.630       133
58.640       127
58.650       167
58.660        80
58.670       140
58.680       140
58.690       140
58.700       140
58.710       153
58.720       153
58.730       113
58.740       127
58.750       153
58.760       113
58.770       160
58.780       213
58.790       133
58.800       147
58.810       167
58.820       153
58.830       120
58.840       153
58.850       120
58.860       147
58.870       100
58.880       253
58.890        80
58.900       140
58.910       113
58.920       160
58.930       133
58.940       180
58.950       153
58.960       187
58.970       153
58.980       107
58.990       120
59.000       193
59.010       113
59.020       207
59.030       160
59.040       120
59.050       160
59.060       127
59.070       100
59.080       140
59.090       147
59.100       133
59.110       100
59.120       173
59.130       220
59.140       127
59.150       107
59.160       153
59.170       140
59.180       167
59.190       160
59.200        73
59.210       193
59.220       120
59.230       107
59.240       113
59.250       180
59.260       133
59.270       127
59.280        87
59.290       153
59.300       160
59.310       187
59.320       133
59.330       113
59.340       160
59.350        93
59.360       127
59.370       173
59.380       147
59.390       107
59.400       140
59.410       140
59.420        87
59.430       200
59.440       167
59.450       127
59.460       147
59.470       153
59.480       127
59.490       107
59.500       100
59.510       153
59.520       167
59.530       167
59.540       107
59.550       120
59.560       140
59.570       127
59.580       133
59.590       153
59.600       127
59.610       113
59.620       133
59.630       113
59.640       140
59.650       113
59.660       113
59.670       160
59.680        87
59.690       167
59.700       187
59.710       160
59.720       120
59.730       127
59.740       187
59.750        93
59.760        73
59.770       113
59.780        93
59.790        93
59.800       107
59.810        73
59.820        73
59.830       140
59.840       167
59.850       167
59.860       147
59.870       167
59.880       180
59.890       173
59.900       113
59.910       147
59.920       127
59.930       120
59.940       153
59.950        67
59.960       140
59.970       100
59.980       107
59.990       120
60.000       200
