20.000        13
20.020        13
20.040        53
20.060        60
20.080        47
20.100        40
20.120        43
20.140        37
20.160        30
20.180        37
20.200        37
20.220        57
20.240        60
20.260        30
20.280        53
20.300        43
20.320        57
20.340        63
20.360        47
20.380        53
20.400        37
20.420        43
20.440        27
20.460        57
20.480        33
20.500        27
20.520        50
20.540        40
20.560        50
20.580        73
20.600        57
20.620        37
20.640        53
20.660        33
20.680        43
20.700        37
20.720        50
20.740        67
20.760        47
20.780        53
20.800        60
20.820        43
20.840        23
20.860        43
20.880        47
20.900        50
20.920        33
20.940        40
20.960        50
20.980        53
21.000        23
21.020        43
21.040        53
21.060        47
21.080        67
21.100        43
21.120        57
21.140        43
21.160        67
21.180        50
21.200        47
21.220        47
21.240        37
21.260        43
21.280        40
21.300        40
21.320        70
21.340        43
21.360        40
21.380        63
21.400        50
21.420        33
21.440        43
21.460        67
21.480        57
21.500        37
21.520        37
21.540        30
21.560        67
21.580        30
21.600        40
21.620        47
21.640        43
21.660        30
21.680        47
21.700        50
21.720        53
21.740        37
21.760        33
21.780        43
21.800        70
21.820        40
21.840        63
21.860        33
21.880        40
21.900        27
21.920        47
21.940        57
21.960        27
21.980        37
22.000        60
22.020        80
22.040        60
22.060        70
22.080        47
22.100        27
22.120        43
22.140        17
22.160        33
22.180        53
22.200        57
22.220        40
22.240        47
22.260        60
22.280        53
22.300        57
22.320        97
22.340        50
22.360        70
22.380        73
22.400        97
22.420       123
22.440        73
22.460       140
22.480       123
22.500       157
22.520       167
22.540       217
22.560       287
22.580       253
22.600       310
22.620       307
22.640       446
22.660       483
22.680       543
22.700       603
22.720       700
22.740       616
22.760       546
22.780       436
22.800       470
22.820       473
22.840       380
22.860       506
22.880       580
22.900       476
22.920       466
22.940       473
22.960       417
22.980       323
23.000       280
23.020       230
23.040       180
23.060       157
23.080       127
23.100       123
23.120        70
23.140        63
23.160        90
23.180        67
23.200        77
23.220        60
23.240        70
23.260        70
23.280        77
23.300        63
23.320        50
23.340        57
23.360        73
23.380        43
23.400        53
23.420        57
23.440        77
23.460        33
23.480        63
23.500        43
23.520        47
23.540        50
23.560        60
23.580        50
23.600        50
23.620        40
23.640        50
23.660        10
23.680        53
23.700        60
23.720        40
23.740        30
23.760        50
23.780        53
23.800        50
23.820        37
23.840        37
23.860        47
23.880        37
23.900        40
23.920        57
23.940        27
23.960        47
23.980        53
24.000        40
24.020        30
24.040        43
24.060        47
24.080        67
24.100        53
24.120        50
24.140        30
24.160        40
24.180        40
24.200        30
24.220        40
24.240        27
24.260        43
24.280        40
24.300        50
24.320        53
24.340        47
24.360        67
24.380        47
24.400        50
24.420        37
24.440        30
24.460        47
24.480        27
24.500        37
24.520        27
24.540        20
24.560        47
24.580        43
24.600        47
24.620        33
24.640        40
24.660        47
24.680        43
24.700        57
24.720        43
24.740        57
24.760        43
24.780        53
24.800        70
24.820        47
24.840        43
24.860        63
24.880        43
24.900        23
24.920        27
24.940        33
24.960        57
24.980        37
25.000        47
25.020        63
25.040        47
25.060        37
25.080        23
25.100        33
25.120        13
25.140        30
25.160        40
25.180        37
25.200        50
25.220        40
25.240        43
25.260        37
25.280        23
25.300        30
25.320        43
25.340        63
25.360        37
25.380        47
25.400        57
25.420        33
25.440        23
25.460        43
25.480        33
25.500        60
25.520        30
25.540        37
25.560        40
25.580        40
25.600        27
25.620        40
25.640        37
25.660        50
25.680        30
25.700        40
25.720        33
25.740        27
25.760        37
25.780        17
25.800        20
25.820        27
25.840        33
25.860        17
25.880        37
25.900        33
25.920        33
25.940        40
25.960        27
25.980        37
26.000        13
26.020        50
26.040        20
26.060        43
26.080        23
26.100        30
26.120        17
26.140        40
26.160        13
26.180        50
26.200        30
26.220        37
26.240        23
26.260        37
26.280         3
26.300        37
26.320        30
26.340        37
26.360        17
26.380        33
26.400        33
26.420        37
26.440        43
26.460        47
26.480        37
26.500        33
26.520        30
26.540        30
26.560        47
26.580        27
26.600        30
26.620        23
26.640        43
26.660        13
26.680        40
26.700        20
26.720        37
26.740        27
26.760        30
26.780        37
26.800        37
26.820        37
26.840        23
26.860        30
26.880        20
26.900        67
26.920        20
26.940        20
26.960        37
26.980        23
27.000        33
27.020        30
27.040        40
27.060        23
27.080        33
27.100        47
27.120        27
27.140        33
27.160        33
27.180        27
27.200        27
27.220        20
27.240        40
27.260        30
27.280        37
27.300        47
27.320        37
27.340        30
27.360        17
27.380        33
27.400        43
27.420        30
27.440        23
27.460        20
27.480        23
27.500        43
27.520        17
27.540        47
27.560        13
27.580        53
27.600        33
27.620        47
27.640        23
27.660        50
27.680        43
27.700        33
27.720        23
27.740        27
27.760        27
27.780        47
27.800        30
27.820        27
27.840        17
27.860        37
27.880        33
27.900        17
27.920        23
27.940        30
27.960        50
27.980        33
28.000        33
28.020        13
28.040        37
28.060        50
28.080        17
28.100        53
28.120        37
28.140        33
28.160        50
28.180        37
28.200        40
28.220        40
28.240        30
28.260        60
28.280        50
28.300        27
28.320        37
28.340        47
28.360        40
28.380        33
28.400        23
28.420        27
28.440        40
28.460        40
28.480        40
28.500        43
28.520        40
28.540        47
28.560        57
28.580        47
28.600        23
28.620        27
28.640        47
28.660        30
28.680        37
28.700        27
28.720        30
28.740        30
28.760        47
28.780        57
28.800        40
28.820        80
28.840        73
28.860        90
28.880       157
28.900       143
28.920       143
28.940       180
28.960       203
28.980       330
29.000       303
29.020       333
29.040       436
29.060       460
29.080       530
29.100       553
29.120       470
29.140       417
29.160       417
29.180       327
29.200       297
29.220       203
29.240       193
29.260       197
29.280       123
29.300       143
29.320       110
29.340       120
29.360        80
29.380        97
29.400        97
29.420        77
29.440        93
29.460        53
29.480        27
29.500        43
29.520        50
29.540        47
29.560        37
29.580        37
29.600        27
29.620        27
29.640        43
29.660        17
29.680        67
29.700        43
29.720        33
29.740        33
29.760        27
29.780        30
29.800        33
29.820        27
29.840        37
29.860        30
29.880        23
29.900        30
29.920        30
29.940        40
29.960        37
29.980        13
30.000        53
30.020        23
30.040        30
30.060        47
30.080        30
30.100        30
30.120        13
30.140        33
30.160        30
30.180        23
30.200        37
30.220        13
30.240        20
30.260        30
30.280        47
30.300        17
30.320        13
30.340        30
30.360        60
30.380        17
30.400        27
30.420        20
30.440        30
30.460        40
30.480        27
30.500        20
30.520        30
30.540        47
30.560        23
30.580        43
30.600        30
30.620        30
30.640        33
30.660        43
30.680        20
30.700        27
30.720        33
30.740        30
30.760        33
30.780        43
30.800        33
30.820        47
30.840        30
30.860        30
30.880        27
30.900        33
30.920        27
30.940        37
30.960        37
30.980        10
31.000        33
31.020        30
31.040        57
31.060        40
31.080        20
31.100        30
31.120        40
31.140        23
31.160        37
31.180        40
31.200        27
31.220        37
31.240        37
31.260        67
31.280        43
31.300        50
31.320        33
31.340        50
31.360        37
31.380        43
31.400        60
31.420        50
31.440        40
31.460        23
31.480        57
31.500        57
31.520        37
31.540        43
31.560        60
31.580        53
31.600        37
31.620        20
31.640        43
31.660        30
31.680        37
31.700        30
31.720        47
31.740        23
31.760        47
31.780        37
31.800        37
31.820        33
31.840        63
31.860        67
31.880        50
31.900        37
31.920        40
31.940        60
31.960        73
31.980        53
32.000        43
32.020        67
32.040        87
32.060        90
32.080       100
32.100        90
32.120       103
32.140       130
32.160       103
32.180       120
32.200       107
32.220       110
32.240       110
32.260       177
32.280       140
32.300        83
32.320        97
32.340       137
32.360       163
32.380       110
32.400       143
32.420       150
32.440       160
32.460       120
32.480       117
32.500        90
32.520       100
32.540       123
32.560       107
32.580       107
32.600       117
32.620        77
32.640        90
32.660        87
32.680       123
32.700       110
32.720        63
32.740        73
32.760        83
32.780        77
32.800        90
32.820        83
32.840        90
32.860        50
32.880        63
32.900        50
32.920        77
32.940        60
32.960        33
32.980        50
33.000        47
33.020        47
33.040        50
33.060        33
33.080        13
33.100        37
33.120        20
33.140        33
33.160        37
33.180        33
33.200        43
33.220        23
33.240        37
33.260        30
33.280        37
33.300        20
33.320        37
33.340        27
33.360        33
33.380        33
33.400        30
33.420        40
33.440        23
33.460        23
33.480        27
33.500        30
33.520        30
33.540        27
33.560        27
33.580        33
33.600        13
33.620        53
33.640        20
33.660        27
33.680        27
33.700        10
33.720        37
33.740        30
33.760        17
33.780        27
33.800        30
33.820        37
33.840        43
33.860        23
33.880        23
33.900        20
33.920        30
33.940        13
33.960        23
33.980        17
34.000        33
34.020        23
34.040        37
34.060        17
34.080        53
34.100        37
34.120        23
34.140        40
34.160        30
34.180        43
34.200        30
34.220        10
34.240        23
34.260        33
34.280        17
34.300        30
34.320        37
34.340        37
34.360        40
34.380        27
34.400        30
34.420        30
34.440        33
34.460        37
34.480        30
34.500        13
34.520        27
34.540        47
34.560        33
34.580        47
34.600        37
34.620        13
34.640        43
34.660        37
34.680         7
34.700        33
34.720        53
34.740        37
34.760        40
34.780        27
34.800        30
34.820        47
34.840        40
34.860        23
34.880        27
34.900        40
34.920        27
34.940        43
34.960        53
34.980        37
35.000        53
35.020        53
35.040        57
35.060        23
35.080        57
35.100        23
35.120        83
35.140        37
35.160        47
35.180        83
35.200        77
35.220        67
35.240        50
35.260        87
35.280       120
35.300       110
35.320       260
35.340       400
35.360       580
35.380       780
35.400       853
35.420      1016
35.440       946
35.460      1153
35.480      1023
35.500       960
35.520       890
35.540       796
35.560       683
35.580       656
35.600       550
35.620       743
35.640       803
35.660       703
35.680       720
35.700       550
35.720       500
35.740       380
35.760       496
35.780       303
35.800       267
35.820       143
35.840       147
35.860       120
35.880       127
35.900        70
35.920        87
35.940        97
35.960        77
35.980        63
36.000        40
36.020        50
36.040        70
36.060        43
36.080        70
36.100        63
36.120        50
36.140        60
36.160        33
36.180        57
36.200        40
36.220        60
36.240        40
36.260        30
36.280        50
36.300        37
36.320        53
36.340        70
36.360        43
36.380        67
36.400        57
36.420       103
36.440        67
36.460        73
36.480        40
36.500        60
36.520        57
36.540        73
36.560        30
36.580        77
36.600        37
36.620        47
36.640        63
36.660        50
36.680        40
36.700        23
36.720        30
36.740        30
36.760        37
36.780        17
36.800        13
36.820        30
36.840        30
36.860        33
36.880        17
36.900        20
36.920        27
36.940        30
36.960        57
36.980        23
37.000         3
37.020        40
37.040        33
37.060        27
37.080        33
37.100        37
37.120        23
37.140        27
37.160        23
37.180        30
37.200        20
37.220        43
37.240        40
37.260        27
37.280        27
37.300        27
37.320        13
37.340        17
37.360        30
37.380        53
37.400        30
37.420        27
37.440        37
37.460        20
37.480        40
37.500        27
37.520        30
37.540        30
37.560        33
37.580        37
37.600        33
37.620        30
37.640        10
37.660        23
37.680        27
37.700        30
37.720        33
37.740        23
37.760        20
37.780        23
37.800        30
37.820        30
37.840        40
37.860        50
37.880        23
37.900        20
37.920        13
37.940        33
37.960        27
37.980        20
38.000        10
38.020        13
38.040        37
38.060        23
38.080        30
38.100        30
38.120        30
38.140        20
38.160        30
38.180        27
38.200        17
38.220        43
38.240        17
38.260        17
38.280        20
38.300        27
38.320        17
38.340        27
38.360        33
38.380        47
38.400        20
38.420        33
38.440        27
38.460        37
38.480        47
38.500        47
38.520        23
38.540        17
38.560        23
38.580        33
38.600        27
38.620        37
38.640        23
38.660        23
38.680        23
38.700        27
38.720        23
38.740        23
38.760        30
38.780        23
38.800        37
38.820        20
38.840        47
38.860        37
38.880        23
38.900        10
38.920        27
38.940        27
38.960        33
38.980        43
39.000        20
39.020        40
39.040        30
39.060        33
39.080        13
39.100        37
39.120        53
39.140        27
39.160        43
39.180        60
39.200        47
39.220        23
39.240        43
39.260        30
39.280        50
39.300        23
39.320        13
39.340        37
39.360        27
39.380        30
39.400        30
39.420        20
39.440        40
39.460        60
39.480        27
39.500        27
39.520        23
39.540        33
39.560        30
39.580        30
39.600        13
39.620        43
39.640        40
39.660        20
39.680        20
39.700        27
39.720        30
39.740        17
39.760        20
39.780        30
39.800        27
39.820        37
39.840        53
39.860        27
39.880        20
39.900        20
39.920        17
39.940        40
39.960        40
39.980        40
40.000        17
40.020        40
40.040        40
40.060        67
40.080        30
40.100        57
40.120        20
40.140        33
40.160        37
40.180        43
40.200        43
40.220        47
40.240        80
40.260        40
40.280        63
40.300        83
40.320        57
40.340        37
40.360        60
40.380        43
40.400        63
40.420        53
40.440        40
40.460        33
40.480        43
40.500        37
40.520        40
40.540        40
40.560        30
40.580        30
40.600        33
40.620        30
40.640        50
40.660        27
40.680        30
40.700        50
40.720        43
40.740        13
40.760        47
40.780        20
40.800        20
40.820        40
40.840        23
40.860        30
40.880        40
40.900        33
40.920        43
40.940        30
40.960        37
40.980        43
41.000        27
41.020        43
41.040        27
41.060        17
41.080        27
41.100        43
41.120        27
41.140        40
41.160        43
41.180        23
41.200        37
41.220        27
41.240        33
41.260        40
41.280        20
41.300        33
41.320        33
41.340        33
41.360        33
41.380        37
41.400        30
41.420        33
41.440        37
41.460        37
41.480        43
41.500        27
41.520        33
41.540        60
41.560        37
41.580        30
41.600        30
41.620        23
41.640        50
41.660        30
41.680        47
41.700        23
41.720        47
41.740        30
41.760        20
41.780        40
41.800        47
41.820        30
41.840        37
41.860        37
41.880        30
41.900        30
41.920        30
41.940        33
41.960        23
41.980        37
42.000        33
42.020        20
42.040        43
42.060        43
42.080        40
42.100        37
42.120        53
42.140        47
42.160        30
42.180        33
42.200        27
42.220        20
42.240        47
42.260        43
42.280        43
42.300        23
42.320        23
42.340        37
42.360        43
42.380        27
42.400        37
42.420        20
42.440        37
42.460        23
42.480        37
42.500        30
42.520        10
42.540        40
42.560        30
42.580        37
42.600        33
42.620        30
42.640        40
42.660        47
42.680        50
42.700        33
42.720        30
42.740        43
42.760        23
42.780        17
42.800        23
42.820        33
42.840        30
42.860        57
42.880        27
42.900        27
42.920        30
42.940        53
42.960        43
42.980        37
43.000        43
43.020        47
43.040        37
43.060        50
43.080        43
43.100        30
43.120        27
43.140        33
43.160        37
43.180        47
43.200        40
43.220        47
43.240        23
43.260        27
43.280        40
43.300        40
43.320        33
43.340        20
43.360        23
43.380        23
43.400        37
43.420        33
43.440        23
43.460        43
43.480        37
43.500        33
43.520        33
43.540        43
43.560        27
43.580        40
43.600        20
43.620        37
43.640        20
43.660        30
43.680        40
43.700        60
43.720        53
43.740        27
43.760        40
43.780        30
43.800        37
43.820        33
43.840        47
43.860        27
43.880        37
43.900        43
43.920        27
43.940        40
43.960        47
43.980        37
44.000        40
44.020        40
44.040        30
44.060        43
44.080        40
44.100        60
44.120        40
44.140        67
44.160        37
44.180        33
44.200        50
44.220        60
44.240        53
44.260        60
44.280        33
44.300        80
44.320        47
44.340        83
44.360        73
44.380        47
44.400        53
44.420        73
44.440        63
44.460        67
44.480        53
44.500        47
44.520        67
44.540        40
44.560        70
44.580        53
44.600        83
44.620        60
44.640        60
44.660        40
44.680        47
44.700        57
44.720        43
44.740        60
44.760        47
44.780        70
44.800        57
44.820        83
44.840        27
44.860        57
44.880        60
44.900        60
44.920        77
44.940        40
44.960        63
44.980        80
45.000        47
45.020        73
45.040        77
45.060        83
45.080        43
45.100        80
45.120       110
45.140        77
45.160       100
45.180       117
45.200        90
45.220        93
45.240       120
45.260        93
45.280        97
45.300       120
45.320        90
45.340       100
45.360       137
45.380       173
45.400       203
45.420       180
45.440       157
45.460       187
45.480       173
45.500       213
45.520       233
45.540       180
45.560       247
45.580       257
45.600       277
45.620       247
45.640       273
45.660       270
45.680       353
45.700       340
45.720       430
45.740       360
45.760       360
45.780       456
45.800       466
45.820       503
45.840       526
45.860       513
45.880       563
45.900       600
45.920       620
45.940       690
45.960       646
45.980       563
46.000       723
46.020       786
46.040       723
46.060       726
46.080       813
46.100       800
46.120       890
46.140       870
46.160       866
46.180       913
46.200       943
46.220       846
46.240       920
46.260      1030
46.280      1073
46.300      1023
46.320      1080
46.340      1040
46.360      1066
46.380       920
46.400       963
46.420       956
46.440       890
46.460       910
46.480       643
46.500       700
46.520       686
46.540       656
46.560       536
46.580       596
46.600       596
46.620       640
46.640       576
46.660       603
46.680       590
46.700       606
46.720       636
46.740       580
46.760       540
46.780       523
46.800       436
46.820       506
46.840       423
46.860       387
46.880       433
46.900       400
46.920       300
46.940       293
46.960       283
46.980       283
47.000       223
47.020       207
47.040       200
47.060       203
47.080       177
47.100       180
47.120       150
47.140       153
47.160       117
47.180       147
47.200       143
47.220       103
47.240        87
47.260       117
47.280       107
47.300       110
47.320       103
47.340       130
47.360        83
47.380        93
47.400        67
47.420        77
47.440        73
47.460        70
47.480        70
47.500        83
47.520        77
47.540        90
47.560        87
47.580        47
47.600        60
47.620        73
47.640        90
47.660        43
47.680        73
47.700        80
47.720        47
47.740        67
47.760        73
47.780        47
47.800        40
47.820        60
47.840        53
47.860        53
47.880        60
47.900        40
47.920        20
47.940        70
47.960        47
47.980        63
48.000        47
48.020        50
48.040        57
48.060        33
48.080        53
48.100        67
48.120        63
48.140        13
48.160        40
48.180        77
48.200        50
48.220        40
48.240        47
48.260        50
48.280        33
48.300        70
48.320        60
48.340        47
48.360        60
48.380        50
48.400        53
48.420        67
48.440        50
48.460        47
48.480        63
48.500        67
48.520        43
48.540        57
48.560        67
48.580        67
48.600        43
48.620        53
48.640        73
48.660        23
48.680        40
48.700        40
48.720        30
48.740        30
48.760        43
48.780        40
48.800        27
48.820        30
48.840        43
48.860        63
48.880        43
48.900        33
48.920        43
48.940        40
48.960        50
48.980        50
49.000        43
49.020        27
49.040        47
49.060        43
49.080        50
49.100        43
49.120        57
49.140        53
49.160        53
49.180        40
49.200        20
49.220        37
49.240        23
49.260        23
49.280        33
49.300        20
49.320        17
49.340        47
49.360        53
49.380        67
49.400        20
49.420        33
49.440        23
49.460        53
49.480        27
49.500        17
49.520        47
49.540        13
49.560        63
49.580        13
49.600        37
49.620        33
49.640        40
49.660        50
49.680        37
49.700        10
49.720        67
49.740        27
49.760        43
49.780        30
49.800        33
49.820        47
49.840        50
49.860        67
49.880        63
49.900        47
49.920        53
49.940        33
49.960        60
49.980        57
50.000        43
50.020        50
50.040        40
50.060        77
50.080        40
50.100        60
50.120        70
50.140        67
50.160        63
50.180        67
50.200        43
50.220        37
50.240        40
50.260        40
50.280        47
50.300        37
50.320        40
50.340        63
50.360        43
50.380        37
50.400        70
50.420        40
50.440        47
50.460        33
50.480        40
50.500        50
50.520        33
50.540        40
50.560        30
50.580        30
50.600        33
50.620        33
50.640        40
50.660        57
50.680        40
50.700        30
50.720        47
50.740        43
50.760        43
50.780        47
50.800        53
50.820        27
50.840        33
50.860        40
50.880        40
50.900        30
50.920        47
50.940        33
50.960        27
50.980        50
51.000        37
51.020        23
51.040        23
51.060        23
51.080        33
51.100        33
51.120        33
51.140        23
51.160        27
51.180        27
51.200        40
51.220        37
51.240        33
51.260        30
51.280        40
51.300        33
51.320        37
51.340        40
51.360        33
51.380        27
51.400        30
51.420        10
51.440        40
51.460        40
51.480        20
51.500        13
51.520        30
51.540        27
51.560        23
51.580        27
51.600        17
51.620        20
51.640        23
51.660        30
51.680        47
51.700        57
51.720        27
51.740        17
51.760        37
51.780        40
51.800        33
51.820        33
51.840        30
51.860        30
51.880        63
51.900        23
51.920        33
51.940        13
51.960        33
51.980        53
52.000        30
52.020        17
52.040        10
52.060        27
52.080        37
52.100        27
52.120        20
52.140        20
52.160        27
52.180        47
52.200        17
52.220        33
52.240        20
52.260        37
52.280        37
52.300        17
52.320        63
52.340        27
52.360        40
52.380        50
52.400        33
52.420        20
52.440        37
52.460        43
52.480        47
52.500        33
52.520        37
52.540        30
52.560        33
52.580        47
52.600        47
52.620        43
52.640        33
52.660        67
52.680        40
52.700        27
52.720        33
52.740        20
52.760        37
52.780        43
52.800        37
52.820        50
52.840        37
52.860        23
52.880        33
52.900        47
52.920        53
52.940        40
52.960        40
52.980        33
53.000        30
53.020        27
53.040        30
53.060        37
53.080        23
53.100        30
53.120        23
53.140        50
53.160        17
53.180        43
53.200        50
53.220        27
53.240        30
53.260        40
53.280        27
53.300        23
53.320        40
53.340        20
53.360        20
53.380        27
53.400        23
53.420        30
53.440        17
53.460        27
53.480        37
53.500        27
53.520        33
53.540        40
53.560        30
53.580        33
53.600        47
53.620         7
53.640        43
53.660        23
53.680        10
53.700        20
53.720        33
53.740        37
53.760        47
53.780        37
53.800        23
53.820        23
53.840        17
53.860        37
53.880        47
53.900        30
53.920        30
53.940        30
53.960        37
53.980        27
54.000        50
54.020        33
54.040        37
54.060        33
54.080        37
54.100        27
54.120        30
54.140        33
54.160        33
54.180        10
54.200        40
54.220        43
54.240        33
54.260        53
54.280        33
54.300        40
54.320        27
54.340        47
54.360        33
54.380        40
54.400        33
54.420        60
54.440        67
54.460        43
54.480        57
54.500        43
54.520        23
54.540        43
54.560        43
54.580        37
54.600        47
54.620        70
54.640        57
54.660        40
54.680        47
54.700        43
54.720        40
54.740        30
54.760        37
54.780        50
54.800        40
54.820        43
54.840        43
54.860        43
54.880        17
54.900        23
54.920        47
54.940        50
54.960        20
54.980        50
55.000        33
55.020        30
55.040        67
55.060        33
55.080        33
55.100        20
55.120        47
55.140        40
55.160        30
55.180        20
55.200        20
55.220        33
55.240        33
55.260        33
55.280        23
55.300        27
55.320        33
55.340        33
55.360        40
55.380        20
55.400        30
55.420        33
55.440        23
55.460        30
55.480        23
55.500        30
55.520        30
55.540        20
55.560        27
55.580        33
55.600        43
55.620        37
55.640         7
55.660        23
55.680        40
55.700        47
55.720        20
55.740        20
55.760        30
55.780        30
55.800        27
55.820        20
55.840        20
55.860        33
55.880        20
55.900        37
55.920        30
55.940        37
55.960        30
55.980        37
56.000        40
56.020        17
56.040        40
56.060        33
56.080        33
56.100        23
56.120        40
56.140        27
56.160        33
56.180        40
56.200        30
56.220        23
56.240        17
56.260        20
56.280        40
56.300        23
56.320        33
56.340        43
56.360        30
56.380        43
56.400        33
56.420        30
56.440        43
56.460        17
56.480        33
56.500        27
56.520        23
56.540        37
56.560        27
56.580        27
56.600        47
56.620        33
56.640        47
56.660        30
56.680        23
56.700        33
56.720        40
56.740        20
56.760        13
56.780        47
56.800        13
56.820        37
56.840        27
56.860        17
56.880        33
56.900        17
56.920        23
56.940        37
56.960        37
56.980        30
57.000        30
57.020        30
57.040        17
57.060        60
57.080        10
57.100        37
57.120        30
57.140        47
57.160        37
57.180        40
57.200        23
57.220        23
57.240        43
57.260        23
57.280        37
57.300        23
57.320        37
57.340        40
57.360        47
57.380        37
57.400        10
57.420        33
57.440        50
57.460        23
57.480        47
57.500        30
57.520        13
57.540        30
57.560        33
57.580        37
57.600        37
57.620        23
57.640        23
57.660        17
57.680        30
57.700        37
57.720        40
57.740        27
57.760        40
57.780        27
57.800        47
57.820        20
57.840        27
57.860        23
57.880        23
57.900        27
57.920        43
57.940        23
57.960        40
57.980        30
58.000        10
58.020        20
58.040        30
58.060        17
58.080        23
58.100        63
58.120        30
58.140        23
58.160        20
58.180        27
58.200        17
58.220        30
58.240        17
58.260        30
58.280        27
58.300        23
58.320        23
58.340        17
58.360        20
58.380        27
58.400        37
58.420        40
58.440        33
58.460        57
58.480        17
58.500        30
58.520        40
58.540        23
58.560        30
58.580        30
58.600        20
58.620        27
58.640        20
58.660        30
58.680        10
58.700        27
58.720        20
58.740        27
58.760        13
58.780        33
58.800        27
58.820        20
58.840        17
58.860        30
58.880         7
58.900        30
58.920        20
58.940        40
58.960        50
58.980        13
59.000        17
59.020        23
59.040        43
59.060        37
59.080        20
59.100        30
59.120        23
59.140        33
59.160        20
59.180        50
59.200        43
59.220        20
59.240        23
59.260        20
59.280        47
59.300        47
59.320        27
59.340        33
59.360        23
59.380        37
59.400        37
59.420        30
59.440        30
59.460        43
59.480        20
59.500        13
59.520        37
59.540        40
59.560        43
59.580        13
59.600        27
59.620        10
59.640        20
59.660        40
59.680        27
59.700        43
59.720        40
59.740        53
59.760        30
59.780        40
59.800        40
59.820        47
59.840        40
59.860        40
59.880        30
59.900        37
59.920         7
59.940        30
59.960        33
59.980        53
60.000        37
