20.000        87
20.010        87
20.020       213
20.030       200
20.040       240
20.050       213
20.060       193
20.070       220
20.080       193
20.090       313
20.100       253
20.110       207
20.120       267
20.130       227
20.140       193
20.150       187
20.160       247
20.170       220
20.180       227
20.190       233
20.200       247
20.210       200
20.220       260
20.230       247
20.240       220
20.250       260
20.260       267
20.270       233
20.280       273
20.290       287
20.300       247
20.310       220
20.320       213
20.330       240
20.340       240
20.350       167
20.360       240
20.370       220
20.380       247
20.390       220
20.400       207
20.410       173
20.420       207
20.430       180
20.440       207
20.450       253
20.460       220
20.470       287
20.480       220
20.490       200
20.500       213
20.510       247
20.520       213
20.530       220
20.540       193
20.550       140
20.560       287
20.570       207
20.580       173
20.590       300
20.600       213
20.610       160
20.620       280
20.630       260
20.640       153
20.650       293
20.660       267
20.670       233
20.680       287
20.690       213
20.700       233
20.710       193
20.720       227
20.730       253
20.740       227
20.750       227
20.760       213
20.770       267
20.780       267
20.790       200
20.800       200
20.810       227
20.820       273
20.830       240
20.840       180
20.850       260
20.860       213
20.870       247
20.880       353
20.890       260
20.900       173
20.910       207
20.920       193
20.930       253
20.940       140
20.950       240
20.960       193
20.970       313
20.980       187
20.990       273
21.000       200
21.010       227
21.020       180
21.030       240
21.040       187
21.050       280
21.060       220
21.070       167
21.080       233
21.090       213
21.100       147
21.110       220
21.120       213
21.130       193
21.140       187
21.150       187
21.160       307
21.170       220
21.180       180
21.190       200
21.200       233
21.210       273
21.220       147
21.230       273
21.240       193
21.250       247
21.260       207
21.270       227
21.280       213
21.290       207
21.300       200
21.310       193
21.320       193
21.330       167
21.340       193
21.350       213
21.360       180
21.370       200
21.380       240
21.390       240
21.400       240
21.410       207
21.420       227
21.430       153
21.440       227
21.450       127
21.460       233
21.470       160
21.480       193
21.490       240
21.500       220
21.510       167
21.520       180
21.530       207
21.540       260
21.550       247
21.560       200
21.570       193
21.580       193
21.590       147
21.600       147
21.610       173
21.620       220
21.630       213
21.640       193
21.650       160
21.660       180
21.670       153
21.680       267
21.690       187
21.700       213
21.710       173
21.720       253
21.730       160
21.740       260
21.750       180
21.760       180
21.770       260
21.780       287
21.790       233
21.800       180
21.810       187
21.820       247
21.830       213
21.840       240
21.850       160
21.860       227
21.870       213
21.880       160
21.890       207
21.900       167
21.910       293
21.920       167
21.930       220
21.940       133
21.950       240
21.960       213
21.970       260
21.980       173
21.990       187
22.000       187
22.010       187
22.020       207
22.030       207
22.040       253
22.050       187
22.060       233
22.070       200
22.080       240
22.090       207
22.100       213
22.110       273
22.120       153
22.130       193
22.140       173
22.150       207
22.160       167
22.170       233
22.180       187
22.190       240
22.200       207
22.210       160
22.220       200
22.230       160
22.240       227
22.250       173
22.260       133
22.270       193
22.280       213
22.290       167
22.300       200
22.310       167
22.320       133
22.330       240
22.340       180
22.350       200
22.360       173
22.370       240
22.380       273
22.390       193
22.400       220
22.410       213
22.420       193
22.430       280
22.440       220
22.450       133
22.460       207
22.470       180
22.480       260
22.490       240
22.500       240
22.510       233
22.520       267
22.530       200
22.540       253
22.550       280
22.560       200
22.570       280
22.580       280
22.590       213
22.600       240
22.610       287
22.620       213
22.630       333
22.640       240
22.650       253
22.660       333
22.670       233
22.680       287
22.690       287
22.700       227
22.710       313
22.720       233
22.730       260
22.740       253
22.750       253
22.760       200
22.770       240
22.780       180
22.790       267
22.800       213
22.810       140
22.820       233
22.830       207
22.840       220
22.850       240
22.860       213
22.870       200
22.880       213
22.890       220
22.900       307
22.910       293
22.920       193
22.930       247
22.940       260
22.950       240
22.960       213
22.970       293
22.980       200
22.990       233
23.000       267
23.010       213
23.020       253
23.030       153
23.040       160
23.050       247
23.060       160
23.070       173
23.080       240
23.090       160
23.100       213
23.110       220
23.120       153
23.130       200
23.140       140
23.150       173
23.160       180
23.170       167
23.180       213
23.190       200
23.200       207
23.210       240
23.220       120
23.230       187
23.240       187
23.250       193
23.260       193
23.270       127
23.280       147
23.290       167
23.300       160
23.310       253
23.320       193
23.330       180
23.340       140
23.350       153
23.360       180
23.370       247
23.380       213
23.390       120
23.400       173
23.410       187
23.420       240
23.430       187
23.440       200
23.450       113
23.460       167
23.470       160
23.480       200
23.490       180
23.500       233
23.510       167
23.520       213
23.530       207
23.540       180
23.550       233
23.560       127
23.570       220
23.580       140
23.590       327
23.600       173
23.610       160
23.620       193
23.630       187
23.640       193
23.650       127
23.660        93
23.670       207
23.680       180
23.690       187
23.700       160
23.710       147
23.720       147
23.730       173
23.740       220
23.750       140
23.760       227
23.770       220
23.780       160
23.790       247
23.800       207
23.810       147
23.820       133
23.830       133
23.840       153
23.850       200
23.860       167
23.870       160
23.880       200
23.890       173
23.900       140
23.910       180
23.920       233
23.930       193
23.940       173
23.950       220
23.960       213
23.970       233
23.980       140
23.990       200
24.000       153
24.010       153
24.020       187
24.030       167
24.040       180
24.050       153
24.060       160
24.070       167
24.080       147
24.090       167
24.100       253
24.110       167
24.120       260
24.130       140
24.140       173
24.150       233
24.160       153
24.170       233
24.180       220
24.190       173
24.200       187
24.210       193
24.220       193
24.230       200
24.240       120
24.250       173
24.260       153
24.270       120
24.280       233
24.290       207
24.300       140
24.310       193
24.320       160
24.330       173
24.340       153
24.350       167
24.360       167
24.370       207
24.380       207
24.390       140
24.400       187
24.410       173
24.420       200
24.430       220
24.440       147
24.450       133
24.460       173
24.470       167
24.480       140
24.490       167
24.500       193
24.510       187
24.520       213
24.530       167
24.540       273
24.550       167
24.560       180
24.570       140
24.580       147
24.590       193
24.600       173
24.610       187
24.620       140
24.630       133
24.640       187
24.650       160
24.660       193
24.670       167
24.680       160
24.690       187
24.700       113
24.710       173
24.720       127
24.730       193
24.740       200
24.750       107
24.760       193
24.770       167
24.780       180
24.790       220
24.800       153
24.810       200
24.820       187
24.830       133
24.840       173
24.850       180
24.860       167
24.870       127
24.880       173
24.890       160
24.900       133
24.910       160
24.920       153
24.930       180
24.940       120
24.950       100
24.960       173
24.970       193
24.980       187
24.990       160
25.000       120
25.010       160
25.020       220
25.030       173
25.040       147
25.050       160
25.060       153
25.070       140
25.080       173
25.090       120
25.100       107
25.110        93
25.120       133
25.130       200
25.140       193
25.150       153
25.160       113
25.170       100
25.180       147
25.190       220
25.200       140
25.210       213
25.220       213
25.230       180
25.240       140
25.250       160
25.260       187
25.270       167
25.280       153
25.290       127
25.300       127
25.310       227
25.320       187
25.330       187
25.340       120
25.350       147
25.360       167
25.370       187
25.380       187
25.390        93
25.400       120
25.410       133
25.420       127
25.430       207
25.440       167
25.450       153
25.460       193
25.470       153
25.480        87
25.490       147
25.500       193
25.510       140
25.520       140
25.530       120
25.540       133
25.550       127
25.560       107
25.570       147
25.580       167
25.590       140
25.600       120
25.610       127
25.620       147
25.630       127
25.640       107
25.650       113
25.660       113
25.670       127
25.680       147
25.690        80
25.700       113
25.710        73
25.720       147
25.730       127
25.740       147
25.750       127
25.760       100
25.770        60
25.780        87
25.790        67
25.800       147
25.810       153
25.820        73
25.830        87
25.840       113
25.850       120
25.860        87
25.870        80
25.880        87
25.890        53
25.900        67
25.910       113
25.920        67
25.930       120
25.940       133
25.950        87
25.960        60
25.970        73
25.980        87
25.990        73
26.000        73
26.010        93
26.020        67
26.030       113
26.040        87
26.050        80
26.060        93
26.070        67
26.080        60
26.090        80
26.100        60
26.110       100
26.120       100
26.130        80
26.140        93
26.150       107
26.160        67
26.170       133
26.180        87
26.190        93
26.200        67
26.210       127
26.220        73
26.230        67
26.240       147
26.250        87
26.260        87
26.270       100
26.280       100
26.290        73
26.300       107
26.310        60
26.320       193
26.330        73
26.340       120
26.350        93
26.360        53
26.370        40
26.380        87
26.390        53
26.400        73
26.410       100
26.420       107
26.430        73
26.440        47
26.450        67
26.460        47
26.470        87
26.480       100
26.490       107
26.500        87
26.510        87
26.520        87
26.530        87
26.540        93
26.550       107
26.560        80
26.570        73
26.580        60
26.590        93
26.600       100
26.610        47
26.620        87
26.630       107
26.640       107
26.650       100
26.660        67
26.670       113
26.680        93
26.690       153
26.700        80
26.710        93
26.720       100
26.730        73
26.740        67
26.750        73
26.760        93
26.770        60
26.780        87
26.790        80
26.800       100
26.810        53
26.820        93
26.830        67
26.840        93
26.850        87
26.860        67
26.870        67
26.880        73
26.890        67
26.900        60
26.910        67
26.920        80
26.930        87
26.940       107
26.950        93
26.960        80
26.970        53
26.980       113
26.990        87
27.000        53
27.010        80
27.020       127
27.030       100
27.040       107
27.050       100
27.060        67
27.070       107
27.080        80
27.090        80
27.100        53
27.110       100
27.120       113
27.130        60
27.140        93
27.150        80
27.160        40
27.170        80
27.180        40
27.190        87
27.200        67
27.210        80
27.220       120
27.230       113
27.240        80
27.250        87
27.260        53
27.270        40
27.280       100
27.290        80
27.300        73
27.310        73
27.320        60
27.330       127
27.340       120
27.350        40
27.360        87
27.370        40
27.380        87
27.390        40
27.400        67
27.410        80
27.420        87
27.430        87
27.440        73
27.450        73
27.460       187
27.470        40
27.480        80
27.490        53
27.500        73
27.510        67
27.520        73
27.530       100
27.540       113
27.550        93
27.560        73
27.570        87
27.580        73
27.590        47
27.600        47
27.610        87
27.620        60
27.630        80
27.640        87
27.650        80
27.660        53
27.670        60
27.680        80
27.690        73
27.700        93
27.710       100
27.720        87
27.730        93
27.740        53
27.750        60
27.760        87
27.770        80
27.780        53
27.790        60
27.800        87
27.810        67
27.820       100
27.830        73
27.840        87
27.850        67
27.860        93
27.870       107
27.880        73
27.890       100
27.900        93
27.910        87
27.920        47
27.930        80
27.940        80
27.950        87
27.960        93
27.970       107
27.980        53
27.990        33
28.000        87
28.010        67
28.020        60
28.030        67
28.040        73
28.050        67
28.060        93
28.070        67
28.080       107
28.090        80
28.100       113
28.110        73
28.120       120
28.130        67
28.140        80
28.150        80
28.160       100
28.170       120
28.180        73
28.190       107
28.200        87
28.210        60
28.220        67
28.230        60
28.240        60
28.250       113
28.260        73
28.270        87
28.280        93
28.290        87
28.300        73
28.310        73
28.320        80
28.330        80
28.340        73
28.350       100
28.360        53
28.370        80
28.380        93
28.390        60
28.400        33
28.410        93
28.420        73
28.430        87
28.440        60
28.450        47
28.460       133
28.470        53
28.480        60
28.490        60
28.500       107
28.510       107
28.520        67
28.530       113
28.540        87
28.550       140
28.560        20
28.570        93
28.580        67
28.590        80
28.600        93
28.610       127
28.620        73
28.630        87
28.640        67
28.650        67
28.660        87
28.670        80
28.680       133
28.690        87
28.700        67
28.710        87
28.720        80
28.730        67
28.740        47
28.750        67
28.760        67
28.770        67
28.780        87
28.790       107
28.800        87
28.810        93
28.820        87
28.830       127
28.840        93
28.850        53
28.860       107
28.870        67
28.880        60
28.890        87
28.900        67
28.910        93
28.920        47
28.930        93
28.940        60
28.950        60
28.960       113
28.970       107
28.980        80
28.990       113
29.000       153
29.010       113
29.020        73
29.030       127
29.040       127
29.050       100
29.060       127
29.070       100
29.080       153
29.090       153
29.100       100
29.110        67
29.120       120
29.130       153
29.140       153
29.150       180
29.160       140
29.170       127
29.180       147
29.190       160
29.200       107
29.210       167
29.220       147
29.230       100
29.240       153
29.250       133
29.260        87
29.270       127
29.280       133
29.290        73
29.300       113
29.310       120
29.320       100
29.330        73
29.340        67
29.350       100
29.360       100
29.370        33
29.380       107
29.390       100
29.400        80
29.410        73
29.420       100
29.430       100
29.440       107
29.450       113
29.460        67
29.470        67
29.480        47
29.490       120
29.500        60
29.510        93
29.520        80
29.530        93
29.540       100
29.550        80
29.560        93
29.570        60
29.580        73
29.590       100
29.600        60
29.610       100
29.620        80
29.630        47
29.640        87
29.650        33
29.660        80
29.670        73
29.680        73
29.690        60
29.700        67
29.710        67
29.720        87
29.730       113
29.740        47
29.750        33
29.760        60
29.770       100
29.780        93
29.790        47
29.800        60
29.810        53
29.820        53
29.830       113
29.840        67
29.850        87
29.860        80
29.870        67
29.880        47
29.890        60
29.900        53
29.910        47
29.920        53
29.930        47
29.940        73
29.950        87
29.960        73
29.970        47
29.980        13
29.990        67
30.000       100
30.010        67
30.020        73
30.030        73
30.040        40
30.050        87
30.060        73
30.070        67
30.080        87
30.090        60
30.100        93
30.110       127
30.120        53
30.130        93
30.140       100
30.150        60
30.160        60
30.170        40
30.180        80
30.190       107
30.200        67
30.210       107
30.220        87
30.230        80
30.240        53
30.250        67
30.260        87
30.270        47
30.280        87
30.290        40
30.300        47
30.310       113
30.320        93
30.330        73
30.340        40
30.350        73
30.360        60
30.370        80
30.380        67
30.390        93
30.400       140
30.410       113
30.420        87
30.430       107
30.440        80
30.450        60
30.460       133
30.470       107
30.480       107
30.490       100
30.500       120
30.510       147
30.520       120
30.530       107
30.540        93
30.550        60
30.560        73
30.570       107
30.580        93
30.590        67
30.600       107
30.610       120
30.620        80
30.630       107
30.640        53
30.650       113
30.660        93
30.670       107
30.680        87
30.690       100
30.700        87
30.710       133
30.720        73
30.730        67
30.740        60
30.750       100
30.760        73
30.770       107
30.780       113
30.790       133
30.800        80
30.810        73
30.820        40
30.830        67
30.840        87
30.850       127
30.860       133
30.870       120
30.880        93
30.890        60
30.900       100
30.910        80
30.920        60
30.930       100
30.940        93
30.950       140
30.960       120
30.970       100
30.980       140
30.990        93
31.000       127
31.010        67
31.020       120
31.030        93
31.040       113
31.050        93
31.060       127
31.070       107
31.080       107
31.090        87
31.100        73
31.110        87
31.120        87
31.130        60
31.140        87
31.150       140
31.160       113
31.170       100
31.180       133
31.190        93
31.200       120
31.210       127
31.220        93
31.230        93
31.240       127
31.250        80
31.260        80
31.270        73
31.280        53
31.290        93
31.300       107
31.310       100
31.320       167
31.330       100
31.340       180
31.350       120
31.360       127
31.370        87
31.380        60
31.390       100
31.400        93
31.410       133
31.420       120
31.430       120
31.440        87
31.450        60
31.460        87
31.470        80
31.480       153
31.490       127
31.500       107
31.510       127
31.520        80
31.530       133
31.540        93
31.550       107
31.560       127
31.570        93
31.580       100
31.590       107
31.600       133
31.610       120
31.620       100
31.630       140
31.640       147
31.650       153
31.660       113
31.670        93
31.680       140
31.690       120
31.700       100
31.710       120
31.720       133
31.730       120
31.740        80
31.750       133
31.760       100
31.770       160
31.780       113
31.790       147
31.800       133
31.810       100
31.820       140
31.830       153
31.840       153
31.850       173
31.860       180
31.870       160
31.880       147
31.890       227
31.900       113
31.910       167
31.920       187
31.930       267
31.940       227
31.950       173
31.960       267
31.970       187
31.980       233
31.990       187
32.000       220
32.010       193
32.020       253
32.030       167
32.040       180
32.050       233
32.060       320
32.070       426
32.080       500
32.090       940
32.100      1240
32.110      1706
32.120      2053
32.130      1939
32.140      1966
32.150      1979
32.160      1806
32.170      1319
32.180       860
32.190       606
32.200       407
32.210       367
32.220       327
32.230       320
32.240       300
32.250       180
32.260       193
32.270       273
32.280       187
32.290       220
32.300       200
32.310       320
32.320       227
32.330       287
32.340       213
32.350       220
32.360       247
32.370       187
32.380       233
32.390       233
32.400       173
32.410       233
32.420       213
32.430       240
32.440       193
32.450       207
32.460       207
32.470       187
32.480       220
32.490       293
32.500       253
32.510       187
32.520       247
32.530       173
32.540       167
32.550       193
32.560       173
32.570       120
32.580       187
32.590       153
32.600       167
32.610       167
32.620       147
32.630       113
32.640       187
32.650       160
32.660       207
32.670       200
32.680        87
32.690       180
32.700       207
32.710       193
32.720       153
32.730       227
32.740       173
32.750       200
32.760       100
32.770       120
32.780       140
32.790       167
32.800       133
32.810       160
32.820       133
32.830       113
32.840       167
32.850       187
32.860        80
32.870       133
32.880       140
32.890       173
32.900       227
32.910       147
32.920       127
32.930       113
32.940       140
32.950       180
32.960       133
32.970       187
32.980       140
32.990       160
33.000       120
33.010       127
33.020       153
33.030       160
33.040       193
33.050       173
33.060       160
33.070       127
33.080       120
33.090       153
33.100       167
33.110        93
33.120       147
33.130       173
33.140       160
33.150       133
33.160       113
33.170       173
33.180        67
33.190       180
33.200       187
33.210       167
33.220       133
33.230       120
33.240       153
33.250       133
33.260       213
33.270        93
33.280       160
33.290       173
33.300       140
33.310       140
33.320       127
33.330       133
33.340       127
33.350       120
33.360       187
33.370       133
33.380       173
33.390       127
33.400       167
33.410       107
33.420       173
33.430       127
33.440       107
33.450       107
33.460       100
33.470       127
33.480       113
33.490       140
33.500       147
33.510       113
33.520       120
33.530       100
33.540       160
33.550       133
33.560       173
33.570       147
33.580       113
33.590       127
33.600        73
33.610       133
33.620       147
33.630       167
33.640       167
33.650       147
33.660       160
33.670       173
33.680       120
33.690       140
33.700       147
33.710       107
33.720       180
33.730       127
33.740       193
33.750       113
33.760       153
33.770        67
33.780       133
33.790       113
33.800       113
33.810       127
33.820       140
33.830       133
33.840        87
33.850       133
33.860        93
33.870       173
33.880        87
33.890       153
33.900       107
33.910       147
33.920       180
33.930       113
33.940       113
33.950       153
33.960       140
33.970       127
33.980       153
33.990       173
34.000       140
34.010       140
34.020        93
34.030       113
34.040       113
34.050       160
34.060       160
34.070       140
34.080       107
34.090       140
34.100       140
34.110       120
34.120       113
34.130       120
34.140       133
34.150       167
34.160        93
34.170       100
34.180       153
34.190       113
34.200       153
34.210       140
34.220       140
34.230       107
34.240       133
34.250       127
34.260       127
34.270       127
34.280       153
34.290       173
34.300       153
34.310       213
34.320       247
34.330       140
34.340       153
34.350       173
34.360       240
34.370       273
34.380       247
34.390       333
34.400       407
34.410       580
34.420       533
34.430       520
34.440       760
34.450       893
34.460       793
34.470       733
34.480       753
34.490       746
34.500       720
34.510       700
34.520       720
34.530       700
34.540       726
34.550       706
34.560       740
34.570       786
34.580       680
34.590       780
34.600       780
34.610       653
34.620       740
34.630       793
34.640       740
34.650       740
34.660       800
34.670       773
34.680       780
34.690       780
34.700       740
34.710       713
34.720       773
34.730       840
34.740       820
34.750       773
34.760       806
34.770       733
34.780       920
34.790       673
34.800       746
34.810       860
34.820       866
34.830       760
34.840       806
34.850       780
34.860       786
34.870       853
34.880       746
34.890       780
34.900      1006
34.910       773
34.920       840
34.930       913
34.940       846
34.950       906
34.960       813
34.970       746
34.980       840
34.990       853
35.000       873
35.010       813
35.020       966
35.030       953
35.040       820
35.050       900
35.060       886
35.070       886
35.080       940
35.090       746
35.100       913
35.110       900
35.120      1106
35.130       986
35.140       966
35.150      1060
35.160       993
35.170      1006
35.180       886
35.190      1006
35.200      1006
35.210      1006
35.220       973
35.230      1080
35.240      1313
35.250      1053
35.260      1326
35.270      1253
35.280      1293
35.290      1293
35.300      1213
35.310      1386
35.320      1666
35.330      1439
35.340      1526
35.350      1699
35.360      1879
35.370      1773
35.380      2552
35.390      3119
35.400      3325
35.410      4012
35.420      4965
35.430      5591
35.440      6591
35.450      8103
35.460      9243
35.470     10409
35.480     11515
35.490     13341
35.500     14321
35.510     15061
35.520     15634
35.530     16807
35.540     16793
35.550     17180
35.560     19246
35.570     20339
35.580     24104
35.590     31641
35.600     44149
35.610     71418
35.620    114321
35.630    158870
35.640    189118
35.650    208503
35.660    214887
35.670    216393
35.680    207817
35.690    185366
35.700    151086
35.710    124090
35.720    116653
35.730    124130
35.740    130694
35.750    134599
35.760    134113
35.770    128569
35.780    110036
35.790     82887
35.800     51853
35.810     29755
35.820     17973
35.830     12508
35.840      9716
35.850      7697
35.860      6477
35.870      5438
35.880      4778
35.890      4078
35.900      3525
35.910      3205
35.920      3179
35.930      2985
35.940      2712
35.950      2279
35.960      2152
35.970      2139
35.980      1986
35.990      1879
36.000      1639
36.010      1786
36.020      1759
36.030      1746
36.040      1739
36.050      1486
36.060      1419
36.070      1379
36.080      1499
36.090      1346
36.100      1359
36.110      1326
36.120      1313
36.130      1180
36.140      1180
36.150      1240
36.160      1146
36.170      1173
36.180      1146
36.190      1180
36.200      1160
36.210      1293
36.220      1200
36.230      1080
36.240       980
36.250      1113
36.260      1113
36.270      1046
36.280      1046
36.290       900
36.300       920
36.310       993
36.320       973
36.330       913
36.340       853
36.350       940
36.360       840
36.370       853
36.380       720
36.390       726
36.400       806
36.410       760
36.420       680
36.430       940
36.440       740
36.450       780
36.460       753
36.470       713
36.480       720
36.490       773
36.500       726
36.510       826
36.520       846
36.530       706
36.540       746
36.550       806
36.560       806
36.570       846
36.580       760
36.590       773
36.600       740
36.610       773
36.620       813
36.630       713
36.640       720
36.650       846
36.660       713
36.670       580
36.680       653
36.690       766
36.700       760
36.710       653
36.720       553
36.730       720
36.740       686
36.750       573
36.760       653
36.770       626
36.780       640
36.790       680
36.800       613
36.810       673
36.820       633
36.830       626
36.840       726
36.850       640
36.860       626
36.870       546
36.880       666
36.890       633
36.900       626
36.910       646
36.920       600
36.930       606
36.940       726
36.950       520
36.960       460
36.970       686
36.980       613
36.990       726
37.000       700
37.010       660
37.020       713
37.030       720
37.040       626
37.050       640
37.060       620
37.070       613
37.080       620
37.090       673
37.100       600
37.110       566
37.120       593
37.130       666
37.140       673
37.150       540
37.160       706
37.170       586
37.180       566
37.190       633
37.200       626
37.210       506
37.220       493
37.230       466
37.240       493
37.250       586
37.260       493
37.270       586
37.280       533
37.290       440
37.300       580
37.310       553
37.320       560
37.330       506
37.340       553
37.350       513
37.360       480
37.370       580
37.380       573
37.390       580
37.400       553
37.410       640
37.420       546
37.430       500
37.440       526
37.450       633
37.460       620
37.470       540
37.480       380
37.490       606
37.500       526
37.510       486
37.520       460
37.530       553
37.540       653
37.550       526
37.560       613
37.570       620
37.580       500
37.590       500
37.600       613
37.610       533
37.620       546
37.630       573
37.640       500
37.650       480
37.660       466
37.670       466
37.680       540
37.690       613
37.700       453
37.710       446
37.720       546
37.730       526
37.740       526
37.750       666
37.760       460
37.770       426
37.780       613
37.790       500
37.800       573
37.810       520
37.820       460
37.830       506
37.840       513
37.850       393
37.860       520
37.870       506
37.880       440
37.890       560
37.900       473
37.910       466
37.920       393
37.930       500
37.940       553
37.950       513
37.960       453
37.970       486
37.980       480
37.990       593
38.000       480
38.010       526
38.020       506
38.030       626
38.040       546
38.050       526
38.060       473
38.070       486
38.080       593
38.090       513
38.100       513
38.110       520
38.120       373
38.130       506
38.140       440
38.150       513
38.160       486
38.170       473
38.180       486
38.190       327
38.200       433
38.210       446
38.220       433
38.230       473
38.240       480
38.250       506
38.260       486
38.270       446
38.280       446
38.290       400
38.300       433
38.310       540
38.320       500
38.330       500
38.340       446
38.350       440
38.360       500
38.370       486
38.380       426
38.390       420
38.400       393
38.410       473
38.420       600
38.430       380
38.440       433
38.450       413
38.460       426
38.470       466
38.480       407
38.490       486
38.500       407
38.510       526
38.520       520
38.530       380
38.540       466
38.550       413
38.560       460
38.570       433
38.580       453
38.590       506
38.600       387
38.610       420
38.620       360
38.630       460
38.640       500
38.650       413
38.660       393
38.670       446
38.680       440
38.690       400
38.700       413
38.710       480
38.720       413
38.730       426
38.740       367
38.750       380
38.760       433
38.770       420
38.780       480
38.790       453
38.800       360
38.810       460
38.820       347
38.830       407
38.840       387
38.850       433
38.860       513
38.870       460
38.880       387
38.890       380
38.900       360
38.910       426
38.920       340
38.930       440
38.940       407
38.950       400
38.960       387
38.970       420
38.980       533
38.990       340
39.000       420
39.010       393
39.020       360
39.030       440
39.040       347
39.050       486
39.060       440
39.070       300
39.080       347
39.090       387
39.100       506
39.110       466
39.120       486
39.130       313
39.140       440
39.150       466
39.160       387
39.170       393
39.180       380
39.190       387
39.200       333
39.210       353
39.220       393
39.230       407
39.240       347
39.250       347
39.260       307
39.270       433
39.280       353
39.290       426
39.300       446
39.310       373
39.320       340
39.330       413
39.340       400
39.350       426
39.360       267
39.370       413
39.380       433
39.390       333
39.400       387
39.410       327
39.420       380
39.430       407
39.440       360
39.450       380
39.460       413
39.470       440
39.480       387
39.490       307
39.500       433
39.510       446
39.520       460
39.530       327
39.540       313
39.550       353
39.560       413
39.570       440
39.580       347
39.590       413
39.600       373
39.610       340
39.620       340
39.630       420
39.640       446
39.650       347
39.660       407
39.670       413
39.680       387
39.690       380
39.700       446
39.710       333
39.720       300
39.730       373
39.740       433
39.750       340
39.760       373
39.770       340
39.780       333
39.790       293
39.800       300
39.810       407
39.820       367
39.830       440
39.840       327
39.850       313
39.860       393
39.870       373
39.880       327
39.890       353
39.900       446
39.910       340
39.920       446
39.930       327
39.940       287
39.950       293
39.960       380
39.970       400
39.980       387
39.990       466
40.000       387
40.010       300
40.020       347
40.030       367
40.040       367
40.050       313
40.060       333
40.070       287
40.080       280
40.090       327
40.100       353
40.110       407
40.120       300
40.130       373
40.140       380
40.150       360
40.160       307
40.170       280
40.180       293
40.190       300
40.200       407
40.210       327
40.220       360
40.230       373
40.240       340
40.250       387
40.260       333
40.270       387
40.280       300
40.290       347
40.300       293
40.310       340
40.320       400
40.330       360
40.340       380
40.350       327
40.360       307
40.370       313
40.380       453
40.390       307
40.400       293
40.410       367
40.420       320
40.430       420
40.440       327
40.450       453
40.460       347
40.470       293
40.480       333
40.490       327
40.500       273
40.510       353
40.520       333
40.530       287
40.540       360
40.550       267
40.560       413
40.570       353
40.580       347
40.590       300
40.600       300
40.610       380
40.620       353
40.630       387
40.640       333
40.650       340
40.660       407
40.670       207
40.680       340
40.690       253
40.700       280
40.710       247
40.720       307
40.730       380
40.740       327
40.750       327
40.760       360
40.770       240
40.780       307
40.790       287
40.800       340
40.810       273
40.820       393
40.830       340
40.840       253
40.850       273
40.860       413
40.870       313
40.880       380
40.890       387
40.900       287
40.910       247
40.920       233
40.930       333
40.940       347
40.950       313
40.960       293
40.970       307
40.980       347
40.990       393
41.000       307
41.010       353
41.020       393
41.030       233
41.040       446
41.050       300
41.060       240
41.070       273
41.080       446
41.090       247
41.100       333
41.110       307
41.120       333
41.130       313
41.140       347
41.150       293
41.160       293
41.170       360
41.180       273
41.190       353
41.200       380
41.210       380
41.220       253
41.230       313
41.240       287
41.250       413
41.260       320
41.270       293
41.280       253
41.290       347
41.300       287
41.310       327
41.320       207
41.330       287
41.340       320
41.350       287
41.360       240
41.370       320
41.380       260
41.390       307
41.400       320
41.410       287
41.420       313
41.430       320
41.440       327
41.450       293
41.460       360
41.470       260
41.480       340
41.490       280
41.500       333
41.510       200
41.520       253
41.530       307
41.540       293
41.550       387
41.560       333
41.570       260
41.580       320
41.590       247
41.600       273
41.610       327
41.620       300
41.630       327
41.640       280
41.650       300
41.660       273
41.670       307
41.680       240
41.690       260
41.700       300
41.710       260
41.720       307
41.730       300
41.740       320
41.750       340
41.760       313
41.770       360
41.780       280
41.790       320
41.800       267
41.810       267
41.820       407
41.830       313
41.840       287
41.850       360
41.860       267
41.870       220
41.880       260
41.890       313
41.900       313
41.910       327
41.920       233
41.930       300
41.940       320
41.950       293
41.960       280
41.970       247
41.980       167
41.990       273
42.000       240
42.010       293
42.020       287
42.030       267
42.040       287
42.050       293
42.060       307
42.070       273
42.080       267
42.090       287
42.100       327
42.110       320
42.120       240
42.130       233
42.140       293
42.150       247
42.160       313
42.170       293
42.180       260
42.190       227
42.200       207
42.210       320
42.220       267
42.230       300
42.240       293
42.250       333
42.260       327
42.270       227
42.280       333
42.290       273
42.300       213
42.310       247
42.320       280
42.330       280
42.340       287
42.350       340
42.360       227
42.370       313
42.380       307
42.390       153
42.400       267
42.410       267
42.420       233
42.430       287
42.440       280
42.450       233
42.460       207
42.470       193
42.480       260
42.490       273
42.500       253
42.510       200
42.520       313
42.530       233
42.540       287
42.550       240
42.560       307
42.570       207
42.580       267
42.590       267
42.600       293
42.610       220
42.620       200
42.630       267
42.640       247
42.650       227
42.660       280
42.670       227
42.680       213
42.690       367
42.700       233
42.710       240
42.720       193
42.730       207
42.740       340
42.750       360
42.760       247
42.770       200
42.780       313
42.790       287
42.800       227
42.810       293
42.820       240
42.830       313
42.840       220
42.850       200
42.860       220
42.870       300
42.880       260
42.890       267
42.900       200
42.910       293
42.920       267
42.930       260
42.940       287
42.950       213
42.960       247
42.970       207
42.980       287
42.990       267
43.000       227
43.010       300
43.020       280
43.030       193
43.040       267
43.050       187
43.060       253
43.070       260
43.080       240
43.090       227
43.100       260
43.110       180
43.120       180
43.130       240
43.140       247
43.150       193
43.160       200
43.170       187
43.180       213
43.190       240
43.200       240
43.210       253
43.220       220
43.230       273
43.240       273
43.250       233
43.260       253
43.270       220
43.280       180
43.290       200
43.300       207
43.310       220
43.320       167
43.330       227
43.340       193
43.350       173
43.360       193
43.370       227
43.380       213
43.390       187
43.400       247
43.410       267
43.420       220
43.430       300
43.440       167
43.450       213
43.460       153
43.470       253
43.480       247
43.490       233
43.500       193
43.510       213
43.520       253
43.530       240
43.540       253
43.550       220
43.560       153
43.570       220
43.580       200
43.590       120
43.600       260
43.610       240
43.620       240
43.630       220
43.640       233
43.650       240
43.660       247
43.670       200
43.680       193
43.690       187
43.700       153
43.710       253
43.720       193
43.730       233
43.740       280
43.750       200
43.760       240
43.770       147
43.780       253
43.790       193
43.800       267
43.810       140
43.820       207
43.830       247
43.840       180
43.850       180
43.860       173
43.870       220
43.880       160
43.890       213
43.900       233
43.910       173
43.920       200
43.930       200
43.940       153
43.950       273
43.960       153
43.970       233
43.980       193
43.990       213
44.000       227
44.010       160
44.020       220
44.030       233
44.040       227
44.050       240
44.060       173
44.070       220
44.080       173
44.090       193
44.100       187
44.110       187
44.120       227
44.130       220
44.140       167
44.150       167
44.160       187
44.170       253
44.180       200
44.190       213
44.200       180
44.210       160
44.220       200
44.230       167
44.240       233
44.250       207
44.260       260
44.270       153
44.280       167
44.290       213
44.300       227
44.310       180
44.320       200
44.330       180
44.340       220
44.350       133
44.360       247
44.370       227
44.380       207
44.390       220
44.400       193
44.410       233
44.420       207
44.430       273
44.440       247
44.450       240
44.460       173
44.470       240
44.480       160
44.490       207
44.500       260
44.510       147
44.520       127
44.530       160
44.540       193
44.550       193
44.560       187
44.570       207
44.580       187
44.590       207
44.600       220
44.610       193
44.620       207
44.630       193
44.640       213
44.650       233
44.660       220
44.670       173
44.680       220
44.690       153
44.700       213
44.710       227
44.720       180
44.730       160
44.740       200
44.750       153
44.760       240
44.770       213
44.780       160
44.790       180
44.800       220
44.810       220
44.820       153
44.830       167
44.840       180
44.850       173
44.860       180
44.870       207
44.880       220
44.890       247
44.900       133
44.910       200
44.920       167
44.930       167
44.940       220
44.950       120
44.960       167
44.970       140
44.980       160
44.990       193
45.000       180
45.010       133
45.020       200
45.030       193
45.040       147
45.050       187
45.060       180
45.070       273
45.080       140
45.090       207
45.100       140
45.110       187
45.120       180
45.130       180
45.140       173
45.150       160
45.160       240
45.170       233
45.180       133
45.190       173
45.200       180
45.210       133
45.220       133
45.230       273
45.240       220
45.250       167
45.260       187
45.270       200
45.280       233
45.290       200
45.300       133
45.310       213
45.320       233
45.330       227
45.340       187
45.350       160
45.360       113
45.370       187
45.380       200
45.390       187
45.400       227
45.410       167
45.420       167
45.430       140
45.440       140
45.450       187
45.460       167
45.470       187
45.480       213
45.490       200
45.500       160
45.510       193
45.520       193
45.530       173
45.540       233
45.550       113
45.560       233
45.570       173
45.580       133
45.590       127
45.600       227
45.610       167
45.620       200
45.630       187
45.640       160
45.650       147
45.660       227
45.670       140
45.680       200
45.690       147
45.700       133
45.710       167
45.720       113
45.730       193
45.740       233
45.750       167
45.760       207
45.770       167
45.780       167
45.790       180
45.800       160
45.810       153
45.820       213
45.830       140
45.840       213
45.850       147
45.860       140
45.870       180
45.880       200
45.890       180
45.900       200
45.910       133
45.920       213
45.930       280
45.940       220
45.950       233
45.960       200
45.970       213
45.980       267
45.990       347
46.000       247
46.010       220
46.020       247
46.030       213
46.040       267
46.050       247
46.060       200
46.070       287
46.080       220
46.090       173
46.100       227
46.110       280
46.120       213
46.130       253
46.140       267
46.150       260
46.160       247
46.170       333
46.180       320
46.190       313
46.200       260
46.210       333
46.220       320
46.230       353
46.240       380
46.250       373
46.260       287
46.270       320
46.280       327
46.290       360
46.300       393
46.310       426
46.320       340
46.330       387
46.340       466
46.350       460
46.360       353
46.370       373
46.380       380
46.390       426
46.400       307
46.410       526
46.420       400
46.430       333
46.440       453
46.450       473
46.460       387
46.470       413
46.480       367
46.490       400
46.500       353
46.510       360
46.520       473
46.530       340
46.540       307
46.550       420
46.560       413
46.570       413
46.580       273
46.590       393
46.600       460
46.610       313
46.620       320
46.630       333
46.640       340
46.650       347
46.660       240
46.670       280
46.680       380
46.690       307
46.700       247
46.710       207
46.720       293
46.730       240
46.740       167
46.750       273
46.760       220
46.770       293
46.780       240
46.790       213
46.800       227
46.810       200
46.820       247
46.830       173
46.840       193
46.850       187
46.860       167
46.870       240
46.880       207
46.890       193
46.900       220
46.910       260
46.920       207
46.930       220
46.940       147
46.950       173
46.960       200
46.970       173
46.980       187
46.990       127
47.000       173
47.010       233
47.020       153
47.030       207
47.040       160
47.050       113
47.060       200
47.070       100
47.080       107
47.090       173
47.100       180
47.110       133
47.120       187
47.130       127
47.140       147
47.150       193
47.160       113
47.170       193
47.180       107
47.190       227
47.200       187
47.210       160
47.220       133
47.230       140
47.240       153
47.250       153
47.260       187
47.270       147
47.280       167
47.290       153
47.300       180
47.310       153
47.320       120
47.330       173
47.340       113
47.350       180
47.360       147
47.370       200
47.380       153
47.390       113
47.400       160
47.410       147
47.420       133
47.430       147
47.440       147
47.450       140
47.460       133
47.470       140
47.480       160
47.490       100
47.500       120
47.510       127
47.520       120
47.530       147
47.540       140
47.550       127
47.560       160
47.570       140
47.580       167
47.590        67
47.600       180
47.610       140
47.620       133
47.630       160
47.640       120
47.650       173
47.660       173
47.670       127
47.680       180
47.690       153
47.700       133
47.710       160
47.720       153
47.730       133
47.740       140
47.750       140
47.760        87
47.770       173
47.780       140
47.790       133
47.800       127
47.810       133
47.820       140
47.830       147
47.840       160
47.850       167
47.860       127
47.870       173
47.880       147
47.890       153
47.900       160
47.910        93
47.920       107
47.930       227
47.940       160
47.950       153
47.960       107
47.970       127
47.980       127
47.990       100
48.000       120
48.010       107
48.020       107
48.030       113
48.040       107
48.050       107
48.060        67
48.070       100
48.080       100
48.090       107
48.100       127
48.110        93
48.120       113
48.130       153
48.140       173
48.150       140
48.160       147
48.170       167
48.180       153
48.190       167
48.200       180
48.210       180
48.220       107
48.230       167
48.240       107
48.250       180
48.260       173
48.270       167
48.280       120
48.290       173
48.300       160
48.310       140
48.320       107
48.330       113
48.340       153
48.350       113
48.360       207
48.370       147
48.380        80
48.390       113
48.400       100
48.410       127
48.420       120
48.430       180
48.440       120
48.450       127
48.460       140
48.470       127
48.480       127
48.490       140
48.500       113
48.510       147
48.520       113
48.530       113
48.540       160
48.550       160
48.560       113
48.570       187
48.580       100
48.590       100
48.600       147
48.610       107
48.620       107
48.630       193
48.640       140
48.650       147
48.660       200
48.670       133
48.680       133
48.690        93
48.700       100
48.710       140
48.720       127
48.730       147
48.740       113
48.750       120
48.760        87
48.770        80
48.780       107
48.790       160
48.800       127
48.810       113
48.820       120
48.830       113
48.840       127
48.850       120
48.860       100
48.870       100
48.880       100
48.890       133
48.900       107
48.910       120
48.920       100
48.930       100
48.940        73
48.950        93
48.960        93
48.970       140
48.980       113
48.990       100
49.000        80
49.010       153
49.020        93
49.030       120
49.040        93
49.050       193
49.060       127
49.070       173
49.080       127
49.090       140
49.100       113
49.110       120
49.120       153
49.130       140
49.140       107
49.150       153
49.160       100
49.170       140
49.180       100
49.190        67
49.200       107
49.210       120
49.220       140
49.230       113
49.240       127
49.250       107
49.260       113
49.270       153
49.280        67
49.290        60
49.300       140
49.310       113
49.320       100
49.330       113
49.340        93
49.350       127
49.360       153
49.370       127
49.380       120
49.390       133
49.400        80
49.410       140
49.420        47
49.430       147
49.440       100
49.450       153
49.460       120
49.470       180
49.480       120
49.490        80
49.500        60
49.510        67
49.520       127
49.530        93
49.540       120
49.550        80
49.560       100
49.570       107
49.580        93
49.590        40
49.600       113
49.610       133
49.620        73
49.630       127
49.640       100
49.650       140
49.660       147
49.670       127
49.680       107
49.690       133
49.700       107
49.710        80
49.720       133
49.730       120
49.740       113
49.750       100
49.760        93
49.770       140
49.780       107
49.790       120
49.800       133
49.810        87
49.820       100
49.830       113
49.840       127
49.850       173
49.860       127
49.870       133
49.880        87
49.890       100
49.900       107
49.910       120
49.920       127
49.930        93
49.940       107
49.950       107
49.960        80
49.970        33
49.980        80
49.990       107
50.000       113
50.010        87
50.020       120
50.030       127
50.040        87
50.050       127
50.060       167
50.070       107
50.080       127
50.090       107
50.100       113
50.110        73
50.120       180
50.130       107
50.140       140
50.150       107
50.160        87
50.170       100
50.180        53
50.190        80
50.200        60
50.210       133
50.220        60
50.230        87
50.240       133
50.250       133
50.260       107
50.270       120
50.280       167
50.290        73
50.300        67
50.310       133
50.320       113
50.330       100
50.340       100
50.350       147
50.360       120
50.370       107
50.380        87
50.390       100
50.400       120
50.410       113
50.420       167
50.430        87
50.440        80
50.450       107
50.460        80
50.470       113
50.480       127
50.490       100
50.500        80
50.510       113
50.520       100
50.530       160
50.540       140
50.550        80
50.560        87
50.570       133
50.580        73
50.590        93
50.600        87
50.610       127
50.620        73
50.630        87
50.640       100
50.650       107
50.660        93
50.670        93
50.680       160
50.690       133
50.700        93
50.710        47
50.720       107
50.730       107
50.740       107
50.750       113
50.760        87
50.770        93
50.780       107
50.790        67
50.800       120
50.810       107
50.820        93
50.830       120
50.840        80
50.850       153
50.860        60
50.870        87
50.880        80
50.890       127
50.900        60
50.910       107
50.920        53
50.930        80
50.940        67
50.950       153
50.960       127
50.970       127
50.980       153
50.990        73
51.000        87
51.010       133
51.020       107
51.030       107
51.040       133
51.050        60
51.060       127
51.070       120
51.080        80
51.090        67
51.100       127
51.110        60
51.120       120
51.130        93
51.140       113
51.150       133
51.160        73
51.170        80
51.180       113
51.190       120
51.200        53
51.210       100
51.220        73
51.230        93
51.240        67
51.250       140
51.260        80
51.270       107
51.280       100
51.290       100
51.300       107
51.310        80
51.320       133
51.330        73
51.340        80
51.350        87
51.360        80
51.370        87
51.380        67
51.390       100
51.400       100
51.410        53
51.420        60
51.430        73
51.440       100
51.450       113
51.460       107
51.470        53
51.480       120
51.490       100
51.500       113
51.510        93
51.520       153
51.530        73
51.540        93
51.550        93
51.560        73
51.570        87
51.580       107
51.590        53
51.600       107
51.610       120
51.620       100
51.630        73
51.640       140
51.650        80
51.660       113
51.670        60
51.680        87
51.690        80
51.700       107
51.710        87
51.720        67
51.730       113
51.740       127
51.750       127
51.760        73
51.770        47
51.780       120
51.790       140
51.800       113
51.810        93
51.820        87
51.830       113
51.840       113
51.850       113
51.860       113
51.870       100
51.880       113
51.890        87
51.900        80
51.910       100
51.920        60
51.930       133
51.940        93
51.950        80
51.960       100
51.970       113
51.980       107
51.990        67
52.000        93
52.010        93
52.020        80
52.030       107
52.040       100
52.050       120
52.060        87
52.070       100
52.080        80
52.090       127
52.100       113
52.110       140
52.120       100
52.130       100
52.140        67
52.150        87
52.160        67
52.170       107
52.180       120
52.190        60
52.200       107
52.210        67
52.220       140
52.230        87
52.240        80
52.250        73
52.260        73
52.270       100
52.280        93
52.290        73
52.300       120
52.310       100
52.320        93
52.330       100
52.340        87
52.350        87
52.360       120
52.370        93
52.380       113
52.390        80
52.400       113
52.410       147
52.420       140
52.430        80
52.440        93
52.450        93
52.460       100
52.470        80
52.480        67
52.490        67
52.500       120
52.510        80
52.520        73
52.530        87
52.540        67
52.550        40
52.560       107
52.570       113
52.580       140
52.590        73
52.600       127
52.610        73
52.620        67
52.630       140
52.640       120
52.650        93
52.660        73
52.670        80
52.680        73
52.690        73
52.700        80
52.710       107
52.720        93
52.730        67
52.740        60
52.750       100
52.760        73
52.770        93
52.780       100
52.790       107
52.800       100
52.810        93
52.820        73
52.830       120
52.840        87
52.850       100
52.860       147
52.870        93
52.880       120
52.890       100
52.900        60
52.910       147
52.920        47
52.930        60
52.940        47
52.950        33
52.960       120
52.970        93
52.980       180
52.990        67
53.000        67
53.010        60
53.020        93
53.030       140
53.040        53
53.050       113
53.060       127
53.070       113
53.080       127
53.090       160
53.100        33
53.110        80
53.120       113
53.130        87
53.140        93
53.150        87
53.160        87
53.170        87
53.180       113
53.190       120
53.200        87
53.210        87
53.220        93
53.230       107
53.240        73
53.250        87
53.260        73
53.270       113
53.280        67
53.290        60
53.300        80
53.310        87
53.320        93
53.330        93
53.340        80
53.350        67
53.360        93
53.370        60
53.380        87
53.390       127
53.400        80
53.410       100
53.420        87
53.430        80
53.440        87
53.450        47
53.460        87
53.470       133
53.480        80
53.490        67
53.500        67
53.510        33
53.520        80
53.530        40
53.540        87
53.550        67
53.560        73
53.570       113
53.580        60
53.590       127
53.600        80
53.610       100
53.620        87
53.630        87
53.640        87
53.650        80
53.660        40
53.670        60
53.680       107
53.690        53
53.700        87
53.710        67
53.720        53
53.730       113
53.740        73
53.750        93
53.760        33
53.770        73
53.780        93
53.790        80
53.800        60
53.810        87
53.820        67
53.830        73
53.840        60
53.850       100
53.860        93
53.870       133
53.880        93
53.890       140
53.900        87
53.910       133
53.920       133
53.930        87
53.940       107
53.950       100
53.960        73
53.970        93
53.980        47
53.990       133
54.000        80
54.010       113
54.020       120
54.030       120
54.040       100
54.050        80
54.060       120
54.070       147
54.080        47
54.090       100
54.100        73
54.110        67
54.120        67
54.130        73
54.140        93
54.150        87
54.160       113
54.170        87
54.180        93
54.190        67
54.200       107
54.210       107
54.220        73
54.230        47
54.240        93
54.250        80
54.260       133
54.270        67
54.280        93
54.290        40
54.300       120
54.310       100
54.320        93
54.330        93
54.340       107
54.350        87
54.360        73
54.370        67
54.380       107
54.390        80
54.400        67
54.410       100
54.420        80
54.430        60
54.440        93
54.450        87
54.460       100
54.470        87
54.480       140
54.490        40
54.500        67
54.510       100
54.520        67
54.530       107
54.540       107
54.550        93
54.560       127
54.570        60
54.580        80
54.590        47
54.600        73
54.610       147
54.620        93
54.630        93
54.640        80
54.650       107
54.660        80
54.670       153
54.680        67
54.690        73
54.700       107
54.710        87
54.720        73
54.730        93
54.740       113
54.750       107
54.760        73
54.770        80
54.780        73
54.790       113
54.800        60
54.810        60
54.820        67
54.830        93
54.840       133
54.850        73
54.860        73
54.870        93
54.880        73
54.890        67
54.900        53
54.910       100
54.920        93
54.930        87
54.940       107
54.950       127
54.960       113
54.970       100
54.980       133
54.990       120
55.000        93
55.010        47
55.020       107
55.030        73
55.040        60
55.050        47
55.060       113
55.070        73
55.080       133
55.090        93
55.100        67
55.110        93
55.120        53
55.130        93
55.140        67
55.150        93
55.160        93
55.170        93
55.180        47
55.190        93
55.200        80
55.210       107
55.220        60
55.230        47
55.240       113
55.250        93
55.260        93
55.270       113
55.280       127
55.290        53
55.300       100
55.310       100
55.320       113
55.330        40
55.340       127
55.350       107
55.360       107
55.370       100
55.380        60
55.390        80
55.400       107
55.410       107
55.420        73
55.430        93
55.440        60
55.450        73
55.460       113
55.470        53
55.480        80
55.490        73
55.500       100
55.510        87
55.520        67
55.530       107
55.540       107
55.550        87
55.560       100
55.570        40
55.580        80
55.590        80
55.600        87
55.610        53
55.620        67
55.630       113
55.640        80
55.650       107
55.660       100
55.670       100
55.680        93
55.690       107
55.700        87
55.710        60
55.720        93
55.730        60
55.740        80
55.750       107
55.760        73
55.770       100
55.780       100
55.790        80
55.800        73
55.810        87
55.820        93
55.830        87
55.840        67
55.850        60
55.860       113
55.870        67
55.880        87
55.890        47
55.900        67
55.910        73
55.920        47
55.930        60
55.940        60
55.950        73
55.960       107
55.970        67
55.980       107
55.990        67
56.000        87
56.010        60
56.020        93
56.030        33
56.040        60
56.050       133
56.060       100
56.070       107
56.080        73
56.090        73
56.100        87
56.110        87
56.120       100
56.130        87
56.140        67
56.150        73
56.160        87
56.170        67
56.180        53
56.190        27
56.200        87
56.210        87
56.220        93
56.230        47
56.240       133
56.250        73
56.260        87
56.270        87
56.280        87
56.290        60
56.300        13
56.310        73
56.320        53
56.330        93
56.340        60
56.350        87
56.360        60
56.370        87
56.380        60
56.390        67
56.400       113
56.410        73
56.420        80
56.430        67
56.440       113
56.450        67
56.460       133
56.470       100
56.480        60
56.490       147
56.500        60
56.510        67
56.520        67
56.530        67
56.540        47
56.550        40
56.560        93
56.570       120
56.580        47
56.590        73
56.600       120
56.610        73
56.620        87
56.630        87
56.640        93
56.650        73
56.660        73
56.670       127
56.680        40
56.690        60
56.700        67
56.710        87
56.720        60
56.730       100
56.740        53
56.750        80
56.760        80
56.770       100
56.780        53
56.790        80
56.800        93
56.810        67
56.820        73
56.830        60
56.840        67
56.850        60
56.860        33
56.870       107
56.880        53
56.890        80
56.900        93
56.910        93
56.920        87
56.930       133
56.940        53
56.950        60
56.960       100
56.970        67
56.980        67
56.990        87
57.000        93
57.010        67
57.020        93
57.030       120
57.040        87
57.050        73
57.060       100
57.070       107
57.080       107
57.090        73
57.100        60
57.110       100
57.120        87
57.130        87
57.140       100
57.150        67
57.160       100
57.170        67
57.180        60
57.190        73
57.200        33
57.210        73
57.220       113
57.230        20
57.240        60
57.250        73
57.260        67
57.270        33
57.280       113
57.290        47
57.300       133
57.310        87
57.320        80
57.330        73
57.340        80
57.350       100
57.360       120
57.370       107
57.380        67
57.390        67
57.400        47
57.410        73
57.420       120
57.430        47
57.440        53
57.450        93
57.460       127
57.470       113
57.480        53
57.490        93
57.500        87
57.510       113
57.520        73
57.530        60
57.540        53
57.550        67
57.560        60
57.570       107
57.580        73
57.590        40
57.600        40
57.610        87
57.620        80
57.630        47
57.640        60
57.650        80
57.660        80
57.670        53
57.680        80
57.690        67
57.700       100
57.710        53
57.720        73
57.730        53
57.740       100
57.750        27
57.760        87
57.770        93
57.780        53
57.790        40
57.800        60
57.810        73
57.820        93
57.830        60
57.840        87
57.850        53
57.860        87
57.870        60
57.880        67
57.890        67
57.900        67
57.910        87
57.920        53
57.930        93
57.940        73
57.950        80
57.960        93
57.970        33
57.980        67
57.990       100
58.000        80
58.010        80
58.020        53
58.030        33
58.040        60
58.050        73
58.060        53
58.070        73
58.080        73
58.090       147
58.100        67
58.110        87
58.120        73
58.130        60
58.140        87
58.150        87
58.160        67
58.170        67
58.180        60
58.190        33
58.200        53
58.210        67
58.220       107
58.230        53
58.240       113
58.250       100
58.260        60
58.270        73
58.280        73
58.290       113
58.300        87
58.310        87
58.320        80
58.330       127
58.340        87
58.350        47
58.360        93
58.370       133
58.380       133
58.390        73
58.400       113
58.410        40
58.420        87
58.430        93
58.440        73
58.450        73
58.460        60
58.470        80
58.480        47
58.490       120
58.500        67
58.510        80
58.520        87
58.530        80
58.540        60
58.550        40
58.560        73
58.570        67
58.580        87
58.590        87
58.600        73
58.610        60
58.620       107
58.630        60
58.640       127
58.650       100
58.660        80
58.670        80
58.680        73
58.690       100
58.700        60
58.710        67
58.720        53
58.730        80
58.740        53
58.750        87
58.760        67
58.770        93
58.780        47
58.790       107
58.800        93
58.810        60
58.820        87
58.830        67
58.840        87
58.850        53
58.860        53
58.870        60
58.880        67
58.890        73
58.900        13
58.910        73
58.920        60
58.930        73
58.940        60
58.950        60
58.960       107
58.970        73
58.980        67
58.990       100
59.000        40
59.010        73
59.020        67
59.030       100
59.040        93
59.050        33
59.060       140
59.070        93
59.080        73
59.090        87
59.100        53
59.110       113
59.120       107
59.130        67
59.140       100
59.150        47
59.160        73
59.170        87
59.180        67
59.190        60
59.200        60
59.210        73
59.220       107
59.230        73
59.240        93
59.250        40
59.260        80
59.270        60
59.280        53
59.290        73
59.300        47
59.310        73
59.320        60
59.330        73
59.340       100
59.350        67
59.360        73
59.370        60
59.380        60
59.390        53
59.400        53
59.410        73
59.420        87
59.430        67
59.440        67
59.450        53
59.460       100
59.470        60
59.480       113
59.490        87
59.500        93
59.510        47
59.520        53
59.530       107
59.540        73
59.550        67
59.560       100
59.570        60
59.580        80
59.590        47
59.600        53
59.610        87
59.620        87
59.630        80
59.640       120
59.650        93
59.660        40
59.670        67
59.680        73
59.690        67
59.700        93
59.710        87
59.720        80
59.730        67
59.740        87
59.750        93
59.760        40
59.770       107
59.780        80
59.790       113
59.800        53
59.810        67
59.820        67
59.830        80
59.840        73
59.850        67
59.860        60
59.870        60
59.880        67
59.890        53
59.900        87
59.910        60
59.920       113
59.930        60
59.940       127
59.950       100
59.960        67
59.970        60
59.980        67
59.990        60
60.000        73
