20.000        27
20.010        53
20.020        40
20.030        80
20.040       173
20.050        67
20.060        67
20.070        27
20.080        40
20.090        67
20.100        67
20.110         0
20.120       173
20.130        80
20.140        40
20.150        40
20.160        13
20.170        53
20.180        53
20.190        40
20.200        93
20.210        53
20.220        13
20.230        13
20.240        27
20.250        13
20.260        40
20.270         0
20.280       107
20.290        80
20.300        67
20.310        13
20.320        27
20.330         0
20.340        67
20.350        40
20.360        13
20.370        93
20.380        40
20.390        53
20.400        67
20.410        13
20.420        80
20.430        53
20.440        40
20.450       147
20.460       147
20.470        80
20.480        67
20.490        27
20.500        27
20.510        93
20.520        40
20.530        93
20.540        80
20.550        67
20.560        40
20.570        27
20.580        13
20.590        13
20.600        27
20.610        53
20.620        53
20.630        80
20.640        13
20.650        67
20.660        27
20.670        13
20.680        27
20.690        27
20.700       107
20.710        53
20.720        80
20.730        40
20.740        27
20.750        13
20.760        53
20.770        93
20.780       147
20.790       107
20.800        27
20.810        67
20.820        53
20.830        40
20.840        27
20.850        80
20.860        80
20.870       133
20.880        40
20.890        67
20.900        80
20.910         0
20.920        40
20.930        27
20.940        67
20.950       133
20.960        80
20.970        67
20.980         0
20.990        27
21.000        40
21.010        27
21.020        67
21.030       120
21.040       107
21.050        53
21.060        40
21.070        53
21.080        27
21.090        53
21.100        40
21.110        93
21.120        93
21.130        40
21.140        80
21.150        80
21.160        40
21.170        27
21.180        40
21.190        67
21.200        80
21.210        80
21.220        53
21.230        40
21.240        27
21.250        40
21.260        13
21.270        93
21.280        93
21.290        40
21.300        67
21.310        53
21.320        67
21.330        13
21.340        27
21.350        40
21.360        93
21.370        40
21.380        67
21.390        40
21.400        27
21.410        40
21.420        40
21.430        27
21.440        67
21.450        80
21.460        27
21.470        53
21.480        67
21.490        27
21.500        40
21.510        13
21.520        67
21.530       133
21.540        27
21.550        27
21.560        13
21.570        67
21.580        80
21.590        13
21.600        80
21.610       133
21.620        80
21.630        27
21.640        40
21.650        53
21.660        27
21.670        13
21.680        67
21.690       160
21.700        67
21.710        40
21.720        27
21.730        27
21.740         0
21.750        40
21.760        27
21.770        80
21.780       147
21.790        53
21.800        27
21.810        93
21.820         0
21.830        27
21.840        27
21.850        93
21.860       147
21.870        53
21.880        53
21.890        80
21.900        13
21.910        40
21.920        40
21.930        80
21.940       133
21.950       120
21.960        53
21.970        67
21.980        13
21.990        40
22.000        53
22.010        80
22.020       133
22.030       107
22.040        27
22.050        40
22.060        40
22.070        80
22.080        27
22.090        27
22.100        40
22.110       187
22.120        80
22.130        27
22.140        13
22.150        13
22.160        27
22.170        53
22.180        40
22.190        93
22.200       120
22.210        53
22.220        53
22.230        40
22.240        27
22.250        67
22.260        40
22.270       133
22.280       227
22.290        53
22.300        27
22.310        53
22.320        27
22.330         0
22.340        53
22.350        93
22.360        93
22.370         0
22.380        27
22.390        67
22.400        13
22.410        27
22.420        27
22.430        67
22.440       173
22.450       147
22.460        53
22.470         0
22.480        40
22.490        93
22.500        40
22.510        67
22.520       133
22.530        93
22.540        27
22.550        53
22.560        13
22.570        40
22.580        80
22.590        67
22.600        27
22.610       200
22.620       187
22.630        40
22.640        53
22.650        27
22.660       120
22.670        67
22.680        67
22.690       147
22.700       120
22.710        67
22.720        27
22.730        40
22.740        27
22.750        27
22.760         0
22.770       120
22.780       173
22.790       107
22.800        80
22.810        53
22.820        13
22.830        40
22.840        13
22.850        27
22.860       187
22.870       120
22.880        13
22.890         0
22.900        27
22.910        27
22.920        40
22.930        40
22.940       173
22.950       307
22.960        67
22.970        13
22.980        13
22.990        13
23.000        53
23.010        27
23.020        93
23.030       320
23.040       147
23.050        40
23.060        67
23.070        13
23.080        27
23.090        53
23.100        40
23.110      1586
23.120      1799
23.130        80
23.140        27
23.150        13
23.160        27
23.170        27
23.180        80
23.190       133
23.200       333
23.210        93
23.220        53
23.230        93
23.240        53
23.250        27
23.260        40
23.270        13
23.280       147
23.290       227
23.300        53
23.310        27
23.320        40
23.330        27
23.340        40
23.350        40
23.360       213
23.370       147
23.380        40
23.390        67
23.400        13
23.410        13
23.420        27
23.430        27
23.440        80
23.450       307
23.460        67
23.470        40
23.480        40
23.490         0
23.500        53
23.510        27
23.520        80
23.530       240
23.540        93
23.550        27
23.560        53
23.570        13
23.580         0
23.590        27
23.600        27
23.610       200
23.620       173
23.630        80
23.640         0
23.650        40
23.660        53
23.670         0
23.680        40
23.690        93
23.700       160
23.710        93
23.720        40
23.730        13
23.740        27
23.750        13
23.760        40
23.770        40
23.780       253
23.790       120
23.800        40
23.810        53
23.820        27
23.830         0
23.840        27
23.850        40
23.860       173
23.870       187
23.880        40
23.890        13
23.900        13
23.910        27
23.920        27
23.930         0
23.940        67
23.950       360
23.960       107
23.970        13
23.980        67
23.990        40
24.000        53
24.010        13
24.020       120
24.030       120
24.040       187
24.050        40
24.060        40
24.070        40
24.080        27
24.090        67
24.100        27
24.110        93
24.120       253
24.130        93
24.140        40
24.150        27
24.160        27
24.170        53
24.180        13
24.190        53
24.200       227
24.210       147
24.220        27
24.230        13
24.240        13
24.250        27
24.260        13
24.270        27
24.280       213
24.290       200
24.300        93
24.310        40
24.320        13
24.330         0
24.340        67
24.350        40
24.360        80
24.370       240
24.380        13
24.390        27
24.400        53
24.410        27
24.420        27
24.430        13
24.440        13
24.450       253
24.460       187
24.470        53
24.480        53
24.490        13
24.500        13
24.510        53
24.520        80
24.530       253
24.540       253
24.550        27
24.560        13
24.570        27
24.580        27
24.590        27
24.600        40
24.610        67
24.620       267
24.630       173
24.640        27
24.650        27
24.660        27
24.670        13
24.680        40
24.690        27
24.700       387
24.710       360
24.720        27
24.730        13
24.740        27
24.750         0
24.760        27
24.770        13
24.780       426
24.790       946
24.800       213
24.810        27
24.820        27
24.830        67
24.840        53
24.850        40
24.860       240
24.870       760
24.880       213
24.890        40
24.900        27
24.910        40
24.920        40
24.930        27
24.940        67
24.950      1000
24.960       520
24.970        27
24.980        27
24.990        13
25.000         0
25.010        27
25.020        27
25.030       680
25.040       480
25.050        53
25.060        53
25.070        27
25.080        13
25.090        80
25.100         0
25.110       133
25.120      1213
25.130       520
25.140        13
25.150        27
25.160        27
25.170        53
25.180        13
25.190        27
25.200       586
25.210       626
25.220        53
25.230         0
25.240        27
25.250        13
25.260        67
25.270        27
25.280       333
25.290      1226
25.300       387
25.310        13
25.320         0
25.330        53
25.340         0
25.350        40
25.360       227
25.370      1053
25.380      1719
25.390       120
25.400        27
25.410        27
25.420        40
25.430         0
25.440       107
25.450      6571
25.460      6264
25.470       906
25.480        40
25.490        27
25.500        53
25.510        53
25.520        40
25.530      3705
25.540     11182
25.550      4198
25.560        13
25.570        27
25.580        53
25.590        27
25.600        53
25.610      3039
25.620    167280
25.630    142196
25.640      4945
25.650        40
25.660        40
25.670        27
25.680        53
25.690        67
25.700     32427
25.710     64814
25.720      9236
25.730        13
25.740         0
25.750        13
25.760        27
25.770        40
25.780       307
25.790      5305
25.800      5691
25.810       333
25.820        80
25.830        27
25.840        53
25.850       133
25.860       107
25.870      1240
25.880      1240
25.890       227
25.900       120
25.910        53
25.920        53
25.930        40
25.940        93
25.950       320
25.960      1559
25.970       573
25.980        67
25.990        67
26.000        27
26.010         0
26.020        13
26.030        67
26.040       560
26.050       573
26.060        80
26.070        40
26.080        13
26.090        13
26.100        27
26.110        67
26.120       267
26.130      1226
26.140       360
26.150        13
26.160        67
26.170        27
26.180        13
26.190        53
26.200         0
26.210       453
26.220       720
26.230        27
26.240        40
26.250        13
26.260         0
26.270        40
26.280        13
26.290       227
26.300      1053
26.310       373
26.320        27
26.330        53
26.340        27
26.350         0
26.360        27
26.370        80
26.380       413
26.390       280
26.400        40
26.410        27
26.420         0
26.430        13
26.440        27
26.450        40
26.460       480
26.470       853
26.480       253
26.490        13
26.500        27
26.510        27
26.520        27
26.530        13
26.540       107
26.550       466
26.560       626
26.570        40
26.580        13
26.590         0
26.600        27
26.610        40
26.620         0
26.630       267
26.640       600
26.650       453
26.660        40
26.670        27
26.680        53
26.690        40
26.700        13
26.710       147
26.720       533
26.730       360
26.740        40
26.750        13
26.760        13
26.770         0
26.780        13
26.790        53
26.800       333
26.810       640
26.820       133
26.830        40
26.840        40
26.850        27
26.860        13
26.870        27
26.880       120
26.890       413
26.900       387
26.910        27
26.920        27
26.930         0
26.940        27
26.950        13
26.960        27
26.970       573
26.980       720
26.990        93
27.000         0
27.010        40
27.020        13
27.030        27
27.040         0
27.050       293
27.060       520
27.070        93
27.080        40
27.090        13
27.100         0
27.110        40
27.120        40
27.130        93
27.140       733
27.150       360
27.160        27
27.170        13
27.180        13
27.190        27
27.200        13
27.210        40
27.220       387
27.230       520
27.240        13
27.250        67
27.260        67
27.270         0
27.280        27
27.290        27
27.300       227
27.310       586
27.320       347
27.330        13
27.340        53
27.350        40
27.360        13
27.370        27
27.380        80
27.390       506
27.400       440
27.410        27
27.420        40
27.430        13
27.440        27
27.450        40
27.460        13
27.470       373
27.480       640
27.490       147
27.500        13
27.510        27
27.520        27
27.530        27
27.540        13
27.550       133
27.560       360
27.570       240
27.580        53
27.590        13
27.600        27
27.610         0
27.620        53
27.630        27
27.640       520
27.650       493
27.660       120
27.670        13
27.680         0
27.690        67
27.700        53
27.710        53
27.720       133
27.730       347
27.740       187
27.750        53
27.760        27
27.770        40
27.780        40
27.790         0
27.800        53
27.810       440
27.820       533
27.830       107
27.840        40
27.850        53
27.860        13
27.870        27
27.880        27
27.890       213
27.900       387
27.910       187
27.920        40
27.930        40
27.940        93
27.950        27
27.960        53
27.970       107
27.980       666
27.990       387
28.000        80
28.010        27
28.020        40
28.030        40
28.040        40
28.050        13
28.060       253
28.070       493
28.080        80
28.090        40
28.100        53
28.110        13
28.120         0
28.130        27
28.140        80
28.150       586
28.160       240
28.170        67
28.180        13
28.190        13
28.200        27
28.210        53
28.220        40
28.230       267
28.240       360
28.250       147
28.260        13
28.270        13
28.280        13
28.290        13
28.300        13
28.310        53
28.320       520
28.330       267
28.340        13
28.350        13
28.360         0
28.370        13
28.380        13
28.390        27
28.400       333
28.410       333
28.420       120
28.430        27
28.440        67
28.450        40
28.460        13
28.470        67
28.480       187
28.490       480
28.500       320
28.510        40
28.520        40
28.530         0
28.540         0
28.550        40
28.560        27
28.570       280
28.580       307
28.590        40
28.600        27
28.610        13
28.620        40
28.630         0
28.640        40
28.650       307
28.660       453
28.670       387
28.680        13
28.690        13
28.700        80
28.710        13
28.720        13
28.730        27
28.740       347
28.750       227
28.760        93
28.770        40
28.780        27
28.790        40
28.800        40
28.810        67
28.820       160
28.830       586
28.840       373
28.850        80
28.860        53
28.870        13
28.880        27
28.890         0
28.900        27
28.910       200
28.920       400
28.930        93
28.940        93
28.950        67
28.960        53
28.970       107
28.980       133
28.990       253
29.000       506
29.010       373
29.020       107
29.030        53
29.040        67
29.050        40
29.060        40
29.070        93
29.080       373
29.090       293
29.100        27
29.110       120
29.120        80
29.130        93
29.140        80
29.150        40
29.160       333
29.170       573
29.180       227
29.190        93
29.200        67
29.210        80
29.220        53
29.230        40
29.240       253
29.250       387
29.260       267
29.270        40
29.280        67
29.290        93
29.300       120
29.310        53
29.320       107
29.330       480
29.340       480
29.350       187
29.360        53
29.370        27
29.380        93
29.390        13
29.400       107
29.410        67
29.420       347
29.430       267
29.440        13
29.450        53
29.460        40
29.470        80
29.480        80
29.490        53
29.500       213
29.510       426
29.520       187
29.530        40
29.540        27
29.550        40
29.560        40
29.570        80
29.580       160
29.590       400
29.600       347
29.610        80
29.620       160
29.630        80
29.640       200
29.650       107
29.660       187
29.670       267
29.680       466
29.690       400
29.700       173
29.710        53
29.720        80
29.730       120
29.740        53
29.750       187
29.760       413
29.770       227
29.780        53
29.790        53
29.800        40
29.810        13
29.820         0
29.830        27
29.840       227
29.850       400
29.860       120
29.870        27
29.880         0
29.890        40
29.900         0
29.910        27
29.920        67
29.930       213
29.940       187
29.950        40
29.960        67
29.970        13
29.980        40
29.990        53
30.000        27
30.010       253
30.020       333
30.030       133
30.040        13
30.050         0
30.060         0
30.070         0
30.080        13
30.090        67
30.100       147
30.110       293
30.120        40
30.130        27
30.140        53
30.150        53
30.160        40
30.170        27
30.180       187
30.190       333
30.200       107
30.210        13
30.220        27
30.230        40
30.240        13
30.250        40
30.260        53
30.270       253
30.280       160
30.290        67
30.300        13
30.310         0
30.320         0
30.330        40
30.340        53
30.350       147
30.360       440
30.370       333
30.380        53
30.390        27
30.400        93
30.410        67
30.420        27
30.430        27
30.440       160
30.450       147
30.460        40
30.470        40
30.480        53
30.490        13
30.500        27
30.510        27
30.520        53
30.530       213
30.540       466
30.550       280
30.560       133
30.570        80
30.580        40
30.590        80
30.600        67
30.610        13
30.620       280
30.630       333
30.640       120
30.650        27
30.660        53
30.670        53
30.680        80
30.690        40
30.700        80
30.710       320
30.720       307
30.730       120
30.740        13
30.750        27
30.760        13
30.770         0
30.780        13
30.790       133
30.800       173
30.810       107
30.820        27
30.830        27
30.840        13
30.850        13
30.860         0
30.870        93
30.880       373
30.890       280
30.900        13
30.910        27
30.920        13
30.930        40
30.940        13
30.950         0
30.960       160
30.970       227
30.980        40
30.990        67
31.000         0
31.010        27
31.020         0
31.030        53
31.040       120
31.050       320
31.060       280
31.070        40
31.080        40
31.090        13
31.100        27
31.110         0
31.120        13
31.130       173
31.140       147
31.150        80
31.160        27
31.170        40
31.180        40
31.190        13
31.200        13
31.210        93
31.220       426
31.230       320
31.240        40
31.250        40
31.260        40
31.270        13
31.280        13
31.290        67
31.300       147
31.310       267
31.320        93
31.330        53
31.340        67
31.350         0
31.360        27
31.370        53
31.380        93
31.390       280
31.400       227
31.410        53
31.420        13
31.430        13
31.440        27
31.450        53
31.460        27
31.470       227
31.480       200
31.490       160
31.500        67
31.510        53
31.520        27
31.530        27
31.540        27
31.550        67
31.560       293
31.570       293
31.580        80
31.590        27
31.600        13
31.610        27
31.620        13
31.630        13
31.640        80
31.650       280
31.660        93
31.670         0
31.680        53
31.690        27
31.700        40
31.710        13
31.720        40
31.730       200
31.740       240
31.750       107
31.760         0
31.770        40
31.780        13
31.790         0
31.800        13
31.810        13
31.820       227
31.830       200
31.840         0
31.850        13
31.860        13
31.870        27
31.880        27
31.890        27
31.900       173
31.910       267
31.920       173
31.930        27
31.940        53
31.950        13
31.960        13
31.970        40
31.980        40
31.990       160
32.000       147
32.010        40
32.020         0
32.030        27
32.040         0
32.050        13
32.060        13
32.070       107
32.080       320
32.090        93
32.100        27
32.110        53
32.120        40
32.130        80
32.140        53
32.150        53
32.160       213
32.170       227
32.180       133
32.190        80
32.200        80
32.210       120
32.220        93
32.230       107
32.240        53
32.250       400
32.260       307
32.270       107
32.280        53
32.290        53
32.300        93
32.310        53
32.320        40
32.330       147
32.340       147
32.350       120
32.360        53
32.370        27
32.380        27
32.390        93
32.400        80
32.410        53
32.420       293
32.430       213
32.440        40
32.450        80
32.460        13
32.470        67
32.480         0
32.490         0
32.500        93
32.510       227
32.520       107
32.530        53
32.540        40
32.550        67
32.560        67
32.570        40
32.580        40
32.590       187
32.600       187
32.610       107
32.620        13
32.630        40
32.640        53
32.650        13
32.660        27
32.670       133
32.680       133
32.690        67
32.700        67
32.710        13
32.720        53
32.730        67
32.740        53
32.750        13
32.760       227
32.770       280
32.780        67
32.790        27
32.800        27
32.810        13
32.820        40
32.830        53
32.840       120
32.850       173
32.860       147
32.870         0
32.880        40
32.890        53
32.900        40
32.910        27
32.920        13
32.930       187
32.940       173
32.950        93
32.960        13
32.970         0
32.980        27
32.990        13
33.000        40
33.010        67
33.020       200
33.030        67
33.040         0
33.050        13
33.060        40
33.070        13
33.080        27
33.090        40
33.100       133
33.110       253
33.120       120
33.130        13
33.140        13
33.150        27
33.160        40
33.170         0
33.180        53
33.190       120
33.200       120
33.210        53
33.220        13
33.230        27
33.240        53
33.250        27
33.260        27
33.270       107
33.280       280
33.290       187
33.300        13
33.310         0
33.320        27
33.330        13
33.340        27
33.350        13
33.360       160
33.370       160
33.380        67
33.390         0
33.400        40
33.410        13
33.420        40
33.430        53
33.440       133
33.450       280
33.460       133
33.470        13
33.480        40
33.490        13
33.500        13
33.510         0
33.520        40
33.530        80
33.540        40
33.550         0
33.560        27
33.570        27
33.580        27
33.590        13
33.600         0
33.610        67
33.620       200
33.630       200
33.640        40
33.650        13
33.660        40
33.670        13
33.680        27
33.690        27
33.700       147
33.710       147
33.720        67
33.730        13
33.740        13
33.750        40
33.760         0
33.770        53
33.780        80
33.790       200
33.800       187
33.810        27
33.820        27
33.830         0
33.840        27
33.850         0
33.860         0
33.870        80
33.880       107
33.890       120
33.900        53
33.910        40
33.920        27
33.930        13
33.940        67
33.950        27
33.960       240
33.970       120
33.980        40
33.990        40
34.000        13
34.010        53
34.020        27
34.030        13
34.040        40
34.050       173
34.060        40
34.070        27
34.080        13
34.090        27
34.100        13
34.110         0
34.120         0
34.130       147
34.140       200
34.150        53
34.160         0
34.170        13
34.180        13
34.190        27
34.200        27
34.210       133
34.220       173
34.230        67
34.240         0
34.250         0
34.260        40
34.270        13
34.280        27
34.290        27
34.300       120
34.310       107
34.320        67
34.330        53
34.340        13
34.350        27
34.360        13
34.370        13
34.380        93
34.390        80
34.400       133
34.410        40
34.420         0
34.430        40
34.440        27
34.450        13
34.460        27
34.470       147
34.480       200
34.490       200
34.500        13
34.510         0
34.520        13
34.530        13
34.540         0
34.550        67
34.560        80
34.570        80
34.580        13
34.590        53
34.600         0
34.610        40
34.620        27
34.630        13
34.640       120
34.650       240
34.660       147
34.670        67
34.680        53
34.690        13
34.700        27
34.710        13
34.720        13
34.730        93
34.740       120
34.750        80
34.760        40
34.770         0
34.780        40
34.790        27
34.800         0
34.810        93
34.820       133
34.830       133
34.840        27
34.850        40
34.860         0
34.870        13
34.880        13
34.890        40
34.900        80
34.910        67
34.920        53
34.930        40
34.940        40
34.950        27
34.960        13
34.970         0
34.980        40
34.990       133
35.000       120
35.010        13
35.020        27
35.030        13
35.040         0
35.050        27
35.060        27
35.070        40
35.080        67
35.090         0
35.100        13
35.110        40
35.120        27
35.130        13
35.140        40
35.150        40
35.160       227
35.170       187
35.180        40
35.190         0
35.200        27
35.210        27
35.220        27
35.230        40
35.240        80
35.250        80
35.260        67
35.270        40
35.280        13
35.290        13
35.300        13
35.310        80
35.320        67
35.330       107
35.340       147
35.350        27
35.360         0
35.370        27
35.380        40
35.390        27
35.400         0
35.410        80
35.420       147
35.430        27
35.440        53
35.450         0
35.460        13
35.470         0
35.480        13
35.490       107
35.500        67
35.510       107
35.520        13
35.530         0
35.540        40
35.550        27
35.560        13
35.570        40
35.580        53
35.590       133
35.600        67
35.610         0
35.620         0
35.630        13
35.640        40
35.650        13
35.660        27
35.670       160
35.680       173
35.690         0
35.700        40
35.710        53
35.720        40
35.730         0
35.740        40
35.750        93
35.760       107
35.770        13
35.780        13
35.790        67
35.800        13
35.810        80
35.820        40
35.830        40
35.840        93
35.850        80
35.860        53
35.870        40
35.880        40
35.890        40
35.900        13
35.910        80
35.920        80
35.930        80
35.940        40
35.950        53
35.960        27
35.970        40
35.980        53
35.990        27
36.000        53
36.010       147
36.020        40
36.030        27
36.040        13
36.050        27
36.060        27
36.070        13
36.080         0
36.090        80
36.100        80
36.110        40
36.120         0
36.130        13
36.140        27
36.150         0
36.160        13
36.170        80
36.180       107
36.190        80
36.200         0
36.210        27
36.220         0
36.230         0
36.240         0
36.250        13
36.260        13
36.270       147
36.280        27
36.290         0
36.300         0
36.310        40
36.320        40
36.330        40
36.340        80
36.350       107
36.360        80
36.370        13
36.380        67
36.390         0
36.400         0
36.410        40
36.420        27
36.430        40
36.440        67
36.450         0
36.460        27
36.470        13
36.480         0
36.490         0
36.500        40
36.510        67
36.520       107
36.530        53
36.540        40
36.550         0
36.560        13
36.570        27
36.580        53
36.590        27
36.600       107
36.610        67
36.620        53
36.630        13
36.640        13
36.650        13
36.660         0
36.670        53
36.680        40
36.690       107
36.700        80
36.710        53
36.720         0
36.730        27
36.740        13
36.750        13
36.760        27
36.770        80
36.780       120
36.790        13
36.800        27
36.810         0
36.820        13
36.830        13
36.840        27
36.850        13
36.860        53
36.870        67
36.880       120
36.890        67
36.900        13
36.910        27
36.920        27
36.930        40
36.940        53
36.950       120
36.960        40
36.970         0
36.980        40
36.990         0
37.000         0
37.010        27
37.020        13
37.030        40
37.040       107
37.050        93
37.060         0
37.070        27
37.080        27
37.090        27
37.100        40
37.110        80
37.120       120
37.130        27
37.140        13
37.150        13
37.160         0
37.170        13
37.180        27
37.190        27
37.200       160
37.210        80
37.220        67
37.230         0
37.240         0
37.250         0
37.260        27
37.270        13
37.280       120
37.290        40
37.300        27
37.310        27
37.320        27
37.330        13
37.340        13
37.350        13
37.360        13
37.370       107
37.380       173
37.390        40
37.400        40
37.410        13
37.420        40
37.430        13
37.440        27
37.450        53
37.460        40
37.470        80
37.480        40
37.490        13
37.500         0
37.510        40
37.520         0
37.530        27
37.540       107
37.550        67
37.560        67
37.570         0
37.580        13
37.590        27
37.600        13
37.610        53
37.620        93
37.630        67
37.640       107
37.650        40
37.660         0
37.670        13
37.680        13
37.690        13
37.700        40
37.710        80
37.720       133
37.730        53
37.740        27
37.750         0
37.760        40
37.770         0
37.780        13
37.790        80
37.800        93
37.810        40
37.820        27
37.830         0
37.840         0
37.850         0
37.860         0
37.870        13
37.880        93
37.890       107
37.900        40
37.910        27
37.920        13
37.930        13
37.940        40
37.950        13
37.960        27
37.970        53
37.980        27
37.990        27
38.000        53
38.010        13
38.020        13
38.030         0
38.040        13
38.050        93
38.060       107
38.070        67
38.080        27
38.090         0
38.100         0
38.110         0
38.120        27
38.130        53
38.140        40
38.150        53
38.160        13
38.170        13
38.180        13
38.190        13
38.200        13
38.210        80
38.220        93
38.230        93
38.240        27
38.250        67
38.260        13
38.270        27
38.280        27
38.290         0
38.300         0
38.310        67
38.320        13
38.330         0
38.340        27
38.350        27
38.360        27
38.370        53
38.380        27
38.390       133
38.400        27
38.410         0
38.420        13
38.430         0
38.440        27
38.450        13
38.460        27
38.470        40
38.480        53
38.490        27
38.500        27
38.510         0
38.520         0
38.530        40
38.540         0
38.550        67
38.560        67
38.570        53
38.580        53
38.590         0
38.600        13
38.610        27
38.620        13
38.630        27
38.640        13
38.650        40
38.660        53
38.670         0
38.680        13
38.690        13
38.700        27
38.710        27
38.720        80
38.730        93
38.740        80
38.750        13
38.760        40
38.770        93
38.780        13
38.790        13
38.800        13
38.810        53
38.820        80
38.830        40
38.840        27
38.850        40
38.860        13
38.870        27
38.880         0
38.890        67
38.900        40
38.910        53
38.920        13
38.930        67
38.940        27
38.950        27
38.960        53
38.970        27
38.980        27
38.990        53
39.000        53
39.010        67
39.020        13
39.030        13
39.040        40
39.050        13
39.060        67
39.070       120
39.080        80
39.090        40
39.100        40
39.110        27
39.120        53
39.130        27
39.140        53
39.150        80
39.160       133
39.170        80
39.180        67
39.190        53
39.200        93
39.210        13
39.220        13
39.230        80
39.240        93
39.250       120
39.260        27
39.270        27
39.280        53
39.290        13
39.300        27
39.310        67
39.320        27
39.330        80
39.340        40
39.350        27
39.360        13
39.370        13
39.380        13
39.390        40
39.400        93
39.410        93
39.420        53
39.430        27
39.440        13
39.450        13
39.460        27
39.470        13
39.480        27
39.490        40
39.500        53
39.510        27
39.520        27
39.530        27
39.540        13
39.550        53
39.560         0
39.570        80
39.580        67
39.590        40
39.600        27
39.610        13
39.620        13
39.630        27
39.640        13
39.650        27
39.660        53
39.670        13
39.680        13
39.690        27
39.700        27
39.710         0
39.720         0
39.730         0
39.740        27
39.750       120
39.760        93
39.770        67
39.780         0
39.790         0
39.800        13
39.810        13
39.820        67
39.830         0
39.840        13
39.850        53
39.860        27
39.870        40
39.880        27
39.890         0
39.900         0
39.910        67
39.920        80
39.930        13
39.940        27
39.950        13
39.960         0
39.970        27
39.980        27
39.990         0
40.000        93
40.010        53
40.020        80
40.030         0
40.040        27
40.050        27
40.060        27
40.070        13
40.080        40
40.090        93
40.100        40
40.110        27
40.120        27
40.130        53
40.140        27
40.150        40
40.160        13
40.170       107
40.180        67
40.190        40
40.200        13
40.210        40
40.220        27
40.230        13
40.240        27
40.250        27
40.260        67
40.270        67
40.280        27
40.290        27
40.300        27
40.310        13
40.320        13
40.330        13
40.340        27
40.350        67
40.360        27
40.370        27
40.380         0
40.390         0
40.400        13
40.410        13
40.420        93
40.430        93
40.440        80
40.450        27
40.460        27
40.470        53
40.480        13
40.490        13
40.500        40
40.510        40
40.520        27
40.530         0
40.540         0
40.550         0
40.560         0
40.570         0
40.580         0
40.590        93
40.600        27
40.610        40
40.620        40
40.630        53
40.640        67
40.650         0
40.660        13
40.670         0
40.680         0
40.690        53
40.700        40
40.710        27
40.720        13
40.730         0
40.740        13
40.750        40
40.760        53
40.770        67
40.780        80
40.790        53
40.800         0
40.810        27
40.820        27
40.830        13
40.840        13
40.850        27
40.860        40
40.870         0
40.880        13
40.890         0
40.900        27
40.910        13
40.920        27
40.930        53
40.940        67
40.950        67
40.960        40
40.970        53
40.980        13
40.990        13
41.000        27
41.010        27
41.020        27
41.030        27
41.040         0
41.050        40
41.060        13
41.070        13
41.080        67
41.090         0
41.100        27
41.110        40
41.120        40
41.130        13
41.140        27
41.150        40
41.160        13
41.170        13
41.180        40
41.190        53
41.200         0
41.210        40
41.220        53
41.230         0
41.240        40
41.250        27
41.260        27
41.270        40
41.280       107
41.290       120
41.300        27
41.310        27
41.320         0
41.330         0
41.340        40
41.350        13
41.360        13
41.370        53
41.380        13
41.390        27
41.400         0
41.410        13
41.420         0
41.430        27
41.440        40
41.450        93
41.460        93
41.470        13
41.480         0
41.490        40
41.500        27
41.510        53
41.520        13
41.530        40
41.540        13
41.550        27
41.560        13
41.570        13
41.580        27
41.590        13
41.600        27
41.610         0
41.620        80
41.630        27
41.640        27
41.650         0
41.660        40
41.670        40
41.680        13
41.690        13
41.700        27
41.710        27
41.720        13
41.730         0
41.740         0
41.750        40
41.760        13
41.770        13
41.780        40
41.790        27
41.800        40
41.810        13
41.820        27
41.830        27
41.840        13
41.850        13
41.860        13
41.870        40
41.880        13
41.890        67
41.900        27
41.910        40
41.920        27
41.930         0
41.940        13
41.950        40
41.960        40
41.970        93
41.980        53
41.990        27
42.000        13
42.010        13
42.020        13
42.030         0
42.040        40
42.050        80
42.060        40
42.070        53
42.080        13
42.090         0
42.100        13
42.110        13
42.120        27
42.130        40
42.140        40
42.150        67
42.160        13
42.170         0
42.180        13
42.190        53
42.200        40
42.210        40
42.220        67
42.230        27
42.240         0
42.250        40
42.260        13
42.270        27
42.280        67
42.290        27
42.300        53
42.310        40
42.320        80
42.330        27
42.340        53
42.350        27
42.360        40
42.370        67
42.380        40
42.390        27
42.400        67
42.410        67
42.420        27
42.430        27
42.440        40
42.450        53
42.460        53
42.470        80
42.480        67
42.490        40
42.500        13
42.510        53
42.520         0
42.530         0
42.540        13
42.550        40
42.560        53
42.570        93
42.580        80
42.590        27
42.600        53
42.610        13
42.620        13
42.630        27
42.640         0
42.650        53
42.660       107
42.670        27
42.680        27
42.690        13
42.700        13
42.710        40
42.720        27
42.730        80
42.740        93
42.750        27
42.760        27
42.770        27
42.780        13
42.790        40
42.800        27
42.810        27
42.820        13
42.830        13
42.840        53
42.850        27
42.860        13
42.870        13
42.880        27
42.890        13
42.900        40
42.910        53
42.920        27
42.930        40
42.940        27
42.950         0
42.960        40
42.970         0
42.980        40
42.990        67
43.000       133
43.010        40
43.020        40
43.030        27
43.040        40
43.050        13
43.060        13
43.070        27
43.080        93
43.090        27
43.100        53
43.110        80
43.120        40
43.130        53
43.140         0
43.150         0
43.160        13
43.170        53
43.180        27
43.190        27
43.200        13
43.210        27
43.220        27
43.230        27
43.240        13
43.250        67
43.260        67
43.270        13
43.280        13
43.290        13
43.300         0
43.310        27
43.320        27
43.330        27
43.340        40
43.350        27
43.360        13
43.370        13
43.380        13
43.390         0
43.400        40
43.410        53
43.420        27
43.430        67
43.440        13
43.450        27
43.460        40
43.470        40
43.480        13
43.490        13
43.500        27
43.510        40
43.520        53
43.530        13
43.540        27
43.550        13
43.560        27
43.570        27
43.580        27
43.590        13
43.600        67
43.610        13
43.620        53
43.630        27
43.640        27
43.650        27
43.660        13
43.670        13
43.680         0
43.690        27
43.700        53
43.710         0
43.720        27
43.730        27
43.740        27
43.750        27
43.760        27
43.770         0
43.780        13
43.790        93
43.800        27
43.810        40
43.820        27
43.830        13
43.840        13
43.850         0
43.860        27
43.870        13
43.880        13
43.890        80
43.900         0
43.910        13
43.920        27
43.930        67
43.940        27
43.950        27
43.960        13
43.970        40
43.980        40
43.990         0
44.000         0
44.010        13
44.020        27
44.030         0
44.040         0
44.050        27
44.060        53
44.070        27
44.080        27
44.090        13
44.100        13
44.110        13
44.120        53
44.130         0
44.140         0
44.150        13
44.160        40
44.170        53
44.180        27
44.190        13
44.200        13
44.210        27
44.220        40
44.230        13
44.240        13
44.250        40
44.260        67
44.270        40
44.280         0
44.290        27
44.300        27
44.310        13
44.320        40
44.330         0
44.340        40
44.350        67
44.360        53
44.370        40
44.380        27
44.390        13
44.400         0
44.410        13
44.420        27
44.430        27
44.440        13
44.450        53
44.460        40
44.470         0
44.480         0
44.490        67
44.500        13
44.510        27
44.520        13
44.530        67
44.540         0
44.550        27
44.560        53
44.570         0
44.580        13
44.590        40
44.600        27
44.610        67
44.620        13
44.630        13
44.640         0
44.650        27
44.660        13
44.670        40
44.680        13
44.690        13
44.700         0
44.710        27
44.720        40
44.730        40
44.740         0
44.750        13
44.760        40
44.770        27
44.780        40
44.790        80
44.800        13
44.810        40
44.820        40
44.830        13
44.840         0
44.850         0
44.860        40
44.870        40
44.880       133
44.890        27
44.900        13
44.910        13
44.920        27
44.930        27
44.940        40
44.950        27
44.960        53
44.970        13
44.980        13
44.990         0
45.000        67
45.010         0
45.020        13
45.030        40
45.040        13
45.050         0
45.060        13
45.070        27
45.080         0
45.090         0
45.100        67
45.110         0
45.120        67
45.130        40
45.140        27
45.150        27
45.160        13
45.170         0
45.180        27
45.190        27
45.200        27
45.210        67
45.220         0
45.230        13
45.240        13
45.250        27
45.260         0
45.270        27
45.280        27
45.290        13
45.300        93
45.310        40
45.320        27
45.330        27
45.340        27
45.350         0
45.360        27
45.370        27
45.380        27
45.390        13
45.400        40
45.410        27
45.420        13
45.430         0
45.440        13
45.450         0
45.460         0
45.470        53
45.480        40
45.490        53
45.500        13
45.510        53
45.520        13
45.530        27
45.540        13
45.550        40
45.560        80
45.570        27
45.580        27
45.590        27
45.600        27
45.610         0
45.620         0
45.630         0
45.640        80
45.650        13
45.660        13
45.670        13
45.680        13
45.690        13
45.700        27
45.710         0
45.720        27
45.730        40
45.740        53
45.750        40
45.760        27
45.770         0
45.780        13
45.790         0
45.800        40
45.810         0
45.820        40
45.830        13
45.840         0
45.850        27
45.860        13
45.870        13
45.880         0
45.890        40
45.900        67
45.910        40
45.920         0
45.930        40
45.940        13
45.950        53
45.960        13
45.970         0
45.980        27
45.990        13
46.000        53
46.010        53
46.020        13
46.030        27
46.040        40
46.050        53
46.060        27
46.070        27
46.080        53
46.090        53
46.100        80
46.110        67
46.120        40
46.130        53
46.140         0
46.150        27
46.160        53
46.170        27
46.180        13
46.190        27
46.200        40
46.210        53
46.220        13
46.230        80
46.240        53
46.250        53
46.260        40
46.270        27
46.280        93
46.290        27
46.300        13
46.310         0
46.320        13
46.330        53
46.340         0
46.350        27
46.360        67
46.370        13
46.380        27
46.390        40
46.400        40
46.410        13
46.420        40
46.430        93
46.440        40
46.450        13
46.460        27
46.470        13
46.480        67
46.490        27
46.500        53
46.510        13
46.520        27
46.530        67
46.540        40
46.550        53
46.560        27
46.570        13
46.580        53
46.590        80
46.600        53
46.610        40
46.620        13
46.630        40
46.640         0
46.650        27
46.660        13
46.670        27
46.680        27
46.690        93
46.700         0
46.710        27
46.720        80
46.730        27
46.740        40
46.750        53
46.760        53
46.770        67
46.780        93
46.790        40
46.800        27
46.810        27
46.820        27
46.830        13
46.840         0
46.850        80
46.860        27
46.870       107
46.880       120
46.890         0
46.900        27
46.910        13
46.920        27
46.930         0
46.940        93
46.950        40
46.960        93
46.970        40
46.980        40
46.990        53
47.000         0
47.010         0
47.020        13
47.030       107
47.040       160
47.050        93
47.060        67
47.070        27
47.080        13
47.090         0
47.100        13
47.110        13
47.120       107
47.130       200
47.140       280
47.150        80
47.160        53
47.170        13
47.180        27
47.190        27
47.200        27
47.210      1040
47.220      2412
47.230      1386
47.240       373
47.250        13
47.260        27
47.270        13
47.280        53
47.290         0
47.300       120
47.310       160
47.320       120
47.330        40
47.340        67
47.350        53
47.360        13
47.370        80
47.380        53
47.390       107
47.400       187
47.410       107
47.420       107
47.430        13
47.440        67
47.450        27
47.460        53
47.470        53
47.480        67
47.490        53
47.500        40
47.510        27
47.520        40
47.530        27
47.540        53
47.550        40
47.560       107
47.570        67
47.580        53
47.590        93
47.600        40
47.610        40
47.620         0
47.630        27
47.640        13
47.650         0
47.660        40
47.670        53
47.680        27
47.690        40
47.700        13
47.710        13
47.720        13
47.730        13
47.740        13
47.750        53
47.760        40
47.770        67
47.780        40
47.790        40
47.800        13
47.810        53
47.820        27
47.830        53
47.840        13
47.850        53
47.860        80
47.870        67
47.880        27
47.890        53
47.900         0
47.910        13
47.920        13
47.930        27
47.940         0
47.950       107
47.960        80
47.970         0
47.980         0
47.990         0
48.000        27
48.010         0
48.020        53
48.030        40
48.040        27
48.050        40
48.060        27
48.070        13
48.080        40
48.090        13
48.100        13
48.110        40
48.120        27
48.130        67
48.140        80
48.150        27
48.160        13
48.170        27
48.180        13
48.190        40
48.200        13
48.210        13
48.220        93
48.230        40
48.240        40
48.250        40
48.260        27
48.270        13
48.280        40
48.290        13
48.300        13
48.310        40
48.320        27
48.330        53
48.340        27
48.350        13
48.360        27
48.370        53
48.380        27
48.390        27
48.400        80
48.410        13
48.420        53
48.430        13
48.440        40
48.450        53
48.460        13
48.470        13
48.480        27
48.490        67
48.500        40
48.510        80
48.520        13
48.530        53
48.540        27
48.550        53
48.560        40
48.570        13
48.580        67
48.590        80
48.600        53
48.610        27
48.620         0
48.630         0
48.640        27
48.650        67
48.660        40
48.670        53
48.680        13
48.690         0
48.700        13
48.710        67
48.720        13
48.730        13
48.740        27
48.750        40
48.760        13
48.770        40
48.780        53
48.790        13
48.800         0
48.810        13
48.820         0
48.830        13
48.840       107
48.850        40
48.860        27
48.870         0
48.880        27
48.890         0
48.900        27
48.910        13
48.920        40
48.930        93
48.940        27
48.950        13
48.960         0
48.970         0
48.980        13
48.990        27
49.000        13
49.010        27
49.020        67
49.030        40
49.040        80
49.050         0
49.060        27
49.070        13
49.080        40
49.090         0
49.100        53
49.110       107
49.120        67
49.130        67
49.140        13
49.150        40
49.160         0
49.170        27
49.180        13
49.190        67
49.200        27
49.210        93
49.220        80
49.230        27
49.240        80
49.250        53
49.260         0
49.270        13
49.280        27
49.290        27
49.300        53
49.310        53
49.320        40
49.330        13
49.340        53
49.350        40
49.360        27
49.370        40
49.380        80
49.390        67
49.400        67
49.410        80
49.420        27
49.430        27
49.440        27
49.450         0
49.460         0
49.470        13
49.480       107
49.490        40
49.500        67
49.510        13
49.520        13
49.530        40
49.540        13
49.550        13
49.560        67
49.570        80
49.580        40
49.590        40
49.600        27
49.610         0
49.620        40
49.630        27
49.640        13
49.650         0
49.660        53
49.670        13
49.680        53
49.690        27
49.700        13
49.710        40
49.720        27
49.730        80
49.740        67
49.750        67
49.760        13
49.770        27
49.780        13
49.790         0
49.800        13
49.810        40
49.820        40
49.830        27
49.840        67
49.850        67
49.860        80
49.870        40
49.880        13
49.890        13
49.900        27
49.910        13
49.920        40
49.930        40
49.940       120
49.950         0
49.960        40
49.970        13
49.980        53
49.990        40
50.000        27
50.010        67
50.020        40
50.030        93
50.040        40
50.050         0
50.060        13
50.070        27
50.080         0
50.090        53
50.100        40
50.110        40
50.120        40
50.130         0
50.140        40
50.150        67
50.160        53
50.170        27
50.180         0
50.190         0
50.200        80
50.210        80
50.220        13
50.230        13
50.240         0
50.250        13
50.260        40
50.270        40
50.280        67
50.290        27
50.300        40
50.310         0
50.320        13
50.330         0
50.340        40
50.350        27
50.360        40
50.370        13
50.380        13
50.390        27
50.400        13
50.410        13
50.420         0
50.430        40
50.440        27
50.450        53
50.460       133
50.470        40
50.480        27
50.490        27
50.500        13
50.510        13
50.520         0
50.530        13
50.540        53
50.550        27
50.560        40
50.570        40
50.580         0
50.590        27
50.600        53
50.610        40
50.620        40
50.630       200
50.640       107
50.650       120
50.660        67
50.670        27
50.680        27
50.690        13
50.700        40
50.710        40
50.720       147
50.730       187
50.740       160
50.750        13
50.760         0
50.770        27
50.780        13
50.790         0
50.800       200
50.810       480
50.820       533
50.830       413
50.840       240
50.850        67
50.860         0
50.870        40
50.880         0
50.890        93
50.900       320
50.910       200
50.920       200
50.930        13
50.940         0
50.950        40
50.960        27
50.970        27
50.980       147
50.990       440
51.000       640
51.010       333
51.020        93
51.030         0
51.040        40
51.050        27
51.060        27
51.070       147
51.080       240
51.090       333
51.100       173
51.110        27
51.120         0
51.130         0
51.140        13
51.150        27
51.160       173
51.170       546
51.180       573
51.190       400
51.200       107
51.210        27
51.220        40
51.230        40
51.240         0
51.250        40
51.260       173
51.270       173
51.280       160
51.290        13
51.300        27
51.310        13
51.320        27
51.330        13
51.340        13
51.350       373
51.360       800
51.370       333
51.380       360
51.390        27
51.400        13
51.410         0
51.420        13
51.430        53
51.440        80
51.450       200
51.460       307
51.470       280
51.480       133
51.490        27
51.500        13
51.510         0
51.520        27
51.530        27
51.540        80
51.550       400
51.560       640
51.570       426
51.580       213
51.590        27
51.600        13
51.610        53
51.620        40
51.630        13
51.640        93
51.650       293
51.660       253
51.670       147
51.680        27
51.690        13
51.700        40
51.710        27
51.720        67
51.730        53
51.740       333
51.750       400
51.760       546
51.770       293
51.780        80
51.790        13
51.800        13
51.810        13
51.820        13
51.830       133
51.840       333
51.850       347
51.860       293
51.870        13
51.880        53
51.890        13
51.900        80
51.910        40
51.920        53
51.930       320
51.940       853
51.950       693
51.960       506
51.970       120
51.980        67
51.990        67
52.000        40
52.010        53
52.020       107
52.030       253
52.040       373
52.050       400
52.060       120
52.070        80
52.080        67
52.090        80
52.100        67
52.110        93
52.120       573
52.130      1306
52.140       946
52.150       680
52.160       120
52.170        27
52.180       133
52.190        67
52.200        13
52.210       280
52.220       613
52.230       706
52.240       493
52.250        93
52.260        40
52.270        53
52.280        67
52.290        40
52.300      1013
52.310      3985
52.320      3892
52.330      3319
52.340      2132
52.350       187
52.360        40
52.370        53
52.380        67
52.390        27
52.400       946
52.410      2212
52.420      5131
52.430      3505
52.440       147
52.450        53
52.460        67
52.470        13
52.480        80
52.490      5145
52.500     19965
52.510     24030
52.520     25163
52.530     41104
52.540      2452
52.550       160
52.560        40
52.570        80
52.580      3679
52.590     83353
52.600    119339
52.610    109796
52.620     18033
52.630        40
52.640        27
52.650        67
52.660        40
52.670       240
52.680     33480
52.690     77836
52.700     94509
52.710     83113
52.720     16767
52.730        80
52.740         0
52.750        67
52.760       120
52.770      5025
52.780     21765
52.790     21965
52.800     10729
52.810       133
52.820        40
52.830        40
52.840        27
52.850        40
52.860       120
52.870      2812
52.880      6184
52.890      6051
52.900      2239
52.910       253
52.920        40
52.930        67
52.940         0
52.950        13
52.960       253
52.970       760
52.980       893
52.990       506
53.000        27
53.010        40
53.020        40
53.030         0
53.040        40
53.050       227
53.060      1306
53.070      1826
53.080      1186
53.090       586
53.100        27
53.110        40
53.120        13
53.130        13
53.140         0
53.150       133
53.160       413
53.170       413
53.180       413
53.190        93
53.200        27
53.210        53
53.220       107
53.230        13
53.240        40
53.250       426
53.260      1026
53.270      1013
53.280       453
53.290        80
53.300        40
53.310        13
53.320        13
53.330        53
53.340       107
53.350       320
53.360       387
53.370       173
53.380        40
53.390        53
53.400        13
53.410         0
53.420        27
53.430        27
53.440       413
53.450       626
53.460       573
53.470       280
53.480        27
53.490        40
53.500        13
53.510         0
53.520        27
53.530        80
53.540       187
53.550       307
53.560       267
53.570        67
53.580        13
53.590         0
53.600        13
53.610        67
53.620        40
53.630       320
53.640       440
53.650       493
53.660       333
53.670        67
53.680        13
53.690        13
53.700        13
53.710        53
53.720        27
53.730       280
53.740       213
53.750       200
53.760        27
53.770        53
53.780        40
53.790        27
53.800        13
53.810         0
53.820       200
53.830       493
53.840       426
53.850       347
53.860       107
53.870        53
53.880        27
53.890        40
53.900        27
53.910        40
53.920        67
53.930       227
53.940       187
53.950        53
53.960         0
53.970        27
53.980        27
53.990        13
54.000         0
54.010        67
54.020       320
54.030       480
54.040       333
54.050       253
54.060        53
54.070        27
54.080        27
54.090        27
54.100        13
54.110        13
54.120       200
54.130       147
54.140       107
54.150        93
54.160        13
54.170        53
54.180        67
54.190        53
54.200        13
54.210       120
54.220       426
54.230       466
54.240       307
54.250       187
54.260        27
54.270        13
54.280        27
54.290        13
54.300        27
54.310        80
54.320       160
54.330       173
54.340       280
54.350        53
54.360        40
54.370        40
54.380        27
54.390        40
54.400        27
54.410        53
54.420       320
54.430       440
54.440       187
54.450       107
54.460        53
54.470         0
54.480        27
54.490         0
54.500        27
54.510        80
54.520       147
54.530       200
54.540       120
54.550        53
54.560         0
54.570        67
54.580        40
54.590         0
54.600        13
54.610       107
54.620       387
54.630       426
54.640       280
54.650       187
54.660        27
54.670         0
54.680        13
54.690         0
54.700        67
54.710       147
54.720       107
54.730       147
54.740       107
54.750         0
54.760        27
54.770        27
54.780        27
54.790        40
54.800        27
54.810        13
54.820       280
54.830       506
54.840       280
54.850       253
54.860        40
54.870        67
54.880        27
54.890        13
54.900        13
54.910       120
54.920       213
54.930       280
54.940       160
54.950        53
54.960        67
54.970        13
54.980         0
54.990        40
55.000        27
55.010        40
55.020       173
55.030       493
55.040       280
55.050       253
55.060        80
55.070        27
55.080        27
55.090        13
55.100        27
55.110        27
55.120       133
55.130       200
55.140       200
55.150        67
55.160        27
55.170        27
55.180        13
55.190        27
55.200        13
55.210        13
55.220        27
55.230       147
55.240       333
55.250       347
55.260       160
55.270       133
55.280        27
55.290        13
55.300        40
55.310        13
55.320        13
55.330         0
55.340       107
55.350       160
55.360       120
55.370       147
55.380        53
55.390        13
55.400        40
55.410        13
55.420        13
55.430        13
55.440       133
55.450       240
55.460       387
55.470       227
55.480       107
55.490         0
55.500        13
55.510         0
55.520        53
55.530        27
55.540        40
55.550       107
55.560       120
55.570        93
55.580        40
55.590        27
55.600        13
55.610        13
55.620         0
55.630         0
55.640         0
55.650       147
55.660       347
55.670       307
55.680       173
55.690        67
55.700        13
55.710        27
55.720        27
55.730         0
55.740         0
55.750         0
55.760       120
55.770        93
55.780       107
55.790        53
55.800         0
55.810        40
55.820        13
55.830        40
55.840         0
55.850        13
55.860        13
55.870       213
55.880       426
55.890       240
55.900       253
55.910        53
55.920        13
55.930        13
55.940        27
55.950        27
55.960        40
55.970        93
55.980       160
55.990       160
56.000       107
56.010        27
56.020        13
56.030        27
56.040        27
56.050        13
56.060        13
56.070        27
56.080       267
56.090       280
56.100       333
56.110       120
56.120        40
56.130        27
56.140        13
56.150        27
56.160        13
56.170         0
56.180        53
56.190       107
56.200       133
56.210       107
56.220        27
56.230        27
56.240        13
56.250        13
56.260        67
56.270         0
56.280        40
56.290       240
56.300       387
56.310       333
56.320       200
56.330       133
56.340         0
56.350        27
56.360        27
56.370         0
56.380        27
56.390        40
56.400        67
56.410       133
56.420       133
56.430        80
56.440        13
56.450        40
56.460        27
56.470        67
56.480        13
56.490        67
56.500        40
56.510       320
56.520       320
56.530       227
56.540       200
56.550        27
56.560        13
56.570        67
56.580        40
56.590        13
56.600         0
56.610        67
56.620        67
56.630        80
56.640        93
56.650        13
56.660         0
56.670        40
56.680        53
56.690         0
56.700        13
56.710        67
56.720        93
56.730       173
56.740       373
56.750       267
56.760        93
56.770        80
56.780        13
56.790        13
56.800        27
56.810         0
56.820         0
56.830        13
56.840       133
56.850       120
56.860       147
56.870        27
56.880         0
56.890         0
56.900        13
56.910        27
56.920        40
56.930        53
56.940       227
56.950       373
56.960       160
56.970       187
56.980        53
56.990        27
57.000         0
57.010        27
57.020         0
57.030        27
57.040        53
57.050        93
57.060       187
57.070        93
57.080        40
57.090         0
57.100         0
57.110        13
57.120        27
57.130        27
57.140        40
57.150        53
57.160       200
57.170       280
57.180       187
57.190       213
57.200        27
57.210        13
57.220        40
57.230        40
57.240        27
57.250        40
57.260       133
57.270        93
57.280       107
57.290        27
57.300        53
57.310        13
57.320        13
57.330        13
57.340        40
57.350        53
57.360       160
57.370       293
57.380       307
57.390       173
57.400        13
57.410         0
57.420         0
57.430        80
57.440        13
57.450        27
57.460         0
57.470        80
57.480       120
57.490       187
57.500        93
57.510        13
57.520        13
57.530        27
57.540        27
57.550        53
57.560        13
57.570       160
57.580       280
57.590       227
57.600       133
57.610        67
57.620        40
57.630        40
57.640        13
57.650        27
57.660        27
57.670        40
57.680       120
57.690       147
57.700       147
57.710        13
57.720         0
57.730        13
57.740        13
57.750        27
57.760        27
57.770        67
57.780       133
57.790       253
57.800       200
57.810        80
57.820       107
57.830        13
57.840        13
57.850        27
57.860        40
57.870        27
57.880        27
57.890        53
57.900        80
57.910       187
57.920        93
57.930        27
57.940        27
57.950        13
57.960        40
57.970         0
57.980        13
57.990        40
58.000       107
58.010       173
58.020       200
58.030       200
58.040        27
58.050        13
58.060        27
58.070         0
58.080        13
58.090         0
58.100        53
58.110        53
58.120       173
58.130       133
58.140        53
58.150         0
58.160        13
58.170         0
58.180         0
58.190        40
58.200         0
58.210       173
58.220       200
58.230       160
58.240        40
58.250        53
58.260         0
58.270         0
58.280        27
58.290         0
58.300        27
58.310        27
58.320        80
58.330        27
58.340        27
58.350        13
58.360        27
58.370        13
58.380        13
58.390        13
58.400        40
58.410        40
58.420       227
58.430       200
58.440       280
58.450       120
58.460        93
58.470        13
58.480        27
58.490         0
58.500        27
58.510        13
58.520        13
58.530        93
58.540        93
58.550       147
58.560        40
58.570         0
58.580        53
58.590        40
58.600        13
58.610        40
58.620        27
58.630       120
58.640       227
58.650       227
58.660       147
58.670        80
58.680        27
58.690        13
58.700        13
58.710         0
58.720        13
58.730         0
58.740        27
58.750        80
58.760        93
58.770        40
58.780         0
58.790         0
58.800         0
58.810        13
58.820        13
58.830        27
58.840       173
58.850       213
58.860       187
58.870       187
58.880        13
58.890        40
58.900         0
58.910         0
58.920        27
58.930        27
58.940        80
58.950       107
58.960       120
58.970        13
58.980         0
58.990        13
59.000        13
59.010         0
59.020        13
59.030        13
59.040        13
59.050       147
59.060       240
59.070       200
59.080       120
59.090        13
59.100        13
59.110        27
59.120        27
59.130        53
59.140        13
59.150        40
59.160       107
59.170        53
59.180        67
59.190        13
59.200        27
59.210        40
59.220        27
59.230        40
59.240        13
59.250         0
59.260         0
59.270        40
59.280       147
59.290       213
59.300       133
59.310       120
59.320        27
59.330        27
59.340        13
59.350        13
59.360        27
59.370        13
59.380        53
59.390       120
59.400       107
59.410        13
59.420        67
59.430        27
59.440         0
59.450        13
59.460        27
59.470         0
59.480        13
59.490        27
59.500       120
59.510       173
59.520        67
59.530        13
59.540        13
59.550         0
59.560        13
59.570        13
59.580        13
59.590        67
59.600        67
59.610        80
59.620       133
59.630        13
59.640        13
59.650         0
59.660         0
59.670        13
59.680        40
59.690        13
59.700        13
59.710        13
59.720       133
59.730       147
59.740       187
59.750       120
59.760        13
59.770         0
59.780        13
59.790        40
59.800        27
59.810        13
59.820        13
59.830        27
59.840        27
59.850        13
59.860        27
59.870        67
59.880        40
59.890         0
59.900        40
59.910        27
59.920       133
59.930       200
59.940       240
59.950        67
59.960         0
59.970         0
59.980        27
59.990         0
60.000         0
