20.000        80
20.020       133
20.040       120
20.060       110
20.080       103
20.100       107
20.120       113
20.140        83
20.160       123
20.180       123
20.200        80
20.220        97
20.240       113
20.260        87
20.280        90
20.300       120
20.320        83
20.340       103
20.360        80
20.380       113
20.400       133
20.420       103
20.440       140
20.460        90
20.480       107
20.500       123
20.520       120
20.540       100
20.560       123
20.580       107
20.600        83
20.620       137
20.640       100
20.660       133
20.680        90
20.700        97
20.720       100
20.740        80
20.760       103
20.780        90
20.800       127
20.820        80
20.840        97
20.860       103
20.880       110
20.900       123
20.920        90
20.940        87
20.960       113
20.980       117
21.000        90
21.020       113
21.040       110
21.060       103
21.080        80
21.100       123
21.120        80
21.140        90
21.160       107
21.180        97
21.200       103
21.220       127
21.240        80
21.260       100
21.280       110
21.300        97
21.320       107
21.340       120
21.360       117
21.380        90
21.400       123
21.420       140
21.440       100
21.460       153
21.480       110
21.500        90
21.520        90
21.540       133
21.560        93
21.580       120
21.600       133
21.620       113
21.640       127
21.660       160
21.680       120
21.700       140
21.720       130
21.740       150
21.760        97
21.780       137
21.800       127
21.820       117
21.840       137
21.860       110
21.880       133
21.900       123
21.920       137
21.940       137
21.960       157
21.980       137
22.000       150
22.020       117
22.040        97
22.060       190
22.080       153
22.100       143
22.120        93
22.140       133
22.160       137
22.180       163
22.200       133
22.220       167
22.240       133
22.260       143
22.280       137
22.300       130
22.320        93
22.340       137
22.360       150
22.380       150
22.400       163
22.420       170
22.440       243
22.460       167
22.480       163
22.500       130
22.520       177
22.540       207
22.560       220
22.580       220
22.600       190
22.620       177
22.640       193
22.660       213
22.680       177
22.700       190
22.720       190
22.740       200
22.760       193
22.780       173
22.800       163
22.820       180
22.840       240
22.860       193
22.880       220
22.900       247
22.920       237
22.940       250
22.960       257
22.980       287
23.000       310
23.020       350
23.040       503
23.060      1080
23.080      1623
23.100      1913
23.120      1623
23.140       826
23.160       433
23.180       387
23.200       370
23.220       337
23.240       270
23.260       263
23.280       283
23.300       217
23.320       210
23.340       227
23.360       233
23.380       223
23.400       237
23.420       230
23.440       230
23.460       200
23.480       183
23.500       240
23.520       207
23.540       200
23.560       243
23.580       247
23.600       190
23.620       177
23.640       260
23.660       203
23.680       253
23.700       193
23.720       213
23.740       207
23.760       223
23.780       253
23.800       200
23.820       203
23.840       207
23.860       167
23.880       187
23.900       217
23.920       217
23.940       190
23.960       247
23.980       193
24.000       213
24.020       233
24.040       190
24.060       197
24.080       223
24.100       167
24.120       210
24.140       183
24.160       207
24.180       193
24.200       183
24.220       220
24.240       193
24.260       197
24.280       190
24.300       237
24.320       263
24.340       187
24.360       183
24.380       223
24.400       227
24.420       207
24.440       210
24.460       187
24.480       253
24.500       247
24.520       160
24.540       197
24.560       210
24.580       237
24.600       207
24.620       193
24.640       233
24.660       243
24.680       280
24.700       430
24.720       520
24.740       680
24.760       836
24.780       870
24.800       830
24.820       786
24.840       836
24.860       773
24.880       823
24.900       900
24.920       906
24.940       850
24.960       876
24.980       900
25.000       850
25.020       866
25.040       896
25.060       823
25.080       840
25.100       780
25.120       850
25.140       850
25.160       926
25.180       883
25.200       913
25.220       933
25.240       993
25.260       993
25.280      1076
25.300       996
25.320      1066
25.340      1203
25.360      1359
25.380      1443
25.400      1886
25.420      2889
25.440      4582
25.460      6987
25.480      9053
25.500     11719
25.520     14431
25.540     32370
25.560     97584
25.580    152013
25.600    166887
25.620    167753
25.640    132860
25.660    107350
25.680     93066
25.700     56341
25.720     21808
25.740     12422
25.760      9373
25.780      7051
25.800      5338
25.820      3788
25.840      2789
25.860      1993
25.880      1489
25.900      1383
25.920      1329
25.940      1176
25.960      1176
25.980      1216
26.000      1036
26.020      1030
26.040       966
26.060       853
26.080       946
26.100       846
26.120       800
26.140       916
26.160       770
26.180       776
26.200       813
26.220       663
26.240       820
26.260       650
26.280       743
26.300       713
26.320       700
26.340       656
26.360       716
26.380       643
26.400       670
26.420       696
26.440       666
26.460       640
26.480       650
26.500       616
26.520       566
26.540       686
26.560       586
26.580       686
26.600       610
26.620       556
26.640       630
26.660       593
26.680       630
26.700       543
26.720       576
26.740       616
26.760       590
26.780       636
26.800       673
26.820       636
26.840       590
26.860       536
26.880       483
26.900       520
26.920       553
26.940       596
26.960       533
26.980       586
27.000       620
27.020       630
27.040       483
27.060       590
27.080       596
27.100       560
27.120       506
27.140       523
27.160       556
27.180       516
27.200       500
27.220       540
27.240       493
27.260       563
27.280       586
27.300       543
27.320       480
27.340       466
27.360       520
27.380       500
27.400       603
27.420       546
27.440       456
27.460       513
27.480       510
27.500       563
27.520       480
27.540       503
27.560       450
27.580       470
27.600       480
27.620       397
27.640       486
27.660       506
27.680       583
27.700       423
27.720       506
27.740       520
27.760       506
27.780       503
27.800       510
27.820       516
27.840       540
27.860       530
27.880       470
27.900       500
27.920       543
27.940       430
27.960       543
27.980       480
28.000       410
28.020       486
28.040       490
28.060       390
28.080       476
28.100       397
28.120       363
28.140       460
28.160       530
28.180       430
28.200       470
28.220       473
28.240       420
28.260       426
28.280       440
28.300       463
28.320       500
28.340       390
28.360       466
28.380       466
28.400       333
28.420       463
28.440       380
28.460       486
28.480       393
28.500       377
28.520       423
28.540       450
28.560       400
28.580       446
28.600       423
28.620       433
28.640       456
28.660       466
28.680       490
28.700       456
28.720       387
28.740       397
28.760       456
28.780       393
28.800       463
28.820       436
28.840       490
28.860       450
28.880       453
28.900       563
28.920       466
28.940       466
28.960       440
28.980       496
29.000       473
29.020       513
29.040       453
29.060       446
29.080       383
29.100       436
29.120       486
29.140       453
29.160       420
29.180       380
29.200       383
29.220       460
29.240       476
29.260       423
29.280       407
29.300       287
29.320       463
29.340       413
29.360       407
29.380       357
29.400       433
29.420       393
29.440       503
29.460       413
29.480       423
29.500       436
29.520       456
29.540       553
29.560       506
29.580       593
29.600       613
29.620       563
29.640       533
29.660       583
29.680       483
29.700       503
29.720       397
29.740       390
29.760       426
29.780       357
29.800       453
29.820       403
29.840       397
29.860       273
29.880       377
29.900       403
29.920       303
29.940       280
29.960       317
29.980       320
30.000       323
30.020       257
30.040       340
30.060       300
30.080       340
30.100       320
30.120       373
30.140       297
30.160       290
30.180       330
30.200       320
30.220       383
30.240       313
30.260       287
30.280       230
30.300       323
30.320       367
30.340       293
30.360       287
30.380       297
30.400       293
30.420       353
30.440       363
30.460       300
30.480       410
30.500       313
30.520       390
30.540       337
30.560       310
30.580       307
30.600       333
30.620       307
30.640       350
30.660       290
30.680       270
30.700       313
30.720       287
30.740       350
30.760       267
30.780       327
30.800       390
30.820       270
30.840       237
30.860       273
30.880       270
30.900       260
30.920       297
30.940       297
30.960       287
30.980       313
31.000       247
31.020       307
31.040       300
31.060       277
31.080       250
31.100       253
31.120       233
31.140       303
31.160       270
31.180       297
31.200       303
31.220       253
31.240       213
31.260       217
31.280       280
31.300       290
31.320       250
31.340       263
31.360       240
31.380       293
31.400       243
31.420       273
31.440       247
31.460       253
31.480       307
31.500       310
31.520       297
31.540       197
31.560       223
31.580       267
31.600       273
31.620       263
31.640       273
31.660       237
31.680       220
31.700       247
31.720       260
31.740       227
31.760       250
31.780       257
31.800       243
31.820       217
31.840       257
31.860       193
31.880       260
31.900       300
31.920       273
31.940       290
31.960       210
31.980       287
32.000       260
32.020       217
32.040       273
32.060       230
32.080       237
32.100       347
32.120       373
32.140       320
32.160       293
32.180       393
32.200       283
32.220       287
32.240       307
32.260       330
32.280       233
32.300       257
32.320       277
32.340       313
32.360       227
32.380       257
32.400       223
32.420       263
32.440       227
32.460       193
32.480       217
32.500       200
32.520       193
32.540       197
32.560       227
32.580       237
32.600       207
32.620       263
32.640       227
32.660       217
32.680       247
32.700       250
32.720       220
32.740       243
32.760       217
32.780       187
32.800       230
32.820       207
32.840       223
32.860       193
32.880       200
32.900       213
32.920       203
32.940       200
32.960       170
32.980       187
33.000       147
33.020       190
33.040       210
33.060       160
33.080       180
33.100       183
33.120       227
33.140       143
33.160       183
33.180       140
33.200       183
33.220       180
33.240       150
33.260       183
33.280       173
33.300       207
33.320       163
33.340       217
33.360       180
33.380       153
33.400       147
33.420       167
33.440       197
33.460       187
33.480       190
33.500       183
33.520       167
33.540       157
33.560       130
33.580       223
33.600       177
33.620       197
33.640       193
33.660       147
33.680       177
33.700       183
33.720       137
33.740       157
33.760       147
33.780       180
33.800       157
33.820       190
33.840       160
33.860       173
33.880       157
33.900       157
33.920       147
33.940       147
33.960       157
33.980       170
34.000       133
34.020       167
34.040       137
34.060       153
34.080       200
34.100       157
34.120       157
34.140       190
34.160       163
34.180       200
34.200       137
34.220       180
34.240       160
34.260       177
34.280       123
34.300       160
34.320       163
34.340       150
34.360       133
34.380       130
34.400       143
34.420       140
34.440       120
34.460       187
34.480       167
34.500       143
34.520       170
34.540       137
34.560       197
34.580       117
34.600       140
34.620       143
34.640       153
34.660       130
34.680       163
34.700       130
34.720       150
34.740       153
34.760       137
34.780       130
34.800       197
34.820       123
34.840       167
34.860       137
34.880       130
34.900       133
34.920       130
34.940       160
34.960       140
34.980       160
35.000       160
35.020       140
35.040       140
35.060        93
35.080       153
35.100       143
35.120       137
35.140       160
35.160       153
35.180       150
35.200       153
35.220       110
35.240       137
35.260       153
35.280       120
35.300       133
35.320       113
35.340        93
35.360       143
35.380       120
35.400       153
35.420       110
35.440       123
35.460       123
35.480       107
35.500       137
35.520       107
35.540       100
35.560       107
35.580       157
35.600       113
35.620        80
35.640        93
35.660       113
35.680        87
35.700       120
35.720       120
35.740       150
35.760       117
35.780       140
35.800       127
35.820        90
35.840       117
35.860       103
35.880       107
35.900       117
35.920       107
35.940       113
35.960       127
35.980       113
36.000       103
36.020       147
36.040        83
36.060       170
36.080        90
36.100       123
36.120       103
36.140       127
36.160       110
36.180       143
36.200       117
36.220        90
36.240       147
36.260       123
36.280        97
36.300       137
36.320        77
36.340       117
36.360       120
36.380       127
36.400        70
36.420        80
36.440       103
36.460       123
36.480       120
36.500       123
36.520        83
36.540       113
36.560        97
36.580        87
36.600       103
36.620       120
36.640       117
36.660        93
36.680       140
36.700       107
36.720        87
36.740        70
36.760       113
36.780        93
36.800       133
36.820       103
36.840       113
36.860       113
36.880       110
36.900        70
36.920       123
36.940       143
36.960       110
36.980       127
37.000        93
37.020       100
37.040        57
37.060       100
37.080        90
37.100        80
37.120        70
37.140        70
37.160       100
37.180        87
37.200       113
37.220        83
37.240       100
37.260        70
37.280        83
37.300        70
37.320       120
37.340        90
37.360        67
37.380        97
37.400        90
37.420        77
37.440        93
37.460       103
37.480        93
37.500        73
37.520        93
37.540       140
37.560        70
37.580       107
37.600        90
37.620        97
37.640        60
37.660        67
37.680        73
37.700        73
37.720        63
37.740        53
37.760        90
37.780        90
37.800        87
37.820       113
37.840        73
37.860        67
37.880       113
37.900        93
37.920        63
37.940        77
37.960        80
37.980        77
38.000        67
38.020        77
38.040        43
38.060        93
38.080        80
38.100        70
38.120        93
38.140        67
38.160        73
38.180        63
38.200        83
38.220        73
38.240        83
38.260        83
38.280        77
38.300        97
38.320        87
38.340        90
38.360        83
38.380        77
38.400        87
38.420        93
38.440        73
38.460        80
38.480        60
38.500        63
38.520        57
38.540        43
38.560        43
38.580        63
38.600        70
38.620        73
38.640        63
38.660        73
38.680        47
38.700        37
38.720        73
38.740        53
38.760        80
38.780        90
38.800        70
38.820        73
38.840        77
38.860        63
38.880        43
38.900        73
38.920       100
38.940        57
38.960        73
38.980        73
39.000        70
39.020       110
39.040        47
39.060        70
39.080        97
39.100        37
39.120        83
39.140        83
39.160        77
39.180        67
39.200        57
39.220        67
39.240        83
39.260        57
39.280        70
39.300        57
39.320        73
39.340        70
39.360        57
39.380        73
39.400        70
39.420        53
39.440        63
39.460        67
39.480        40
39.500        80
39.520        47
39.540        73
39.560        63
39.580        67
39.600        80
39.620        73
39.640        57
39.660        60
39.680        57
39.700        50
39.720        60
39.740        77
39.760        50
39.780        40
39.800        67
39.820        73
39.840        53
39.860        43
39.880        80
39.900        63
39.920        50
39.940        87
39.960        50
39.980        53
40.000        63
40.020        73
40.040        47
40.060        63
40.080        60
40.100        60
40.120        53
40.140        57
40.160        73
40.180        90
40.200        63
40.220        70
40.240        60
40.260        67
40.280        60
40.300        73
40.320        60
40.340        63
40.360        80
40.380        33
40.400        33
40.420        57
40.440        63
40.460        63
40.480        60
40.500        50
40.520        40
40.540        27
40.560        63
40.580        50
40.600        70
40.620        53
40.640        43
40.660        43
40.680        77
40.700        70
40.720        40
40.740        27
40.760        40
40.780        50
40.800        50
40.820        57
40.840        60
40.860        60
40.880        57
40.900        63
40.920        47
40.940        33
40.960        53
40.980        63
41.000        40
41.020        53
41.040        67
41.060        43
41.080        40
41.100        67
41.120        37
41.140        50
41.160        47
41.180        30
41.200        50
41.220        33
41.240        53
41.260        30
41.280        57
41.300        40
41.320        37
41.340        40
41.360        60
41.380        50
41.400        50
41.420        67
41.440        40
41.460        80
41.480        43
41.500        47
41.520        47
41.540        43
41.560        47
41.580        53
41.600        57
41.620        47
41.640        57
41.660        43
41.680        47
41.700        47
41.720        57
41.740        57
41.760        70
41.780        63
41.800        57
41.820        60
41.840        50
41.860        53
41.880        50
41.900        63
41.920        47
41.940        63
41.960        47
41.980        50
42.000        47
42.020        47
42.040        57
42.060        60
42.080        50
42.100        43
42.120        50
42.140        53
42.160        30
42.180        43
42.200        60
42.220        40
42.240        63
42.260        67
42.280        67
42.300        80
42.320        87
42.340        63
42.360        70
42.380        73
42.400        80
42.420        63
42.440        53
42.460        73
42.480        83
42.500        60
42.520        77
42.540        87
42.560        57
42.580        57
42.600        53
42.620        60
42.640        47
42.660        40
42.680        23
42.700        63
42.720        60
42.740        40
42.760        43
42.780        57
42.800        30
42.820        70
42.840        67
42.860        40
42.880        50
42.900        53
42.920        50
42.940        47
42.960        33
42.980        63
43.000        43
43.020        33
43.040        57
43.060        53
43.080        33
43.100        37
43.120        37
43.140        60
43.160        43
43.180        33
43.200        63
43.220        30
43.240        27
43.260        53
43.280        43
43.300        40
43.320        37
43.340        53
43.360        53
43.380        37
43.400        47
43.420        40
43.440        30
43.460        47
43.480        57
43.500        33
43.520        57
43.540        47
43.560        43
43.580        27
43.600        33
43.620        40
43.640        27
43.660        30
43.680        70
43.700        33
43.720        50
43.740        50
43.760        40
43.780        47
43.800        33
43.820        20
43.840        37
43.860        30
43.880        43
43.900        33
43.920        47
43.940        40
43.960        47
43.980        40
44.000        47
44.020        67
44.040        37
44.060        30
44.080        50
44.100        20
44.120        50
44.140        37
44.160        37
44.180        10
44.200        50
44.220        50
44.240        30
44.260        50
44.280        37
44.300        47
44.320        33
44.340        60
44.360        37
44.380        23
44.400        33
44.420        43
44.440        43
44.460        43
44.480        27
44.500        53
44.520        43
44.540        43
44.560        60
44.580        43
44.600        27
44.620        50
44.640        57
44.660        53
44.680        50
44.700        37
44.720        50
44.740        27
44.760        50
44.780        63
44.800        23
44.820        47
44.840        47
44.860        30
44.880        40
44.900        57
44.920        37
44.940        40
44.960        40
44.980        57
45.000        53
45.020        33
45.040        40
45.060        50
45.080        40
45.100        13
45.120        37
45.140        23
45.160        13
45.180        53
45.200        27
45.220        37
45.240        43
45.260        27
45.280        27
45.300        47
45.320        63
45.340        37
45.360        37
45.380        27
45.400        27
45.420        57
45.440        30
45.460        50
45.480        43
45.500        40
45.520        33
45.540        53
45.560        63
45.580        60
45.600        47
45.620        43
45.640        53
45.660        63
45.680        23
45.700        50
45.720        43
45.740        50
45.760        70
45.780        63
45.800        70
45.820        40
45.840        57
45.860        60
45.880        27
45.900        50
45.920        87
45.940        53
45.960        57
45.980        47
46.000        57
46.020        57
46.040        47
46.060        53
46.080        90
46.100        63
46.120        93
46.140        73
46.160        77
46.180        60
46.200        77
46.220        53
46.240        80
46.260        53
46.280        70
46.300        57
46.320        33
46.340        70
46.360        47
46.380        67
46.400        57
46.420        37
46.440        33
46.460        27
46.480        47
46.500        53
46.520        63
46.540        33
46.560        80
46.580        50
46.600        50
46.620        50
46.640        63
46.660        60
46.680        73
46.700        60
46.720        43
46.740        90
46.760        73
46.780       107
46.800       117
46.820        83
46.840        97
46.860        83
46.880        70
46.900        53
46.920       103
46.940        93
46.960        67
46.980        80
47.000       130
47.020       110
47.040       100
47.060       147
47.080       177
47.100       253
47.120       397
47.140       800
47.160      1363
47.180      1599
47.200      1689
47.220      1309
47.240       710
47.260       373
47.280       333
47.300       177
47.320       170
47.340       117
47.360       137
47.380       100
47.400       103
47.420       113
47.440        60
47.460       113
47.480        93
47.500        83
47.520       100
47.540        77
47.560        73
47.580        90
47.600        80
47.620        63
47.640        60
47.660        70
47.680        80
47.700        97
47.720        60
47.740        67
47.760        57
47.780        50
47.800        70
47.820        57
47.840        60
47.860        40
47.880        20
47.900        57
47.920        47
47.940        53
47.960        57
47.980        47
48.000        43
48.020        40
48.040        63
48.060        37
48.080        60
48.100        40
48.120        47
48.140        50
48.160        50
48.180        37
48.200        83
48.220        57
48.240        47
48.260        47
48.280        73
48.300        60
48.320        67
48.340        50
48.360        60
48.380        53
48.400        63
48.420        33
48.440        63
48.460        33
48.480        33
48.500        37
48.520        43
48.540        43
48.560        30
48.580        30
48.600        50
48.620        50
48.640        50
48.660        37
48.680        50
48.700        43
48.720        47
48.740        37
48.760        37
48.780        33
48.800        40
48.820        57
48.840        47
48.860        57
48.880        47
48.900        50
48.920        53
48.940        43
48.960        40
48.980        53
49.000        53
49.020        67
49.040        73
49.060        57
49.080        60
49.100        67
49.120        43
49.140        70
49.160        70
49.180        67
49.200        67
49.220        73
49.240        63
49.260        40
49.280        60
49.300        43
49.320        57
49.340        47
49.360        27
49.380        47
49.400        57
49.420        53
49.440        77
49.460        43
49.480        57
49.500        47
49.520        33
49.540        30
49.560        37
49.580        30
49.600        40
49.620        37
49.640        47
49.660        83
49.680        53
49.700        27
49.720        37
49.740        40
49.760        47
49.780        57
49.800        73
49.820        47
49.840        70
49.860        73
49.880        60
49.900        63
49.920        70
49.940        47
49.960        57
49.980        57
50.000        50
50.020        50
50.040        40
50.060        57
50.080        30
50.100        33
50.120        57
50.140        63
50.160        70
50.180        43
50.200        47
50.220        53
50.240        50
50.260        77
50.280        63
50.300        50
50.320        23
50.340        37
50.360        63
50.380        27
50.400        23
50.420        37
50.440        23
50.460        43
50.480        33
50.500        37
50.520        47
50.540        50
50.560        87
50.580        63
50.600        83
50.620       147
50.640       173
50.660       257
50.680       317
50.700       350
50.720       400
50.740       370
50.760       393
50.780       450
50.800       397
50.820       357
50.840       470
50.860       453
50.880       440
50.900       423
50.920       397
50.940       453
50.960       500
50.980       453
51.000       407
51.020       503
51.040       423
51.060       420
51.080       410
51.100       407
51.120       503
51.140       453
51.160       423
51.180       493
51.200       466
51.220       417
51.240       466
51.260       473
51.280       476
51.300       500
51.320       430
51.340       440
51.360       486
51.380       490
51.400       453
51.420       450
51.440       433
51.460       476
51.480       480
51.500       466
51.520       456
51.540       460
51.560       450
51.580       500
51.600       500
51.620       533
51.640       446
51.660       483
51.680       486
51.700       560
51.720       523
51.740       466
51.760       536
51.780       486
51.800       520
51.820       533
51.840       520
51.860       576
51.880       680
51.900       576
51.920       620
51.940       576
51.960       686
51.980       630
52.000       590
52.020       700
52.040       736
52.060       730
52.080       770
52.100       683
52.120       846
52.140       856
52.160       856
52.180       943
52.200       886
52.220      1073
52.240      1346
52.260      1716
52.280      2126
52.300      2566
52.320      3252
52.340      3472
52.360      3662
52.380      4008
52.400      4781
52.420      5778
52.440      7690
52.460     10626
52.480     14734
52.500     21718
52.520     43566
52.540    100923
52.560    158500
52.580    182250
52.600    171668
52.620    117813
52.640     61605
52.660     46821
52.680     67586
52.700     97451
52.720    110959
52.740    100883
52.760     66997
52.780     31867
52.800     16204
52.820     10766
52.840      8317
52.860      6817
52.880      5128
52.900      4025
52.920      2756
52.940      2196
52.960      1783
52.980      1553
53.000      1413
53.020      1419
53.040      1289
53.060      1123
53.080       980
53.100       910
53.120       930
53.140       833
53.160       866
53.180       763
53.200       790
53.220       776
53.240       756
53.260       810
53.280       733
53.300       700
53.320       596
53.340       723
53.360       660
53.380       573
53.400       566
53.420       616
53.440       526
53.460       506
53.480       466
53.500       553
53.520       493
53.540       423
53.560       470
53.580       500
53.600       473
53.620       443
53.640       383
53.660       493
53.680       460
53.700       456
53.720       460
53.740       393
53.760       430
53.780       426
53.800       393
53.820       426
53.840       407
53.860       410
53.880       400
53.900       380
53.920       490
53.940       313
53.960       360
53.980       333
54.000       343
54.020       450
54.040       363
54.060       333
54.080       327
54.100       367
54.120       327
54.140       393
54.160       350
54.180       383
54.200       393
54.220       343
54.240       287
54.260       310
54.280       303
54.300       313
54.320       287
54.340       307
54.360       307
54.380       293
54.400       287
54.420       333
54.440       273
54.460       307
54.480       343
54.500       270
54.520       257
54.540       313
54.560       380
54.580       333
54.600       297
54.620       343
54.640       330
54.660       267
54.680       277
54.700       293
54.720       277
54.740       297
54.760       260
54.780       273
54.800       327
54.820       280
54.840       303
54.860       280
54.880       317
54.900       257
54.920       303
54.940       363
54.960       323
54.980       267
55.000       253
55.020       310
55.040       293
55.060       213
55.080       300
55.100       277
55.120       293
55.140       300
55.160       243
55.180       217
55.200       280
55.220       257
55.240       307
55.260       197
55.280       253
55.300       240
55.320       257
55.340       230
55.360       187
55.380       220
55.400       273
55.420       237
55.440       277
55.460       247
55.480       263
55.500       273
55.520       227
55.540       253
55.560       250
55.580       290
55.600       253
55.620       260
55.640       227
55.660       227
55.680       227
55.700       233
55.720       247
55.740       263
55.760       277
55.780       273
55.800       253
55.820       240
55.840       210
55.860       240
55.880       233
55.900       223
55.920       277
55.940       187
55.960       267
55.980       240
56.000       227
56.020       183
56.040       247
56.060       247
56.080       243
56.100       193
56.120       267
56.140       207
56.160       303
56.180       197
56.200       187
56.220       250
56.240       213
56.260       210
56.280       193
56.300       203
56.320       213
56.340       210
56.360       250
56.380       203
56.400       167
56.420       177
56.440       157
56.460       200
56.480       173
56.500       257
56.520       253
56.540       230
56.560       257
56.580       227
56.600       240
56.620       183
56.640       143
56.660       187
56.680       200
56.700       153
56.720       217
56.740       177
56.760       190
56.780       177
56.800       207
56.820       207
56.840       183
56.860       167
56.880       203
56.900       170
56.920       163
56.940       190
56.960       233
56.980       187
57.000       177
57.020       173
57.040       197
57.060       130
57.080       167
57.100       150
57.120       210
57.140       143
57.160       220
57.180       217
57.200       147
57.220       200
57.240       217
57.260       200
57.280       213
57.300       257
57.320       183
57.340       227
57.360       210
57.380       223
57.400       177
57.420       187
57.440       140
57.460       197
57.480       220
57.500       193
57.520       200
57.540       237
57.560       180
57.580       180
57.600       170
57.620       187
57.640       170
57.660       243
57.680       187
57.700       193
57.720       140
57.740       187
57.760       173
57.780       193
57.800       147
57.820       187
57.840       160
57.860       197
57.880       210
57.900       170
57.920       133
57.940       177
57.960       177
57.980       133
58.000       177
58.020       147
58.040       200
58.060       163
58.080       140
58.100       137
58.120       137
58.140       160
58.160       140
58.180       147
58.200       177
58.220       173
58.240       143
58.260       160
58.280       177
58.300       183
58.320       160
58.340       147
58.360       103
58.380       183
58.400       150
58.420       160
58.440       153
58.460       157
58.480       147
58.500       133
58.520        97
58.540       157
58.560       113
58.580       140
58.600       187
58.620       207
58.640       170
58.660       167
58.680       133
58.700       173
58.720       140
58.740       140
58.760       167
58.780       157
58.800       117
58.820       153
58.840       157
58.860       170
58.880       140
58.900       200
58.920       107
58.940       133
58.960       187
58.980       170
59.000       163
59.020       143
59.040       153
59.060       160
59.080       143
59.100       123
59.120       133
59.140       137
59.160       157
59.180       103
59.200       100
59.220       130
59.240       143
59.260       120
59.280       130
59.300       137
59.320       163
59.340       157
59.360       133
59.380       147
59.400       180
59.420       127
59.440       127
59.460       110
59.480       107
59.500       130
59.520       117
59.540       110
59.560       117
59.580       127
59.600       157
59.620       167
59.640       147
59.660       137
59.680       150
59.700       147
59.720       123
59.740        93
59.760       153
59.780       137
59.800       173
59.820       130
59.840       127
59.860       123
59.880       123
59.900       130
59.920       133
59.940       173
59.960       130
59.980         7
60.000         7
