20.000        33
20.010        33
20.020        47
20.030        87
20.040        47
20.050        47
20.060        33
20.070        60
20.080        33
20.090        47
20.100        60
20.110        67
20.120        73
20.130        53
20.140        60
20.150        27
20.160        47
20.170        33
20.180        60
20.190        60
20.200        40
20.210        40
20.220       100
20.230        33
20.240        47
20.250        40
20.260        87
20.270        33
20.280        33
20.290        27
20.300        47
20.310        40
20.320        33
20.330        47
20.340        40
20.350        53
20.360        33
20.370        27
20.380        47
20.390        40
20.400        20
20.410        27
20.420        73
20.430        60
20.440        27
20.450        27
20.460        40
20.470        67
20.480        67
20.490        27
20.500        13
20.510        80
20.520        47
20.530        40
20.540        40
20.550        40
20.560        73
20.570        33
20.580        33
20.590        27
20.600        27
20.610        80
20.620        67
20.630        33
20.640        73
20.650        47
20.660        47
20.670        40
20.680        53
20.690        60
20.700        47
20.710        80
20.720        40
20.730        33
20.740        47
20.750        60
20.760        20
20.770        47
20.780        67
20.790        40
20.800        60
20.810        40
20.820        40
20.830        53
20.840        40
20.850        47
20.860        67
20.870        47
20.880        47
20.890        33
20.900        40
20.910        73
20.920        40
20.930        27
20.940        40
20.950        20
20.960        20
20.970        27
20.980       107
20.990        27
21.000        33
21.010        53
21.020        53
21.030        40
21.040        47
21.050        33
21.060        33
21.070        73
21.080        33
21.090        73
21.100        80
21.110        27
21.120        53
21.130        33
21.140        53
21.150        53
21.160        47
21.170        93
21.180        47
21.190        20
21.200        47
21.210        53
21.220        53
21.230        33
21.240        60
21.250        27
21.260        53
21.270        27
21.280        20
21.290        47
21.300        33
21.310        67
21.320        40
21.330        67
21.340        53
21.350        80
21.360        27
21.370        20
21.380        40
21.390        27
21.400        33
21.410        27
21.420        53
21.430        53
21.440        47
21.450        40
21.460        67
21.470        40
21.480        20
21.490        40
21.500        60
21.510        60
21.520        53
21.530        53
21.540        47
21.550        73
21.560        47
21.570        60
21.580        60
21.590        33
21.600        33
21.610        53
21.620        20
21.630        33
21.640        47
21.650        47
21.660        27
21.670        47
21.680        40
21.690        60
21.700        53
21.710        73
21.720         7
21.730        67
21.740        40
21.750        27
21.760        40
21.770        13
21.780        33
21.790        47
21.800        20
21.810        47
21.820        47
21.830        40
21.840        40
21.850        60
21.860        20
21.870        20
21.880        47
21.890        13
21.900        60
21.910         0
21.920        27
21.930        47
21.940        27
21.950        73
21.960        27
21.970        33
21.980        53
21.990        27
22.000        40
22.010        53
22.020        33
22.030        67
22.040        40
22.050        60
22.060        33
22.070        60
22.080        27
22.090        67
22.100        67
22.110        60
22.120        73
22.130        27
22.140        40
22.150        40
22.160        40
22.170        60
22.180         7
22.190        40
22.200        67
22.210        60
22.220        53
22.230        53
22.240        33
22.250        47
22.260        40
22.270        20
22.280        53
22.290        40
22.300        33
22.310        60
22.320        80
22.330        40
22.340        47
22.350        33
22.360        40
22.370        33
22.380        20
22.390        67
22.400        40
22.410        53
22.420        40
22.430        47
22.440        47
22.450        47
22.460        60
22.470        80
22.480        53
22.490        47
22.500        40
22.510        67
22.520        47
22.530        40
22.540        47
22.550        53
22.560        40
22.570        47
22.580        60
22.590        20
22.600        53
22.610        33
22.620        40
22.630        47
22.640        53
22.650        47
22.660        60
22.670        53
22.680        60
22.690        53
22.700        60
22.710        53
22.720        87
22.730        47
22.740        40
22.750        60
22.760        47
22.770        40
22.780        40
22.790        60
22.800        47
22.810        27
22.820        20
22.830        33
22.840        67
22.850        20
22.860        40
22.870        40
22.880        40
22.890        47
22.900        47
22.910        40
22.920        27
22.930        20
22.940        27
22.950        40
22.960        40
22.970        60
22.980        53
22.990        13
23.000        13
23.010        13
23.020        13
23.030        20
23.040        40
23.050        60
23.060        60
23.070        80
23.080        40
23.090        40
23.100        47
23.110        60
23.120        33
23.130        73
23.140        67
23.150        47
23.160        13
23.170        33
23.180        20
23.190        60
23.200        27
23.210        47
23.220        47
23.230        47
23.240        27
23.250        40
23.260        53
23.270        33
23.280        20
23.290        67
23.300        33
23.310        40
23.320        33
23.330        33
23.340        53
23.350        47
23.360        73
23.370        27
23.380        33
23.390        53
23.400        47
23.410        40
23.420        33
23.430        33
23.440        20
23.450        27
23.460        33
23.470        47
23.480        60
23.490        33
23.500        20
23.510        20
23.520        73
23.530        53
23.540        53
23.550        60
23.560        33
23.570        47
23.580        27
23.590        40
23.600        27
23.610        40
23.620        27
23.630        20
23.640        53
23.650        33
23.660        47
23.670        33
23.680        13
23.690        47
23.700        27
23.710        40
23.720        40
23.730        40
23.740        20
23.750        27
23.760        60
23.770        60
23.780        27
23.790        47
23.800        40
23.810        40
23.820        33
23.830        33
23.840        27
23.850        27
23.860        33
23.870        33
23.880        40
23.890        33
23.900        33
23.910        27
23.920        80
23.930        40
23.940        40
23.950        33
23.960        40
23.970        27
23.980        40
23.990        20
24.000        53
24.010        40
24.020        27
24.030        53
24.040        27
24.050        67
24.060        27
24.070        27
24.080        40
24.090        33
24.100        27
24.110        27
24.120        40
24.130        53
24.140        13
24.150        27
24.160        53
24.170        53
24.180        27
24.190        13
24.200        33
24.210        60
24.220        33
24.230        13
24.240        40
24.250        33
24.260        13
24.270        67
24.280        40
24.290        47
24.300        40
24.310        27
24.320        33
24.330        40
24.340         7
24.350        33
24.360         0
24.370        20
24.380        60
24.390        27
24.400        53
24.410        60
24.420        27
24.430        27
24.440        33
24.450         7
24.460        60
24.470        13
24.480        33
24.490        40
24.500        40
24.510        53
24.520        53
24.530        67
24.540        47
24.550        67
24.560        20
24.570        27
24.580        20
24.590        27
24.600        47
24.610        27
24.620        27
24.630        27
24.640        13
24.650        40
24.660        53
24.670        53
24.680        20
24.690        33
24.700        47
24.710        20
24.720        47
24.730        40
24.740        27
24.750        27
24.760        53
24.770         7
24.780        20
24.790        47
24.800        67
24.810         7
24.820        53
24.830        40
24.840        33
24.850        67
24.860        13
24.870        53
24.880        47
24.890        60
24.900        53
24.910        47
24.920        13
24.930        40
24.940        40
24.950        40
24.960        33
24.970         7
24.980        67
24.990         7
25.000        27
25.010        47
25.020        60
25.030        33
25.040        13
25.050        40
25.060        40
25.070        47
25.080        47
25.090        33
25.100        20
25.110        60
25.120        60
25.130        33
25.140        60
25.150        53
25.160        27
25.170        80
25.180        47
25.190        40
25.200        27
25.210        60
25.220        47
25.230        27
25.240        73
25.250        27
25.260        47
25.270        40
25.280        47
25.290        33
25.300        67
25.310        60
25.320        40
25.330        40
25.340        47
25.350        73
25.360        60
25.370        53
25.380        40
25.390        60
25.400        67
25.410        60
25.420        60
25.430        47
25.440        53
25.450        67
25.460        60
25.470        53
25.480        47
25.490        67
25.500        53
25.510        67
25.520        53
25.530        60
25.540       100
25.550       127
25.560        93
25.570       140
25.580       107
25.590       120
25.600       153
25.610        93
25.620       147
25.630        73
25.640        93
25.650        47
25.660        87
25.670        40
25.680        93
25.690        40
25.700        93
25.710        53
25.720        40
25.730        20
25.740        27
25.750        27
25.760        53
25.770        40
25.780        33
25.790        40
25.800        27
25.810        13
25.820        20
25.830        47
25.840        33
25.850        33
25.860        20
25.870        27
25.880        60
25.890        33
25.900        33
25.910        67
25.920        33
25.930        40
25.940        27
25.950        47
25.960        27
25.970        53
25.980        53
25.990        40
26.000        13
26.010        80
26.020        47
26.030        47
26.040        47
26.050        33
26.060        33
26.070        80
26.080        47
26.090        40
26.100        53
26.110        20
26.120        67
26.130        27
26.140        33
26.150        27
26.160        27
26.170         7
26.180        40
26.190        53
26.200        20
26.210        27
26.220        47
26.230        53
26.240        40
26.250        33
26.260        20
26.270        33
26.280        80
26.290        33
26.300        53
26.310        27
26.320        13
26.330        87
26.340        40
26.350        53
26.360        53
26.370        33
26.380        40
26.390        47
26.400        27
26.410        27
26.420        20
26.430        53
26.440        27
26.450        53
26.460        40
26.470        13
26.480        27
26.490        13
26.500        40
26.510        60
26.520        33
26.530        27
26.540        33
26.550        40
26.560        53
26.570        47
26.580        53
26.590        20
26.600        27
26.610        60
26.620        13
26.630        27
26.640        53
26.650         7
26.660        13
26.670        67
26.680        40
26.690        40
26.700        60
26.710        60
26.720        67
26.730        27
26.740        27
26.750        40
26.760        27
26.770        53
26.780        27
26.790        53
26.800        47
26.810        47
26.820        20
26.830        33
26.840        20
26.850        33
26.860        33
26.870        27
26.880        33
26.890        40
26.900        20
26.910        60
26.920         7
26.930        13
26.940        67
26.950        40
26.960        27
26.970        53
26.980        60
26.990        40
27.000        40
27.010        47
27.020        20
27.030        27
27.040         7
27.050        40
27.060        53
27.070        47
27.080        20
27.090        27
27.100        13
27.110        27
27.120        27
27.130        27
27.140        20
27.150        20
27.160        47
27.170        33
27.180        13
27.190         7
27.200        33
27.210        27
27.220        80
27.230        47
27.240        13
27.250        33
27.260        40
27.270        40
27.280        20
27.290        27
27.300        13
27.310        20
27.320        13
27.330        27
27.340        40
27.350        53
27.360        20
27.370        13
27.380        40
27.390        13
27.400        27
27.410        20
27.420        27
27.430        13
27.440        33
27.450        33
27.460        27
27.470        40
27.480        47
27.490        47
27.500        33
27.510        80
27.520        60
27.530        53
27.540         7
27.550        20
27.560        20
27.570        40
27.580        13
27.590        60
27.600        40
27.610        33
27.620        47
27.630        47
27.640         7
27.650        33
27.660        60
27.670        53
27.680        13
27.690        20
27.700        20
27.710        27
27.720        33
27.730        47
27.740        13
27.750        53
27.760        27
27.770        47
27.780        20
27.790        47
27.800        20
27.810        27
27.820        20
27.830        47
27.840        27
27.850        13
27.860        20
27.870        13
27.880        20
27.890        27
27.900        27
27.910        33
27.920        33
27.930        27
27.940        53
27.950        27
27.960        33
27.970        67
27.980        40
27.990        33
28.000        53
28.010        27
28.020        40
28.030        27
28.040        47
28.050        60
28.060        27
28.070        27
28.080        53
28.090        60
28.100        33
28.110        13
28.120        40
28.130        73
28.140        47
28.150        47
28.160        27
28.170        60
28.180        40
28.190        33
28.200        33
28.210        53
28.220        40
28.230        20
28.240        27
28.250        47
28.260        47
28.270        67
28.280        67
28.290        47
28.300        47
28.310        53
28.320        27
28.330        33
28.340         7
28.350        60
28.360        20
28.370        27
28.380        33
28.390        13
28.400        27
28.410        40
28.420        47
28.430        27
28.440        47
28.450        27
28.460        20
28.470        47
28.480        40
28.490        40
28.500        47
28.510        53
28.520        53
28.530        47
28.540        27
28.550        13
28.560        33
28.570        47
28.580        33
28.590        33
28.600        67
28.610        53
28.620        20
28.630        47
28.640        60
28.650        53
28.660        67
28.670        60
28.680        73
28.690        87
28.700        60
28.710        60
28.720        33
28.730       100
28.740        53
28.750        93
28.760        80
28.770       113
28.780       113
28.790        80
28.800       127
28.810       127
28.820       160
28.830       133
28.840       113
28.850       153
28.860       153
28.870       167
28.880       173
28.890       267
28.900       280
28.910       153
28.920       187
28.930       293
28.940       207
28.950       160
28.960       267
28.970       213
28.980       287
28.990       253
29.000       220
29.010       327
29.020       200
29.030       187
29.040       220
29.050       220
29.060       227
29.070       227
29.080       207
29.090       200
29.100       193
29.110       200
29.120       167
29.130       213
29.140       147
29.150       153
29.160       187
29.170       153
29.180       113
29.190       113
29.200       120
29.210       113
29.220       100
29.230       133
29.240       133
29.250        87
29.260        73
29.270       113
29.280       100
29.290        53
29.300        93
29.310        40
29.320        60
29.330        60
29.340        67
29.350        40
29.360        47
29.370        93
29.380        40
29.390        53
29.400        67
29.410        40
29.420        20
29.430        47
29.440        40
29.450        33
29.460        27
29.470        40
29.480        27
29.490        33
29.500        40
29.510        47
29.520        53
29.530        20
29.540        27
29.550        67
29.560        27
29.570        73
29.580        33
29.590        27
29.600        53
29.610        67
29.620        53
29.630        60
29.640        40
29.650        47
29.660        40
29.670        27
29.680        53
29.690        13
29.700        47
29.710        33
29.720         7
29.730        40
29.740        53
29.750        33
29.760        40
29.770        27
29.780        33
29.790        20
29.800        60
29.810        53
29.820        47
29.830        60
29.840        33
29.850        60
29.860        27
29.870        33
29.880        20
29.890        33
29.900        33
29.910        47
29.920        13
29.930        40
29.940        20
29.950        53
29.960        20
29.970        33
29.980        20
29.990        73
30.000        13
30.010        47
30.020        33
30.030        20
30.040        13
30.050        47
30.060        47
30.070        60
30.080        27
30.090        27
30.100        53
30.110         7
30.120        27
30.130        47
30.140        33
30.150        40
30.160        33
30.170        33
30.180         7
30.190        20
30.200        13
30.210        27
30.220        33
30.230         7
30.240        53
30.250        13
30.260        47
30.270        33
30.280        20
30.290        13
30.300         7
30.310        33
30.320        60
30.330        27
30.340        33
30.350        20
30.360        13
30.370        20
30.380        40
30.390        33
30.400        20
30.410         7
30.420        40
30.430        13
30.440        27
30.450        27
30.460        40
30.470        13
30.480        47
30.490        20
30.500        20
30.510        13
30.520        53
30.530        27
30.540        60
30.550        47
30.560        47
30.570        40
30.580        47
30.590        33
30.600        27
30.610        40
30.620        13
30.630        13
30.640        53
30.650        33
30.660        53
30.670        60
30.680        33
30.690        40
30.700        40
30.710        20
30.720        27
30.730         7
30.740        53
30.750        33
30.760        53
30.770        27
30.780        47
30.790        40
30.800        40
30.810        33
30.820        40
30.830         7
30.840        67
30.850         7
30.860        47
30.870        53
30.880        73
30.890        33
30.900        60
30.910        27
30.920        53
30.930        33
30.940        40
30.950        33
30.960        47
30.970        60
30.980        53
30.990        20
31.000        53
31.010        80
31.020        33
31.030        67
31.040        60
31.050        73
31.060        67
31.070        87
31.080        93
31.090        80
31.100        73
31.110       113
31.120        73
31.130        67
31.140        67
31.150       140
31.160       107
31.170       140
31.180       120
31.190        93
31.200       140
31.210       113
31.220       113
31.230       107
31.240       127
31.250       113
31.260       120
31.270       100
31.280       127
31.290        93
31.300       133
31.310       113
31.320       153
31.330       120
31.340       120
31.350        87
31.360       120
31.370        40
31.380        73
31.390       107
31.400       107
31.410        67
31.420        80
31.430        60
31.440       100
31.450        87
31.460        73
31.470       120
31.480        67
31.490        53
31.500        53
31.510        20
31.520        93
31.530        47
31.540        40
31.550        47
31.560        40
31.570        27
31.580        53
31.590        67
31.600        60
31.610        47
31.620        13
31.630        40
31.640        27
31.650        40
31.660        53
31.670        60
31.680        47
31.690        67
31.700        13
31.710        33
31.720        13
31.730        13
31.740        60
31.750         0
31.760        47
31.770         7
31.780         7
31.790        27
31.800        27
31.810        27
31.820        60
31.830        47
31.840        40
31.850        27
31.860        33
31.870        13
31.880        40
31.890        47
31.900        33
31.910        33
31.920        73
31.930        40
31.940        67
31.950        20
31.960        33
31.970        40
31.980        20
31.990        40
32.000        47
32.010        47
32.020        27
32.030        33
32.040        47
32.050        20
32.060        20
32.070        27
32.080        60
32.090        47
32.100        47
32.110        27
32.120        47
32.130        53
32.140        33
32.150        27
32.160        40
32.170        27
32.180         7
32.190        40
32.200        47
32.210        33
32.220        13
32.230        40
32.240        27
32.250        27
32.260        33
32.270        47
32.280         0
32.290        40
32.300        20
32.310        53
32.320        47
32.330        20
32.340        47
32.350        47
32.360        67
32.370        47
32.380        47
32.390        20
32.400        47
32.410        47
32.420        47
32.430        20
32.440        47
32.450        20
32.460        33
32.470        20
32.480        40
32.490        20
32.500        47
32.510         7
32.520        33
32.530        47
32.540        27
32.550        40
32.560        47
32.570        40
32.580        60
32.590        60
32.600        40
32.610        40
32.620        47
32.630        67
32.640        53
32.650        47
32.660        27
32.670        53
32.680        33
32.690        27
32.700        53
32.710        33
32.720        47
32.730        67
32.740        80
32.750        60
32.760        87
32.770        60
32.780        20
32.790        47
32.800        47
32.810        20
32.820        33
32.830        73
32.840        60
32.850        40
32.860        47
32.870        73
32.880        20
32.890        53
32.900        33
32.910        27
32.920        33
32.930        33
32.940        33
32.950        33
32.960        27
32.970        27
32.980        67
32.990        47
33.000        47
33.010        27
33.020        40
33.030        33
33.040        20
33.050        40
33.060        20
33.070         7
33.080        33
33.090        40
33.100        33
33.110         7
33.120        47
33.130        20
33.140         7
33.150        13
33.160        13
33.170        40
33.180        40
33.190        60
33.200        40
33.210        13
33.220        47
33.230        47
33.240         0
33.250        53
33.260        33
33.270        33
33.280        13
33.290         7
33.300        20
33.310        13
33.320        47
33.330        33
33.340         7
33.350        33
33.360         7
33.370        33
33.380        33
33.390        53
33.400        33
33.410        20
33.420        53
33.430        20
33.440         7
33.450        13
33.460        40
33.470        20
33.480        27
33.490        13
33.500        13
33.510        53
33.520         0
33.530        20
33.540        13
33.550        13
33.560        27
33.570        33
33.580        40
33.590         7
33.600        13
33.610        13
33.620        27
33.630        13
33.640        13
33.650        13
33.660        13
33.670        47
33.680        53
33.690        13
33.700         7
33.710        33
33.720        13
33.730        13
33.740         7
33.750        27
33.760        27
33.770        13
33.780        53
33.790         7
33.800        40
33.810        27
33.820        13
33.830        20
33.840        40
33.850         0
33.860        33
33.870        27
33.880        13
33.890        27
33.900        20
33.910        40
33.920        20
33.930        47
33.940        20
33.950        47
33.960        33
33.970        13
33.980        33
33.990        27
34.000         7
34.010         0
34.020        33
34.030        20
34.040        47
34.050        27
34.060        13
34.070        27
34.080        27
34.090        33
34.100         7
34.110        40
34.120        40
34.130        27
34.140        20
34.150        33
34.160         7
34.170        27
34.180        33
34.190        20
34.200        67
34.210        33
34.220        20
34.230        13
34.240        27
34.250        33
34.260        27
34.270        27
34.280        13
34.290         7
34.300        13
34.310        20
34.320        33
34.330        20
34.340        40
34.350        20
34.360        13
34.370        33
34.380        27
34.390        13
34.400        20
34.410        33
34.420        20
34.430         0
34.440        47
34.450        33
34.460        53
34.470        33
34.480        40
34.490        47
34.500        20
34.510        40
34.520        60
34.530        33
34.540        13
34.550        13
34.560        27
34.570        53
34.580        20
34.590        33
34.600        40
34.610        27
34.620         7
34.630        40
34.640        40
34.650        33
34.660        47
34.670        60
34.680        20
34.690        33
34.700        27
34.710        40
34.720        40
34.730        53
34.740        33
34.750        40
34.760        27
34.770        60
34.780        13
34.790        20
34.800        13
34.810        13
34.820         0
34.830        20
34.840        47
34.850        13
34.860        33
34.870        20
34.880        27
34.890        13
34.900        20
34.910        47
34.920        33
34.930        40
34.940        40
34.950        20
34.960        47
34.970        33
34.980        67
34.990        47
35.000        73
35.010        33
35.020        47
35.030        40
35.040        53
35.050       100
35.060        53
35.070        60
35.080       133
35.090        80
35.100       127
35.110       140
35.120       147
35.130       113
35.140       147
35.150       153
35.160       167
35.170       173
35.180        80
35.190        87
35.200       100
35.210        73
35.220        87
35.230       120
35.240        93
35.250       127
35.260        40
35.270        73
35.280        60
35.290        20
35.300        27
35.310        33
35.320        33
35.330        40
35.340         0
35.350        27
35.360        33
35.370        13
35.380        27
35.390        47
35.400        20
35.410        33
35.420        20
35.430        13
35.440        33
35.450        27
35.460        27
35.470        20
35.480        13
35.490        13
35.500        27
35.510         7
35.520        13
35.530        13
35.540        20
35.550        20
35.560        33
35.570        27
35.580        27
35.590        33
35.600        13
35.610        33
35.620        53
35.630        27
35.640        27
35.650        33
35.660        33
35.670        20
35.680        27
35.690        40
35.700        53
35.710        20
35.720        40
35.730        13
35.740        47
35.750         7
35.760        20
35.770        13
35.780        33
35.790        60
35.800        40
35.810        20
35.820        47
35.830        27
35.840        20
35.850         7
35.860        20
35.870         7
35.880        47
35.890        33
35.900        33
35.910        20
35.920        27
35.930        27
35.940        27
35.950        20
35.960         7
35.970        40
35.980         7
35.990        13
36.000        40
36.010        13
36.020        27
36.030        20
36.040        33
36.050        13
36.060        20
36.070        13
36.080        40
36.090        40
36.100        27
36.110        40
36.120        20
36.130        13
36.140        40
36.150        33
36.160        33
36.170        33
36.180        20
36.190        13
36.200        27
36.210        20
36.220        33
36.230        27
36.240        20
36.250        33
36.260        33
36.270        60
36.280        33
36.290        13
36.300        33
36.310        47
36.320        33
36.330        40
36.340        53
36.350        33
36.360        27
36.370        40
36.380        27
36.390        13
36.400        47
36.410        53
36.420        20
36.430        53
36.440        13
36.450        33
36.460        47
36.470        20
36.480        20
36.490        20
36.500        40
36.510        33
36.520        53
36.530        40
36.540        20
36.550        27
36.560        20
36.570        13
36.580        20
36.590         7
36.600        13
36.610        27
36.620         7
36.630        40
36.640        40
36.650        40
36.660        33
36.670        20
36.680        13
36.690        13
36.700        20
36.710        13
36.720        13
36.730        20
36.740        27
36.750        27
36.760        20
36.770        33
36.780        13
36.790         7
36.800        20
36.810        13
36.820         7
36.830        20
36.840         7
36.850        20
36.860        53
36.870        33
36.880        33
36.890        47
36.900        33
36.910        60
36.920        47
36.930       113
36.940        33
36.950        60
36.960        47
36.970        27
36.980        60
36.990        47
37.000        33
37.010        53
37.020        53
37.030        27
37.040        33
37.050        47
37.060        53
37.070        40
37.080        33
37.090        20
37.100        67
37.110        13
37.120        27
37.130        40
37.140        60
37.150        47
37.160        40
37.170        27
37.180        33
37.190        80
37.200        20
37.210        27
37.220        20
37.230        33
37.240        33
37.250        47
37.260        20
37.270        27
37.280        40
37.290        27
37.300        27
37.310        13
37.320         7
37.330        27
37.340        40
37.350        53
37.360        13
37.370        20
37.380        27
37.390        53
37.400        13
37.410        13
37.420        33
37.430        20
37.440        27
37.450        40
37.460        20
37.470        60
37.480        40
37.490        33
37.500        27
37.510        33
37.520        20
37.530        53
37.540        47
37.550        40
37.560        13
37.570        53
37.580        13
37.590        27
37.600         7
37.610        20
37.620        53
37.630        33
37.640        20
37.650        53
37.660        40
37.670        13
37.680        60
37.690        40
37.700        20
37.710        33
37.720        47
37.730        20
37.740        60
37.750        33
37.760        33
37.770        67
37.780        73
37.790        40
37.800        33
37.810        27
37.820        73
37.830        40
37.840        20
37.850        27
37.860        33
37.870        33
37.880        40
37.890        33
37.900        13
37.910        13
37.920        27
37.930         7
37.940        20
37.950        47
37.960        20
37.970        33
37.980         7
37.990        13
38.000        27
38.010        27
38.020         7
38.030        27
38.040         7
38.050         7
38.060        20
38.070        33
38.080        20
38.090         7
38.100         0
38.110        20
38.120        40
38.130        20
38.140        33
38.150        27
38.160        53
38.170        40
38.180        13
38.190        40
38.200        20
38.210        33
38.220         0
38.230        13
38.240        33
38.250        20
38.260        27
38.270        27
38.280        20
38.290        47
38.300        13
38.310        20
38.320        40
38.330        33
38.340        33
38.350        27
38.360        40
38.370        33
38.380        47
38.390         7
38.400        33
38.410        67
38.420        33
38.430        53
38.440        20
38.450        13
38.460        13
38.470        13
38.480         7
38.490        47
38.500        33
38.510        20
38.520        20
38.530        13
38.540         7
38.550        27
38.560         7
38.570         7
38.580         7
38.590        40
38.600        27
38.610        33
38.620        13
38.630        20
38.640        20
38.650        20
38.660        13
38.670         0
38.680        13
38.690        13
38.700        33
38.710        13
38.720        33
38.730        40
38.740        13
38.750         7
38.760        20
38.770         7
38.780        20
38.790        27
38.800        13
38.810        47
38.820        33
38.830        20
38.840        27
38.850        27
38.860        13
38.870         7
38.880        13
38.890        13
38.900        27
38.910        33
38.920        20
38.930        47
38.940        27
38.950        13
38.960        53
38.970        27
38.980        33
38.990        33
39.000        33
39.010        40
39.020        27
39.030        40
39.040        33
39.050        20
39.060        53
39.070         7
39.080        33
39.090        20
39.100        27
39.110        20
39.120        27
39.130        47
39.140        20
39.150        33
39.160        33
39.170        33
39.180        33
39.190        27
39.200        13
39.210        27
39.220        33
39.230        20
39.240        20
39.250         7
39.260        27
39.270        20
39.280        27
39.290        40
39.300         7
39.310         0
39.320        20
39.330        33
39.340        20
39.350        27
39.360        13
39.370        33
39.380         7
39.390        27
39.400        33
39.410        27
39.420        47
39.430        20
39.440        27
39.450        33
39.460        27
39.470        60
39.480        40
39.490        27
39.500         7
39.510        20
39.520        40
39.530        13
39.540        13
39.550        27
39.560        53
39.570        20
39.580         7
39.590        40
39.600         7
39.610        20
39.620        20
39.630        40
39.640        27
39.650        20
39.660         0
39.670        13
39.680        13
39.690        40
39.700        27
39.710        53
39.720        27
39.730         7
39.740        20
39.750        13
39.760        40
39.770        27
39.780        27
39.790        33
39.800        20
39.810        40
39.820        60
39.830        20
39.840        33
39.850        33
39.860         7
39.870         7
39.880        33
39.890        27
39.900        13
39.910         7
39.920        13
39.930        27
39.940        27
39.950        27
39.960        20
39.970        47
39.980        33
39.990        40
40.000         7
40.010        40
40.020        33
40.030        40
40.040        67
40.050        40
40.060        27
40.070        67
40.080        73
40.090        53
40.100        53
40.110        40
40.120        60
40.130        27
40.140        13
40.150        40
40.160        47
40.170        73
40.180        33
40.190        33
40.200        27
40.210        47
40.220        27
40.230        67
40.240        20
40.250        47
40.260        47
40.270        27
40.280        60
40.290        60
40.300        20
40.310        27
40.320        87
40.330        20
40.340        13
40.350        67
40.360        33
40.370        40
40.380        27
40.390        40
40.400        47
40.410        13
40.420        33
40.430        20
40.440        27
40.450        40
40.460        27
40.470         7
40.480        20
40.490        20
40.500        40
40.510        40
40.520        27
40.530        33
40.540         7
40.550        20
40.560        40
40.570        20
40.580        40
40.590        33
40.600        20
40.610        40
40.620        27
40.630        47
40.640        40
40.650        13
40.660         7
40.670        47
40.680        13
40.690        53
40.700        47
40.710        33
40.720        13
40.730        13
40.740        33
40.750        20
40.760        20
40.770        33
40.780        20
40.790        47
40.800        33
40.810        13
40.820        40
40.830        13
40.840         7
40.850        33
40.860        13
40.870        20
40.880        13
40.890        27
40.900        20
40.910        33
40.920        13
40.930        13
40.940        47
40.950        20
40.960        20
40.970        13
40.980        27
40.990        33
41.000        13
41.010        13
41.020        13
41.030        27
41.040        13
41.050        13
41.060        27
41.070        33
41.080         7
41.090        20
41.100        20
41.110        33
41.120        20
41.130        27
41.140        13
41.150        13
41.160        20
41.170        33
41.180        13
41.190        40
41.200        20
41.210        33
41.220        27
41.230         7
41.240        47
41.250        33
41.260        20
41.270         7
41.280        33
41.290        13
41.300         7
41.310         7
41.320        33
41.330        33
41.340        27
41.350         7
41.360        27
41.370        40
41.380        60
41.390        20
41.400        33
41.410        40
41.420        27
41.430        13
41.440        47
41.450        27
41.460        40
41.470        20
41.480        40
41.490        40
41.500        40
41.510        20
41.520        33
41.530        27
41.540        53
41.550        40
41.560        27
41.570        80
41.580        53
41.590        87
41.600        93
41.610       113
41.620       140
41.630       173
41.640       207
41.650       233
41.660       260
41.670       293
41.680       327
41.690       387
41.700       240
41.710       280
41.720       200
41.730       233
41.740       180
41.750       147
41.760       147
41.770       160
41.780       153
41.790       153
41.800       133
41.810       173
41.820       153
41.830       120
41.840        80
41.850        53
41.860        53
41.870        33
41.880        40
41.890        67
41.900        53
41.910        53
41.920        27
41.930        33
41.940        53
41.950        33
41.960        67
41.970        27
41.980        40
41.990        73
42.000        40
42.010        33
42.020        27
42.030        13
42.040        27
42.050        40
42.060         0
42.070        33
42.080        20
42.090        20
42.100        33
42.110        20
42.120         0
42.130        40
42.140        27
42.150        13
42.160        27
42.170        13
42.180         7
42.190        13
42.200        13
42.210        20
42.220        20
42.230         7
42.240        33
42.250        40
42.260        40
42.270        20
42.280        27
42.290        20
42.300        33
42.310        20
42.320        33
42.330        13
42.340        27
42.350        20
42.360        53
42.370        33
42.380        20
42.390        13
42.400        47
42.410        40
42.420        27
42.430        20
42.440         7
42.450         7
42.460        33
42.470        33
42.480        40
42.490         7
42.500        40
42.510        13
42.520        27
42.530        47
42.540        20
42.550        53
42.560        13
42.570        47
42.580        20
42.590        40
42.600        40
42.610        33
42.620        27
42.630        27
42.640        33
42.650        27
42.660        27
42.670        33
42.680        20
42.690        33
42.700        13
42.710        53
42.720        47
42.730        47
42.740        40
42.750        40
42.760        33
42.770        80
42.780        40
42.790        40
42.800        60
42.810         7
42.820        20
42.830        40
42.840        27
42.850        33
42.860        33
42.870        47
42.880        33
42.890        47
42.900        20
42.910        13
42.920        20
42.930        40
42.940        33
42.950        20
42.960         7
42.970        33
42.980        47
42.990        27
43.000        33
43.010        20
43.020        53
43.030        20
43.040        20
43.050        20
43.060        27
43.070        27
43.080        40
43.090        33
43.100        13
43.110         7
43.120        53
43.130        27
43.140        33
43.150        20
43.160        40
43.170        53
43.180        33
43.190        47
43.200        33
43.210        80
43.220        13
43.230        47
43.240        60
43.250        40
43.260       107
43.270        73
43.280       180
43.290       153
43.300       280
43.310       387
43.320       360
43.330       380
43.340       300
43.350       287
43.360       207
43.370       180
43.380       147
43.390       133
43.400       153
43.410       253
43.420       220
43.430       220
43.440       213
43.450       187
43.460       213
43.470       113
43.480       107
43.490        67
43.500        60
43.510        60
43.520         7
43.530        27
43.540        20
43.550        20
43.560        13
43.570        33
43.580        20
43.590        33
43.600        27
43.610        27
43.620        27
43.630        20
43.640        40
43.650        13
43.660        13
43.670        27
43.680        20
43.690        33
43.700        13
43.710        40
43.720         7
43.730        27
43.740        47
43.750        27
43.760        13
43.770        20
43.780         7
43.790         7
43.800        13
43.810        20
43.820        27
43.830         7
43.840        13
43.850        20
43.860        20
43.870         7
43.880        20
43.890        13
43.900        13
43.910        20
43.920        13
43.930        47
43.940        20
43.950        33
43.960        20
43.970        20
43.980        13
43.990        13
44.000        27
44.010        40
44.020        33
44.030        27
44.040        20
44.050        20
44.060         7
44.070        27
44.080        13
44.090        20
44.100        27
44.110        13
44.120        27
44.130        27
44.140        33
44.150         7
44.160        20
44.170         7
44.180        40
44.190         0
44.200        40
44.210        20
44.220        27
44.230        13
44.240        27
44.250        40
44.260        33
44.270        33
44.280        33
44.290        20
44.300        40
44.310        27
44.320        27
44.330        33
44.340        20
44.350        33
44.360        33
44.370        20
44.380        27
44.390        27
44.400        20
44.410        20
44.420        20
44.430        60
44.440        53
44.450        33
44.460        27
44.470        27
44.480        20
44.490        33
44.500        27
44.510        27
44.520        40
44.530         7
44.540        27
44.550        20
44.560        27
44.570        47
44.580        13
44.590         7
44.600        13
44.610        13
44.620         7
44.630        33
44.640        33
44.650         0
44.660        27
44.670         7
44.680         7
44.690        13
44.700        33
44.710        27
44.720        20
44.730         7
44.740        33
44.750        20
44.760        53
44.770         0
44.780        20
44.790        20
44.800         7
44.810        20
44.820        27
44.830        13
44.840        27
44.850        20
44.860        13
44.870        33
44.880        27
44.890        33
44.900        13
44.910         7
44.920        13
44.930        20
44.940         7
44.950         0
44.960        33
44.970        13
44.980        20
44.990        13
45.000        13
45.010         7
45.020        27
45.030        13
45.040        27
45.050        13
45.060         0
45.070        40
45.080        27
45.090        27
45.100        20
45.110         7
45.120        40
45.130        40
45.140        13
45.150         7
45.160         7
45.170        33
45.180        20
45.190        13
45.200        20
45.210         7
45.220        33
45.230        13
45.240        13
45.250         0
45.260        20
45.270        27
45.280         7
45.290         7
45.300        27
45.310         7
45.320        33
45.330        33
45.340        20
45.350         0
45.360        13
45.370         7
45.380        20
45.390        20
45.400        33
45.410        40
45.420        27
45.430         0
45.440        20
45.450        33
45.460        20
45.470        20
45.480        67
45.490         0
45.500        20
45.510        13
45.520        13
45.530        27
45.540        20
45.550         7
45.560         7
45.570        20
45.580        33
45.590        53
45.600        20
45.610        20
45.620        40
45.630        40
45.640        20
45.650         7
45.660        47
45.670        53
45.680        27
45.690        13
45.700        40
45.710        33
45.720        20
45.730        40
45.740        33
45.750         0
45.760        60
45.770        27
45.780        27
45.790        33
45.800        47
45.810        40
45.820        33
45.830        20
45.840        20
45.850        40
45.860        53
45.870        13
45.880        27
45.890        33
45.900        33
45.910        33
45.920        13
45.930        33
45.940        53
45.950        27
45.960        13
45.970        27
45.980        27
45.990        47
46.000        20
46.010        20
46.020        40
46.030        40
46.040        20
46.050        33
46.060        27
46.070        53
46.080        20
46.090        40
46.100        20
46.110        47
46.120        40
46.130        27
46.140        53
46.150        20
46.160        20
46.170        33
46.180        47
46.190        40
46.200        13
46.210        53
46.220        33
46.230        20
46.240        20
46.250        47
46.260        20
46.270        47
46.280        13
46.290        33
46.300        20
46.310        13
46.320        40
46.330        27
46.340        47
46.350        40
46.360        47
46.370        13
46.380        20
46.390         7
46.400        20
46.410        33
46.420        27
46.430        13
46.440        33
46.450        13
46.460         0
46.470         7
46.480        20
46.490        47
46.500        33
46.510        40
46.520        27
46.530        13
46.540        13
46.550        20
46.560        13
46.570        40
46.580        60
46.590        27
46.600        20
46.610        13
46.620        20
46.630        13
46.640        13
46.650        47
46.660        13
46.670        13
46.680        13
46.690        20
46.700        27
46.710        27
46.720        27
46.730        13
46.740        40
46.750        13
46.760        13
46.770        27
46.780        13
46.790        40
46.800        20
46.810        20
46.820        13
46.830        13
46.840        13
46.850        20
46.860         0
46.870        33
46.880        27
46.890        27
46.900        20
46.910        13
46.920        27
46.930        27
46.940        20
46.950        20
46.960        40
46.970         0
46.980        20
46.990        33
47.000        13
47.010        27
47.020        27
47.030        13
47.040        20
47.050        20
47.060        13
47.070        13
47.080         7
47.090         7
47.100        33
47.110        27
47.120        53
47.130        20
47.140        13
47.150        20
47.160        33
47.170         7
47.180        13
47.190        60
47.200        27
47.210        13
47.220        20
47.230         7
47.240        33
47.250         7
47.260        27
47.270        20
47.280         0
47.290         7
47.300        20
47.310        67
47.320        13
47.330        40
47.340        13
47.350        47
47.360        20
47.370        33
47.380        13
47.390        13
47.400        27
47.410        33
47.420         0
47.430         7
47.440        20
47.450        20
47.460        33
47.470        20
47.480        20
47.490        13
47.500        13
47.510        20
47.520        13
47.530        20
47.540         7
47.550         7
47.560         7
47.570        40
47.580        13
47.590        20
47.600        33
47.610        40
47.620         0
47.630         0
47.640        13
47.650        13
47.660         7
47.670        20
47.680        53
47.690        13
47.700        13
47.710        13
47.720         0
47.730        13
47.740         7
47.750        20
47.760        13
47.770        27
47.780        20
47.790        20
47.800         0
47.810        27
47.820        13
47.830         7
47.840        27
47.850         7
47.860        20
47.870        40
47.880        13
47.890         7
47.900         0
47.910        20
47.920         7
47.930        13
47.940        40
47.950         7
47.960        33
47.970        13
47.980        27
47.990        13
48.000        27
48.010        20
48.020        27
48.030         7
48.040        53
48.050         0
48.060         7
48.070        13
48.080        40
48.090        20
48.100         7
48.110        20
48.120         0
48.130        13
48.140        27
48.150        27
48.160         0
48.170        47
48.180        20
48.190         0
48.200        20
48.210        33
48.220         0
48.230        13
48.240        20
48.250         0
48.260        27
48.270        47
48.280        40
48.290        13
48.300        20
48.310        20
48.320        20
48.330         7
48.340         7
48.350        13
48.360        33
48.370        27
48.380        40
48.390         7
48.400        40
48.410        13
48.420         7
48.430        20
48.440        27
48.450        27
48.460         7
48.470        20
48.480        13
48.490        33
48.500        27
48.510        13
48.520         0
48.530         7
48.540        13
48.550        27
48.560        13
48.570        13
48.580        40
48.590         7
48.600         7
48.610         0
48.620        20
48.630        20
48.640        27
48.650        20
48.660        20
48.670        13
48.680         0
48.690         7
48.700        20
48.710         7
48.720         7
48.730        20
48.740         7
48.750        20
48.760        13
48.770        20
48.780        20
48.790        27
48.800        27
48.810        40
48.820        13
48.830        13
48.840        20
48.850         7
48.860         7
48.870        20
48.880        20
48.890        27
48.900         7
48.910        40
48.920        20
48.930        40
48.940        13
48.950         7
48.960        20
48.970        13
48.980         7
48.990        27
49.000        20
49.010        27
49.020         7
49.030        20
49.040         7
49.050        13
49.060        27
49.070         0
49.080         0
49.090        13
49.100        33
49.110        13
49.120         7
49.130        20
49.140        27
49.150        40
49.160        27
49.170        27
49.180        13
49.190        33
49.200         0
49.210        20
49.220        20
49.230        20
49.240        20
49.250         7
49.260        33
49.270        20
49.280         7
49.290        20
49.300        13
49.310        13
49.320        20
49.330         0
49.340         0
49.350         0
49.360        27
49.370        27
49.380        27
49.390        20
49.400        13
49.410        13
49.420        20
49.430        47
49.440        27
49.450        20
49.460        20
49.470        20
49.480        20
49.490        13
49.500        13
49.510         0
49.520        20
49.530         7
49.540        13
49.550        33
49.560        40
49.570        13
49.580        13
49.590        40
49.600        40
49.610        33
49.620         7
49.630        27
49.640        20
49.650        20
49.660        13
49.670        13
49.680         0
49.690        27
49.700        47
49.710        20
49.720        40
49.730         0
49.740        40
49.750        40
49.760         0
49.770        33
49.780        27
49.790        27
49.800         7
49.810        20
49.820        20
49.830         7
49.840        20
49.850        27
49.860        20
49.870        33
49.880        53
49.890         7
49.900        20
49.910        27
49.920        13
49.930        27
49.940        33
49.950        47
49.960        13
49.970        20
49.980        33
49.990        27
50.000        33
50.010        20
50.020        47
50.030        20
50.040        47
50.050        33
50.060        33
50.070        27
50.080        27
50.090        13
50.100        20
50.110        67
50.120        33
50.130        20
50.140        40
50.150        53
50.160        20
50.170        20
50.180        13
50.190        33
50.200        20
50.210        27
50.220         7
50.230        27
50.240        33
50.250        20
50.260        27
50.270        20
50.280        47
50.290        20
50.300        13
50.310         7
50.320        33
50.330        27
50.340        20
50.350        20
50.360        27
50.370        27
50.380        27
50.390        13
50.400        20
50.410        13
50.420        27
50.430        20
50.440        20
50.450        27
50.460        20
50.470        33
50.480        13
50.490        20
50.500        33
50.510        40
50.520        20
50.530        27
50.540         0
50.550        20
50.560        13
50.570        20
50.580        53
50.590        33
50.600        27
50.610        53
50.620        20
50.630        20
50.640        13
50.650        40
50.660        20
50.670        13
50.680        40
50.690         7
50.700         7
50.710        20
50.720        13
50.730        20
50.740         7
50.750        13
50.760        33
50.770         7
50.780        13
50.790        13
50.800        20
50.810        20
50.820         7
50.830         7
50.840        40
50.850         7
50.860        20
50.870         7
50.880        27
50.890        27
50.900         7
50.910        20
50.920        20
50.930        13
50.940        20
50.950        13
50.960        27
50.970        20
50.980        33
50.990        13
51.000        13
51.010        33
51.020        47
51.030        40
51.040        33
51.050        27
51.060         7
51.070        27
51.080         7
51.090        33
51.100         0
51.110        13
51.120         0
51.130        13
51.140        20
51.150        13
51.160         7
51.170        20
51.180        33
51.190        20
51.200        20
51.210        13
51.220        13
51.230        13
51.240        20
51.250        40
51.260        27
51.270        27
51.280        27
51.290        20
51.300        20
51.310        27
51.320        13
51.330        13
51.340        20
51.350        20
51.360        40
51.370        13
51.380        20
51.390        33
51.400        27
51.410        47
51.420        60
51.430        33
51.440         7
51.450        27
51.460        20
51.470        20
51.480        47
51.490        40
51.500        60
51.510        40
51.520        33
51.530        40
51.540        40
51.550        33
51.560        47
51.570        33
51.580        27
51.590        47
51.600         7
51.610        40
51.620        53
51.630        87
51.640        40
51.650        67
51.660        60
51.670        87
51.680        27
51.690        53
51.700        67
51.710       107
51.720        80
51.730        93
51.740       140
51.750       120
51.760       127
51.770       127
51.780       127
51.790       113
51.800       167
51.810       100
51.820       127
51.830       173
51.840       220
51.850       220
51.860       187
51.870       160
51.880       200
51.890       213
51.900       173
51.910       193
51.920       167
51.930       173
51.940       147
51.950       280
51.960       160
51.970       167
51.980       193
51.990       153
52.000       113
52.010       140
52.020       133
52.030       107
52.040       140
52.050       133
52.060       193
52.070       133
52.080       120
52.090        93
52.100       120
52.110       120
52.120       107
52.130       133
52.140        60
52.150        47
52.160       127
52.170       127
52.180       147
52.190       140
52.200        87
52.210        60
52.220       120
52.230       120
52.240        80
52.250        53
52.260        73
52.270       113
52.280        67
52.290        40
52.300        87
52.310        47
52.320        47
52.330        67
52.340        73
52.350        53
52.360        40
52.370        60
52.380        47
52.390        53
52.400        53
52.410        13
52.420        60
52.430        33
52.440        80
52.450        40
52.460        20
52.470        60
52.480        33
52.490       113
52.500        40
52.510        73
52.520       140
52.530       140
52.540        93
52.550       160
52.560       200
52.570       173
52.580        93
52.590       113
52.600        80
52.610        47
52.620        40
52.630        73
52.640        73
52.650        67
52.660        60
52.670        73
52.680        80
52.690        87
52.700        73
52.710        73
52.720        87
52.730        40
52.740        33
52.750        47
52.760        20
52.770        20
52.780        47
52.790        60
52.800        13
52.810        20
52.820        20
52.830         0
52.840        13
52.850         7
52.860        20
52.870        33
52.880        27
52.890        13
52.900         0
52.910        27
52.920         7
52.930        27
52.940         7
52.950        40
52.960        20
52.970        40
52.980        20
52.990         7
53.000        20
53.010        13
53.020         7
53.030        47
53.040        33
53.050        47
53.060        33
53.070        13
53.080        40
53.090        13
53.100        20
53.110        27
53.120         7
53.130        33
53.140        40
53.150         0
53.160        20
53.170        33
53.180        13
53.190        33
53.200        33
53.210        20
53.220        33
53.230         7
53.240        40
53.250        13
53.260        27
53.270         7
53.280        13
53.290        27
53.300         7
53.310         7
53.320        13
53.330        27
53.340         7
53.350         7
53.360        20
53.370        13
53.380        27
53.390        27
53.400        20
53.410        40
53.420         7
53.430        13
53.440        20
53.450         7
53.460        13
53.470        33
53.480         7
53.490        13
53.500        13
53.510        20
53.520         0
53.530        27
53.540        13
53.550         7
53.560        27
53.570        20
53.580         7
53.590        33
53.600         7
53.610        13
53.620        20
53.630        20
53.640        20
53.650        27
53.660        20
53.670        13
53.680        20
53.690         7
53.700        13
53.710        33
53.720         0
53.730        20
53.740        20
53.750        27
53.760        13
53.770        53
53.780        27
53.790        40
53.800        13
53.810         7
53.820         0
53.830         0
53.840        13
53.850        20
53.860        20
53.870         7
53.880         7
53.890        27
53.900        40
53.910        27
53.920        20
53.930        40
53.940        27
53.950         7
53.960         7
53.970        27
53.980        40
53.990         0
54.000         7
54.010         7
54.020        13
54.030        20
54.040        20
54.050        13
54.060        13
54.070        27
54.080         0
54.090        20
54.100        13
54.110        27
54.120        27
54.130        27
54.140        13
54.150        13
54.160        40
54.170        27
54.180        53
54.190        20
54.200        20
54.210         7
54.220        13
54.230        27
54.240        20
54.250        47
54.260        13
54.270        27
54.280        27
54.290        20
54.300        40
54.310        27
54.320        20
54.330         0
54.340        27
54.350        13
54.360        33
54.370        53
54.380        20
54.390        13
54.400        27
54.410        20
54.420        27
54.430        33
54.440        20
54.450        20
54.460        13
54.470        27
54.480        40
54.490        13
54.500        33
54.510         7
54.520        13
54.530        27
54.540        13
54.550        13
54.560        27
54.570        27
54.580        40
54.590        27
54.600        13
54.610        47
54.620        40
54.630        27
54.640        20
54.650        20
54.660        13
54.670        33
54.680        13
54.690        27
54.700        27
54.710         7
54.720        47
54.730        13
54.740        33
54.750        27
54.760        27
54.770        20
54.780        20
54.790         0
54.800        20
54.810        33
54.820        13
54.830        20
54.840         7
54.850         7
54.860        60
54.870         7
54.880        27
54.890        27
54.900        33
54.910         0
54.920        27
54.930        33
54.940         7
54.950         7
54.960        27
54.970        20
54.980        20
54.990        20
55.000        13
55.010        27
55.020        33
55.030        20
55.040        13
55.050        40
55.060         7
55.070        20
55.080         0
55.090        33
55.100        13
55.110         7
55.120        27
55.130        13
55.140        20
55.150        33
55.160         7
55.170        27
55.180         7
55.190        27
55.200         7
55.210        27
55.220        20
55.230         7
55.240         7
55.250        27
55.260         0
55.270        27
55.280         7
55.290        13
55.300         7
55.310        13
55.320        20
55.330        20
55.340         7
55.350         7
55.360        27
55.370        20
55.380         7
55.390        20
55.400        40
55.410         0
55.420        13
55.430        47
55.440         0
55.450        20
55.460         7
55.470        27
55.480         0
55.490         0
55.500        47
55.510        13
55.520         7
55.530        40
55.540         7
55.550        13
55.560        13
55.570         0
55.580        27
55.590        20
55.600        27
55.610        33
55.620        33
55.630        33
55.640         0
55.650        27
55.660        13
55.670        13
55.680        13
55.690        27
55.700         7
55.710        27
55.720        20
55.730        20
55.740        47
55.750        40
55.760         7
55.770        20
55.780         0
55.790        20
55.800         7
55.810        13
55.820         7
55.830        40
55.840        13
55.850        13
55.860        13
55.870        13
55.880        20
55.890        27
55.900        20
55.910        13
55.920         0
55.930        33
55.940         7
55.950        20
55.960        40
55.970         0
55.980        40
55.990        33
56.000        33
56.010        20
56.020         0
56.030         7
56.040         7
56.050        13
56.060        13
56.070        20
56.080         7
56.090         7
56.100         7
56.110        20
56.120         7
56.130        20
56.140        20
56.150        13
56.160         7
56.170        13
56.180        13
56.190        13
56.200        13
56.210        13
56.220        20
56.230        13
56.240        33
56.250        40
56.260        13
56.270         7
56.280        20
56.290        27
56.300        33
56.310        33
56.320        33
56.330        13
56.340        27
56.350        20
56.360        20
56.370        20
56.380        27
56.390         7
56.400         0
56.410        20
56.420        27
56.430        27
56.440        20
56.450        33
56.460        20
56.470        40
56.480        60
56.490        13
56.500        13
56.510         7
56.520         7
56.530        13
56.540         7
56.550         0
56.560        33
56.570         7
56.580        27
56.590         7
56.600        20
56.610        13
56.620        20
56.630        33
56.640        27
56.650        27
56.660        33
56.670        20
56.680        20
56.690        33
56.700        33
56.710        20
56.720        27
56.730        47
56.740        20
56.750        33
56.760        13
56.770        20
56.780        40
56.790        13
56.800         7
56.810        27
56.820        33
56.830         7
56.840         7
56.850        20
56.860        27
56.870        20
56.880        27
56.890         7
56.900         0
56.910        13
56.920         7
56.930         0
56.940        27
56.950        13
56.960        20
56.970        13
56.980        27
56.990        27
57.000         0
57.010        13
57.020        13
57.030        20
57.040        20
57.050        13
57.060        33
57.070         7
57.080        27
57.090        27
57.100        13
57.110         7
57.120        13
57.130        60
57.140         7
57.150         7
57.160        27
57.170        27
57.180        33
57.190        27
57.200        20
57.210        40
57.220        27
57.230        40
57.240        13
57.250        20
57.260        13
57.270        13
57.280        33
57.290        33
57.300        47
57.310        20
57.320        47
57.330        40
57.340         7
57.350        27
57.360        53
57.370        20
57.380        53
57.390        67
57.400        27
57.410        33
57.420        67
57.430        13
57.440        47
57.450       113
57.460       147
57.470       193
57.480       253
57.490       340
57.500       300
57.510       347
57.520       153
57.530       160
57.540       187
57.550       240
57.560        87
57.570       133
57.580       140
57.590        47
57.600        87
57.610        53
57.620        93
57.630       113
57.640       100
57.650       173
57.660       173
57.670       107
57.680       147
57.690       173
57.700       187
57.710       167
57.720        73
57.730        73
57.740        47
57.750        27
57.760        20
57.770        40
57.780        53
57.790        33
57.800        13
57.810        27
57.820        20
57.830        20
57.840        33
57.850        27
57.860        33
57.870        33
57.880        20
57.890        27
57.900        27
57.910        13
57.920         0
57.930        20
57.940        20
57.950         7
57.960         7
57.970        33
57.980        27
57.990        27
58.000        13
58.010        33
58.020         0
58.030        40
58.040         7
58.050        27
58.060        13
58.070        40
58.080        27
58.090        40
58.100        40
58.110        53
58.120        53
58.130        33
58.140        27
58.150        60
58.160        33
58.170        13
58.180        33
58.190        20
58.200        13
58.210        20
58.220        47
58.230        13
58.240        40
58.250        40
58.260        40
58.270        40
58.280        53
58.290        33
58.300        67
58.310        13
58.320        33
58.330        40
58.340         7
58.350        20
58.360         7
58.370        20
58.380        20
58.390        20
58.400        27
58.410        20
58.420        27
58.430        13
58.440        13
58.450        47
58.460        13
58.470        20
58.480        27
58.490        33
58.500         7
58.510        33
58.520        40
58.530        13
58.540        20
58.550         0
58.560        20
58.570        20
58.580        20
58.590         7
58.600        13
58.610        20
58.620        20
58.630        13
58.640        13
58.650         0
58.660        20
58.670         7
58.680         7
58.690        20
58.700         7
58.710        27
58.720        20
58.730        13
58.740        13
58.750         7
58.760        33
58.770        13
58.780        20
58.790        20
58.800         0
58.810        20
58.820        20
58.830        27
58.840         7
58.850        20
58.860         0
58.870        33
58.880        13
58.890         7
58.900         7
58.910        27
58.920        13
58.930        20
58.940        33
58.950         7
58.960        33
58.970         7
58.980        20
58.990         7
59.000         0
59.010         0
59.020        20
59.030        47
59.040         7
59.050        27
59.060        20
59.070        13
59.080         7
59.090         7
59.100        13
59.110        20
59.120        27
59.130         7
59.140        20
59.150         7
59.160         7
59.170         7
59.180        13
59.190         7
59.200        40
59.210        27
59.220        13
59.230         0
59.240        13
59.250         0
59.260         7
59.270        20
59.280        13
59.290         7
59.300        20
59.310        13
59.320        20
59.330         7
59.340        20
59.350        20
59.360        13
59.370        27
59.380         0
59.390         7
59.400        13
59.410        13
59.420        20
59.430        27
59.440         7
59.450        20
59.460        33
59.470        13
59.480        13
59.490        13
59.500        20
59.510         7
59.520        27
59.530         7
59.540         7
59.550        20
59.560         0
59.570        33
59.580        33
59.590        13
59.600        33
59.610        33
59.620        20
59.630        13
59.640        13
59.650         7
59.660        20
59.670        47
59.680        53
59.690        27
59.700         7
59.710        27
59.720        40
59.730        13
59.740        20
59.750         0
59.760        33
59.770        27
59.780         7
59.790        20
59.800         7
59.810         7
59.820        40
59.830        20
59.840        20
59.850        20
59.860        20
59.870        13
59.880         7
59.890        27
59.900         7
59.910        13
59.920        13
59.930        13
59.940         0
59.950         0
59.960        27
59.970        13
59.980         7
59.990         7
60.000         7
