20.000        47
20.010        47
20.020        47
20.030        20
20.040        40
20.050        67
20.060        60
20.070        27
20.080        20
20.090        33
20.100        33
20.110        73
20.120        40
20.130        53
20.140        53
20.150        40
20.160        27
20.170        53
20.180        53
20.190        40
20.200        60
20.210        13
20.220        40
20.230        40
20.240        40
20.250        40
20.260        40
20.270        33
20.280        53
20.290        53
20.300        60
20.310        33
20.320        33
20.330        40
20.340        67
20.350        47
20.360        53
20.370        60
20.380        67
20.390        47
20.400        27
20.410        47
20.420        40
20.430        27
20.440        47
20.450        47
20.460        20
20.470        20
20.480        40
20.490        47
20.500        20
20.510        33
20.520        20
20.530        60
20.540        20
20.550        47
20.560        40
20.570        73
20.580        80
20.590        33
20.600        40
20.610        40
20.620        27
20.630        33
20.640        47
20.650        27
20.660        67
20.670        33
20.680        53
20.690        53
20.700        67
20.710        40
20.720        33
20.730        80
20.740        20
20.750        20
20.760        40
20.770        40
20.780        60
20.790        27
20.800        67
20.810        33
20.820        33
20.830        33
20.840        47
20.850        13
20.860        40
20.870        40
20.880        40
20.890        27
20.900        27
20.910        27
20.920        60
20.930        47
20.940        20
20.950        20
20.960        67
20.970        67
20.980        53
20.990        47
21.000        53
21.010        40
21.020        53
21.030        53
21.040        47
21.050        33
21.060        33
21.070        13
21.080        40
21.090        53
21.100        53
21.110        20
21.120        47
21.130        20
21.140        47
21.150        40
21.160        80
21.170        13
21.180        33
21.190        27
21.200        40
21.210        40
21.220        20
21.230         7
21.240        53
21.250        20
21.260        67
21.270        53
21.280        27
21.290        40
21.300        53
21.310        13
21.320        27
21.330        20
21.340        53
21.350        73
21.360         7
21.370        33
21.380        27
21.390        47
21.400        40
21.410        20
21.420        20
21.430        27
21.440        60
21.450        40
21.460        40
21.470        40
21.480        27
21.490        47
21.500        27
21.510        20
21.520        53
21.530        33
21.540        33
21.550        40
21.560        47
21.570        40
21.580        40
21.590        27
21.600        40
21.610        47
21.620        20
21.630        40
21.640        33
21.650        33
21.660        20
21.670        13
21.680        67
21.690        40
21.700        33
21.710        33
21.720        27
21.730        47
21.740        33
21.750        53
21.760        40
21.770        47
21.780        47
21.790        40
21.800        33
21.810        60
21.820        20
21.830        33
21.840        47
21.850        60
21.860         7
21.870        47
21.880        33
21.890        27
21.900        40
21.910        67
21.920        27
21.930        20
21.940        33
21.950        20
21.960        67
21.970        13
21.980        13
21.990        40
22.000         0
22.010        40
22.020        33
22.030        47
22.040        20
22.050        33
22.060        40
22.070        40
22.080        67
22.090        53
22.100        40
22.110        53
22.120        13
22.130        27
22.140        33
22.150        60
22.160        47
22.170        87
22.180        40
22.190        40
22.200        33
22.210        20
22.220         0
22.230        20
22.240        27
22.250        47
22.260        27
22.270        60
22.280        53
22.290        27
22.300        67
22.310        40
22.320        33
22.330        40
22.340        40
22.350        67
22.360        33
22.370        47
22.380        67
22.390        27
22.400        40
22.410        33
22.420        47
22.430        73
22.440        60
22.450        47
22.460        53
22.470        13
22.480        47
22.490        40
22.500        47
22.510        40
22.520       100
22.530       107
22.540        60
22.550        67
22.560        53
22.570        47
22.580        80
22.590        73
22.600        87
22.610        67
22.620        93
22.630        93
22.640        67
22.650        60
22.660        67
22.670        60
22.680        47
22.690        47
22.700        40
22.710        33
22.720        73
22.730       100
22.740        40
22.750        47
22.760        80
22.770        60
22.780        80
22.790        87
22.800        60
22.810        33
22.820        40
22.830        93
22.840        60
22.850        53
22.860        53
22.870        87
22.880       100
22.890        40
22.900        67
22.910        53
22.920        40
22.930        53
22.940        80
22.950        73
22.960        60
22.970        53
22.980        40
22.990        53
23.000        40
23.010        47
23.020        20
23.030        20
23.040        13
23.050        40
23.060        40
23.070        53
23.080        27
23.090         7
23.100        40
23.110        67
23.120        27
23.130        33
23.140        53
23.150        20
23.160        27
23.170        67
23.180        47
23.190        47
23.200        33
23.210        40
23.220        20
23.230        40
23.240        40
23.250        40
23.260        27
23.270        20
23.280        47
23.290        27
23.300        40
23.310        27
23.320        33
23.330        13
23.340        40
23.350        47
23.360        60
23.370        13
23.380        20
23.390         0
23.400        53
23.410        33
23.420        40
23.430        27
23.440        47
23.450        33
23.460        33
23.470        20
23.480        60
23.490        40
23.500        20
23.510        40
23.520        13
23.530        33
23.540        40
23.550         7
23.560        33
23.570        60
23.580        47
23.590        20
23.600        20
23.610        53
23.620         7
23.630        20
23.640        13
23.650        20
23.660        13
23.670        47
23.680        33
23.690        33
23.700        47
23.710        40
23.720        60
23.730        20
23.740         0
23.750         7
23.760        40
23.770        33
23.780        40
23.790        33
23.800        53
23.810        47
23.820        27
23.830        40
23.840        20
23.850        27
23.860         7
23.870        27
23.880        47
23.890        33
23.900        33
23.910        33
23.920        40
23.930        27
23.940        33
23.950        27
23.960        60
23.970         7
23.980        33
23.990        27
24.000        13
24.010        33
24.020        47
24.030        27
24.040        47
24.050        13
24.060        47
24.070        27
24.080        73
24.090        47
24.100        20
24.110        33
24.120        27
24.130        47
24.140        13
24.150        27
24.160        20
24.170        27
24.180         0
24.190        27
24.200        47
24.210        33
24.220        13
24.230        33
24.240        20
24.250        33
24.260        33
24.270        33
24.280        20
24.290        40
24.300        20
24.310        47
24.320        13
24.330        13
24.340        40
24.350        27
24.360        20
24.370        13
24.380        13
24.390        33
24.400        20
24.410        27
24.420        53
24.430        27
24.440        20
24.450        27
24.460        40
24.470        27
24.480        33
24.490        33
24.500        40
24.510        33
24.520        27
24.530        20
24.540         7
24.550        33
24.560        13
24.570        53
24.580        20
24.590        33
24.600        27
24.610        40
24.620        27
24.630        33
24.640        20
24.650        20
24.660        40
24.670        27
24.680        33
24.690        33
24.700        27
24.710        20
24.720        40
24.730         7
24.740        33
24.750        33
24.760        40
24.770        47
24.780        20
24.790        27
24.800        40
24.810        27
24.820        13
24.830        60
24.840        33
24.850        13
24.860        53
24.870        27
24.880        20
24.890        27
24.900        13
24.910        20
24.920        40
24.930        13
24.940        40
24.950        33
24.960        13
24.970        13
24.980        33
24.990        20
25.000        40
25.010        47
25.020        47
25.030        27
25.040        27
25.050        33
25.060        27
25.070        13
25.080        40
25.090        40
25.100        27
25.110        33
25.120        33
25.130        20
25.140        13
25.150        40
25.160        13
25.170        27
25.180        60
25.190        33
25.200        13
25.210        20
25.220        33
25.230        47
25.240        33
25.250        40
25.260         7
25.270        67
25.280        47
25.290        33
25.300        40
25.310        13
25.320        47
25.330        47
25.340        33
25.350        33
25.360         7
25.370        27
25.380         7
25.390        27
25.400        40
25.410        27
25.420        47
25.430        33
25.440        27
25.450        67
25.460        47
25.470        47
25.480        33
25.490        47
25.500        20
25.510        27
25.520        33
25.530        80
25.540        27
25.550        47
25.560        93
25.570       160
25.580       233
25.590       240
25.600       267
25.610       220
25.620       193
25.630       227
25.640       180
25.650       173
25.660       147
25.670       140
25.680       100
25.690       147
25.700        80
25.710        67
25.720        67
25.730        13
25.740        80
25.750        20
25.760        33
25.770        33
25.780        47
25.790        47
25.800         7
25.810        40
25.820        47
25.830        47
25.840        13
25.850        40
25.860        40
25.870        60
25.880        53
25.890        40
25.900        33
25.910        33
25.920        20
25.930        27
25.940        13
25.950        20
25.960        20
25.970        27
25.980         7
25.990        60
26.000        27
26.010        27
26.020        20
26.030         7
26.040        27
26.050        13
26.060        20
26.070         7
26.080        13
26.090        20
26.100        27
26.110        33
26.120        27
26.130        13
26.140        27
26.150        40
26.160        20
26.170        40
26.180        53
26.190        20
26.200        27
26.210        27
26.220        13
26.230        13
26.240        33
26.250        27
26.260        13
26.270         7
26.280        13
26.290        20
26.300        27
26.310        33
26.320        27
26.330        47
26.340        13
26.350        27
26.360        13
26.370        20
26.380        40
26.390        33
26.400        40
26.410        13
26.420        20
26.430        40
26.440        27
26.450        27
26.460        20
26.470         7
26.480        40
26.490        33
26.500        33
26.510        27
26.520        40
26.530        20
26.540        13
26.550        27
26.560         7
26.570        13
26.580         0
26.590         0
26.600        27
26.610        40
26.620         7
26.630        20
26.640         7
26.650        40
26.660        27
26.670        53
26.680        13
26.690        47
26.700        20
26.710        13
26.720        20
26.730        33
26.740        20
26.750        27
26.760         7
26.770         0
26.780        20
26.790        13
26.800        40
26.810         7
26.820        27
26.830        27
26.840        27
26.850        60
26.860        13
26.870        20
26.880        13
26.890        13
26.900        27
26.910        40
26.920        20
26.930        13
26.940        20
26.950        20
26.960        20
26.970        20
26.980        33
26.990        13
27.000        13
27.010        27
27.020        40
27.030        20
27.040        27
27.050        27
27.060         7
27.070         7
27.080        13
27.090        40
27.100        20
27.110         7
27.120        33
27.130        20
27.140        40
27.150        47
27.160        13
27.170        20
27.180        20
27.190        13
27.200        27
27.210        40
27.220        40
27.230        13
27.240        33
27.250        33
27.260        20
27.270        33
27.280        20
27.290        33
27.300        27
27.310        47
27.320        20
27.330        20
27.340        20
27.350        33
27.360        20
27.370        20
27.380        13
27.390        27
27.400        13
27.410         0
27.420        53
27.430        80
27.440        27
27.450        47
27.460        40
27.470        27
27.480        20
27.490        27
27.500        20
27.510        20
27.520        20
27.530        13
27.540        33
27.550        20
27.560        20
27.570        27
27.580        13
27.590        13
27.600        40
27.610        13
27.620        33
27.630        33
27.640        40
27.650        33
27.660        27
27.670        60
27.680        13
27.690        20
27.700        13
27.710        40
27.720        13
27.730        33
27.740        20
27.750        33
27.760        13
27.770        20
27.780        20
27.790         0
27.800        27
27.810        33
27.820        40
27.830        33
27.840        47
27.850        40
27.860        40
27.870        53
27.880        33
27.890        40
27.900        33
27.910        40
27.920        60
27.930        27
27.940        20
27.950        27
27.960        33
27.970        27
27.980        33
27.990        13
28.000        27
28.010        33
28.020        27
28.030        27
28.040        47
28.050        20
28.060        47
28.070        40
28.080        27
28.090        13
28.100        33
28.110        27
28.120        53
28.130        40
28.140        33
28.150        47
28.160        33
28.170        33
28.180        20
28.190        33
28.200        53
28.210        27
28.220        27
28.230        27
28.240        47
28.250        47
28.260        33
28.270        20
28.280        33
28.290        27
28.300        47
28.310        40
28.320        47
28.330        33
28.340        27
28.350        47
28.360        40
28.370        20
28.380        27
28.390        47
28.400         0
28.410        40
28.420        40
28.430         7
28.440        13
28.450        20
28.460        40
28.470        33
28.480         7
28.490        33
28.500        27
28.510        33
28.520        13
28.530        20
28.540         7
28.550        53
28.560        20
28.570        20
28.580        27
28.590        27
28.600        20
28.610        47
28.620        47
28.630        53
28.640        53
28.650        40
28.660        40
28.670        60
28.680        40
28.690        40
28.700        53
28.710        47
28.720        40
28.730        80
28.740        80
28.750        93
28.760        73
28.770        53
28.780        40
28.790        40
28.800        60
28.810       100
28.820        67
28.830        67
28.840       120
28.850       127
28.860       133
28.870       167
28.880       147
28.890       140
28.900       187
28.910       113
28.920       200
28.930       173
28.940       187
28.950       127
28.960       233
28.970       193
28.980       160
28.990       213
29.000       133
29.010       160
29.020       180
29.030       207
29.040       147
29.050       173
29.060       140
29.070        73
29.080       140
29.090       127
29.100       133
29.110       113
29.120       147
29.130        67
29.140        53
29.150       133
29.160       100
29.170        73
29.180        73
29.190        33
29.200        53
29.210        67
29.220        67
29.230        47
29.240        60
29.250        53
29.260        53
29.270        40
29.280        53
29.290        20
29.300        33
29.310        33
29.320        60
29.330        40
29.340        40
29.350        13
29.360        20
29.370        27
29.380        27
29.390        13
29.400        33
29.410        27
29.420        20
29.430        53
29.440        13
29.450        13
29.460        47
29.470        47
29.480        53
29.490        40
29.500        13
29.510        33
29.520        33
29.530        27
29.540        47
29.550         0
29.560        40
29.570        27
29.580        60
29.590         7
29.600        20
29.610        60
29.620        40
29.630        27
29.640        27
29.650        13
29.660        13
29.670        33
29.680        27
29.690        27
29.700        27
29.710        33
29.720        13
29.730        13
29.740        27
29.750        27
29.760        27
29.770        27
29.780        27
29.790        53
29.800        20
29.810        27
29.820         7
29.830        53
29.840        20
29.850        27
29.860        33
29.870        33
29.880        13
29.890        20
29.900         0
29.910        20
29.920        33
29.930        47
29.940        67
29.950        33
29.960        20
29.970        20
29.980         7
29.990        13
30.000        27
30.010        13
30.020        53
30.030        33
30.040        27
30.050        13
30.060        47
30.070        20
30.080         7
30.090         7
30.100        47
30.110        27
30.120        40
30.130         7
30.140        40
30.150        40
30.160        40
30.170        13
30.180         7
30.190        40
30.200        20
30.210        20
30.220        20
30.230        20
30.240        20
30.250        20
30.260        27
30.270        20
30.280        60
30.290        33
30.300        33
30.310        20
30.320        33
30.330        20
30.340        13
30.350        20
30.360        20
30.370        33
30.380        20
30.390        13
30.400        20
30.410        47
30.420        33
30.430        53
30.440        20
30.450        53
30.460        13
30.470        27
30.480        27
30.490        40
30.500        20
30.510        13
30.520        33
30.530        33
30.540        20
30.550        20
30.560        13
30.570        27
30.580        13
30.590        27
30.600        27
30.610        20
30.620         7
30.630        13
30.640        33
30.650        27
30.660        33
30.670        20
30.680        13
30.690        33
30.700        20
30.710        20
30.720        27
30.730        20
30.740        13
30.750        27
30.760        20
30.770        33
30.780        13
30.790        33
30.800        27
30.810        13
30.820        20
30.830        33
30.840        20
30.850        27
30.860         7
30.870        40
30.880        20
30.890        27
30.900        13
30.910        13
30.920        27
30.930        40
30.940        20
30.950        27
30.960        33
30.970        27
30.980        40
30.990        27
31.000        33
31.010        47
31.020        33
31.030        27
31.040        20
31.050        40
31.060        27
31.070        47
31.080        20
31.090        13
31.100        60
31.110        27
31.120        67
31.130        20
31.140        47
31.150        20
31.160        47
31.170        33
31.180        47
31.190        40
31.200        27
31.210        60
31.220        60
31.230        53
31.240        73
31.250        33
31.260        53
31.270        33
31.280        53
31.290        33
31.300        67
31.310        47
31.320        60
31.330        87
31.340        33
31.350        60
31.360        47
31.370        13
31.380        40
31.390        53
31.400        27
31.410        47
31.420        33
31.430        27
31.440        27
31.450        27
31.460        47
31.470        20
31.480        33
31.490        40
31.500        40
31.510        60
31.520        40
31.530        40
31.540         7
31.550        13
31.560         0
31.570        13
31.580        33
31.590        27
31.600        33
31.610        20
31.620        13
31.630        27
31.640        13
31.650        27
31.660        33
31.670        20
31.680        20
31.690        13
31.700        20
31.710        27
31.720        13
31.730        13
31.740        20
31.750        33
31.760        20
31.770        33
31.780        27
31.790         7
31.800        13
31.810        20
31.820        27
31.830        20
31.840        13
31.850        27
31.860        13
31.870        20
31.880        27
31.890        33
31.900         7
31.910        13
31.920        20
31.930        20
31.940         7
31.950        27
31.960        33
31.970        53
31.980        13
31.990        47
32.000        27
32.010         7
32.020        33
32.030        27
32.040        20
32.050        13
32.060        13
32.070        20
32.080        13
32.090        27
32.100         7
32.110        27
32.120        20
32.130         7
32.140        27
32.150        20
32.160         7
32.170        13
32.180        13
32.190        27
32.200        13
32.210        33
32.220        33
32.230        60
32.240        33
32.250        20
32.260        20
32.270         7
32.280         7
32.290        20
32.300        27
32.310        47
32.320         7
32.330        27
32.340        13
32.350         7
32.360        47
32.370         7
32.380        60
32.390        13
32.400        33
32.410        20
32.420         7
32.430        13
32.440        27
32.450        27
32.460        27
32.470        47
32.480        20
32.490         7
32.500        33
32.510        53
32.520        40
32.530        40
32.540        33
32.550        27
32.560        80
32.570        33
32.580        53
32.590        33
32.600        33
32.610        67
32.620        60
32.630         7
32.640        60
32.650        33
32.660        20
32.670        53
32.680        60
32.690        60
32.700        20
32.710        33
32.720        40
32.730        47
32.740        53
32.750        93
32.760        53
32.770        67
32.780        53
32.790        20
32.800        27
32.810        40
32.820        20
32.830        53
32.840        27
32.850        47
32.860        47
32.870        27
32.880         7
32.890        40
32.900        33
32.910        33
32.920        13
32.930        27
32.940        27
32.950        27
32.960        40
32.970        27
32.980        47
32.990        13
33.000        40
33.010        40
33.020        27
33.030        27
33.040        47
33.050        20
33.060        27
33.070         0
33.080        20
33.090        13
33.100        13
33.110         0
33.120        20
33.130        27
33.140        13
33.150        20
33.160        13
33.170         7
33.180         7
33.190        13
33.200        13
33.210         7
33.220        13
33.230        27
33.240        13
33.250        27
33.260        60
33.270        13
33.280         7
33.290         7
33.300         7
33.310        20
33.320         7
33.330        40
33.340         7
33.350         7
33.360        13
33.370         7
33.380        20
33.390         7
33.400         0
33.410         7
33.420        33
33.430        13
33.440        27
33.450        13
33.460        47
33.470        20
33.480        27
33.490         7
33.500        13
33.510        13
33.520         7
33.530        20
33.540         7
33.550        20
33.560        13
33.570         0
33.580         7
33.590        13
33.600        27
33.610        13
33.620         7
33.630         0
33.640        20
33.650        33
33.660        13
33.670        20
33.680        20
33.690         7
33.700        20
33.710        13
33.720        20
33.730        20
33.740        13
33.750         7
33.760        20
33.770        27
33.780        20
33.790        13
33.800        13
33.810         7
33.820        20
33.830        33
33.840         7
33.850        20
33.860         7
33.870        27
33.880        13
33.890        27
33.900        13
33.910         0
33.920         7
33.930        13
33.940         7
33.950        33
33.960        20
33.970         0
33.980        20
33.990        13
34.000         0
34.010        20
34.020        33
34.030        20
34.040        27
34.050        13
34.060         7
34.070        13
34.080         7
34.090        13
34.100        27
34.110         7
34.120        40
34.130        20
34.140        13
34.150        33
34.160        27
34.170        27
34.180        27
34.190        20
34.200        13
34.210        13
34.220        33
34.230        13
34.240        20
34.250        13
34.260         7
34.270        13
34.280        40
34.290        13
34.300        27
34.310        13
34.320        13
34.330        20
34.340        27
34.350         7
34.360         0
34.370        13
34.380        27
34.390        40
34.400        13
34.410        13
34.420         7
34.430        13
34.440        20
34.450        27
34.460         7
34.470        27
34.480        33
34.490         7
34.500        13
34.510         7
34.520        13
34.530        13
34.540        13
34.550        33
34.560        20
34.570        27
34.580        33
34.590        33
34.600        13
34.610        13
34.620        53
34.630        13
34.640         7
34.650        20
34.660        33
34.670        13
34.680        27
34.690        33
34.700         7
34.710        13
34.720        33
34.730         7
34.740        27
34.750        20
34.760        20
34.770        33
34.780        13
34.790        47
34.800        27
34.810        33
34.820         7
34.830        27
34.840        20
34.850         7
34.860        20
34.870        27
34.880        20
34.890        13
34.900        27
34.910        20
34.920        13
34.930        40
34.940         7
34.950        47
34.960        20
34.970        13
34.980        20
34.990        13
35.000         0
35.010         0
35.020        33
35.030        20
35.040        13
35.050         7
35.060        33
35.070         7
35.080        20
35.090        47
35.100        33
35.110        20
35.120        13
35.130         7
35.140         0
35.150        40
35.160        40
35.170        20
35.180         7
35.190        13
35.200        27
35.210        33
35.220        20
35.230        27
35.240        20
35.250        13
35.260        33
35.270        13
35.280        13
35.290        27
35.300        13
35.310         7
35.320        13
35.330         7
35.340        27
35.350        20
35.360        20
35.370         7
35.380        20
35.390        27
35.400        33
35.410        20
35.420        13
35.430        13
35.440        20
35.450        20
35.460        27
35.470        20
35.480        13
35.490        13
35.500        20
35.510         7
35.520         0
35.530        20
35.540        13
35.550        40
35.560        40
35.570        20
35.580        27
35.590        13
35.600        40
35.610         7
35.620        13
35.630        13
35.640        20
35.650        13
35.660        40
35.670        40
35.680        33
35.690        40
35.700         0
35.710        13
35.720        20
35.730        20
35.740        13
35.750        13
35.760        13
35.770        13
35.780        13
35.790        20
35.800        13
35.810        13
35.820        27
35.830        20
35.840        20
35.850        27
35.860        13
35.870        27
35.880        27
35.890        33
35.900        20
35.910        20
35.920        13
35.930         7
35.940        20
35.950        13
35.960        13
35.970        33
35.980         0
35.990        20
36.000        27
36.010        33
36.020        40
36.030        40
36.040        40
36.050         7
36.060         0
36.070        13
36.080        20
36.090         7
36.100         0
36.110        27
36.120        27
36.130        20
36.140        13
36.150        40
36.160        13
36.170        13
36.180        27
36.190        27
36.200        27
36.210        13
36.220        20
36.230        13
36.240        13
36.250        13
36.260        13
36.270        13
36.280        53
36.290         7
36.300        13
36.310        20
36.320        33
36.330         7
36.340        27
36.350        27
36.360        20
36.370        20
36.380        33
36.390        33
36.400         7
36.410        20
36.420        27
36.430        33
36.440         7
36.450        20
36.460         7
36.470        13
36.480        20
36.490        27
36.500        20
36.510        40
36.520        40
36.530        27
36.540        20
36.550        27
36.560        27
36.570         7
36.580         7
36.590        20
36.600        27
36.610        40
36.620        27
36.630         7
36.640         0
36.650        27
36.660        20
36.670        27
36.680        20
36.690         7
36.700        60
36.710        27
36.720        20
36.730         7
36.740        13
36.750         7
36.760         7
36.770        20
36.780        13
36.790        20
36.800        13
36.810        27
36.820        27
36.830         0
36.840        13
36.850        13
36.860        20
36.870        13
36.880        27
36.890         0
36.900        27
36.910        13
36.920        40
36.930         0
36.940        20
36.950        13
36.960         7
36.970        20
36.980        20
36.990        20
37.000         7
37.010        13
37.020        20
37.030        20
37.040        27
37.050        47
37.060         7
37.070         0
37.080        53
37.090        13
37.100        27
37.110        20
37.120        13
37.130        20
37.140        20
37.150        13
37.160        33
37.170        27
37.180         7
37.190        20
37.200        27
37.210        27
37.220         7
37.230        33
37.240         0
37.250         7
37.260        27
37.270        13
37.280        20
37.290        13
37.300        20
37.310        33
37.320        27
37.330         7
37.340        27
37.350        13
37.360        20
37.370         0
37.380        33
37.390        20
37.400        13
37.410        13
37.420        33
37.430        20
37.440        20
37.450        27
37.460        27
37.470        27
37.480        33
37.490        13
37.500        33
37.510        20
37.520        27
37.530        27
37.540        27
37.550        47
37.560        13
37.570         7
37.580        27
37.590        27
37.600        27
37.610        13
37.620        13
37.630        40
37.640        13
37.650        13
37.660        27
37.670        40
37.680        27
37.690        20
37.700         7
37.710        20
37.720        33
37.730        33
37.740        13
37.750        13
37.760        27
37.770         7
37.780         7
37.790         0
37.800        20
37.810        20
37.820        33
37.830        33
37.840         7
37.850        13
37.860        13
37.870        27
37.880        33
37.890        13
37.900        27
37.910         7
37.920        20
37.930        13
37.940        13
37.950        60
37.960         0
37.970        13
37.980        27
37.990        20
38.000         0
38.010        27
38.020        20
38.030        27
38.040        13
38.050        13
38.060        27
38.070        13
38.080        27
38.090        20
38.100        13
38.110        13
38.120        13
38.130        33
38.140        40
38.150        20
38.160        27
38.170        13
38.180        20
38.190        20
38.200        13
38.210        20
38.220         0
38.230         0
38.240        13
38.250        13
38.260         7
38.270        13
38.280        20
38.290         7
38.300        20
38.310        20
38.320        20
38.330        40
38.340        20
38.350         7
38.360        20
38.370         0
38.380        33
38.390        40
38.400         7
38.410        13
38.420        27
38.430        20
38.440        13
38.450         7
38.460        20
38.470        33
38.480        27
38.490        33
38.500         0
38.510         0
38.520        20
38.530        20
38.540        27
38.550        20
38.560         0
38.570        20
38.580        20
38.590        40
38.600        33
38.610        13
38.620        33
38.630         7
38.640        20
38.650        20
38.660        20
38.670        27
38.680        13
38.690         7
38.700        20
38.710        20
38.720         0
38.730         7
38.740        20
38.750        27
38.760        33
38.770         7
38.780        33
38.790        20
38.800         7
38.810        13
38.820        33
38.830        13
38.840        33
38.850        27
38.860        20
38.870        27
38.880        53
38.890         0
38.900        27
38.910        20
38.920        47
38.930         0
38.940         7
38.950        13
38.960         7
38.970        33
38.980         7
38.990        33
39.000        27
39.010         7
39.020         7
39.030         0
39.040        13
39.050        13
39.060        20
39.070        20
39.080        13
39.090        13
39.100         7
39.110         7
39.120        20
39.130        27
39.140        27
39.150         7
39.160         0
39.170        33
39.180        20
39.190        13
39.200        27
39.210        20
39.220        13
39.230        20
39.240        13
39.250        27
39.260        33
39.270        20
39.280        20
39.290        27
39.300        13
39.310        27
39.320        13
39.330        20
39.340        13
39.350        13
39.360        33
39.370        20
39.380        27
39.390        33
39.400        13
39.410         0
39.420         7
39.430        27
39.440        13
39.450         7
39.460         7
39.470        13
39.480        13
39.490        13
39.500        13
39.510        27
39.520        27
39.530        13
39.540        13
39.550        13
39.560         7
39.570         7
39.580        13
39.590        33
39.600        13
39.610         7
39.620        27
39.630         7
39.640        20
39.650        27
39.660        20
39.670        13
39.680         7
39.690        33
39.700        13
39.710        20
39.720         7
39.730        27
39.740        13
39.750        20
39.760         0
39.770         7
39.780        27
39.790         7
39.800        13
39.810        20
39.820        20
39.830        13
39.840         7
39.850         0
39.860         7
39.870        33
39.880        27
39.890        13
39.900        27
39.910        20
39.920        20
39.930        20
39.940        67
39.950        27
39.960        13
39.970         7
39.980         7
39.990        40
40.000        33
40.010        20
40.020        20
40.030        13
40.040         7
40.050        40
40.060        20
40.070        20
40.080        33
40.090        33
40.100        20
40.110         7
40.120         7
40.130        27
40.140        27
40.150        33
40.160        27
40.170        20
40.180        20
40.190        27
40.200        13
40.210        47
40.220        20
40.230        20
40.240        13
40.250        40
40.260        27
40.270         7
40.280        13
40.290         0
40.300         7
40.310        27
40.320        33
40.330        40
40.340        40
40.350        27
40.360        13
40.370        13
40.380        20
40.390        13
40.400        20
40.410        20
40.420        20
40.430        27
40.440        20
40.450        20
40.460         7
40.470        13
40.480         7
40.490        20
40.500        20
40.510         0
40.520         7
40.530        33
40.540        27
40.550        33
40.560        20
40.570        20
40.580        33
40.590        33
40.600        13
40.610         0
40.620         7
40.630        13
40.640         7
40.650        20
40.660         7
40.670        13
40.680        33
40.690        13
40.700         7
40.710        20
40.720        13
40.730        40
40.740        27
40.750        20
40.760        20
40.770        33
40.780        20
40.790        40
40.800        27
40.810        27
40.820        27
40.830        13
40.840        13
40.850         0
40.860         7
40.870         7
40.880        40
40.890         0
40.900        20
40.910         0
40.920        27
40.930        27
40.940        33
40.950        27
40.960        20
40.970        33
40.980        33
40.990        13
41.000        27
41.010         7
41.020        27
41.030        53
41.040         0
41.050        13
41.060        13
41.070        20
41.080        13
41.090        20
41.100        20
41.110        33
41.120         0
41.130         7
41.140        20
41.150        13
41.160        27
41.170        13
41.180         0
41.190        13
41.200        27
41.210        33
41.220        13
41.230         0
41.240         0
41.250        13
41.260         7
41.270         0
41.280        27
41.290        47
41.300        13
41.310        13
41.320         7
41.330        20
41.340         7
41.350        27
41.360        20
41.370        13
41.380        20
41.390        13
41.400        47
41.410        27
41.420         7
41.430        13
41.440        20
41.450         0
41.460        27
41.470        20
41.480        13
41.490        33
41.500        20
41.510        27
41.520        27
41.530        13
41.540         7
41.550        27
41.560         0
41.570        13
41.580        33
41.590        27
41.600        40
41.610        33
41.620        27
41.630        27
41.640        20
41.650        13
41.660        20
41.670        13
41.680        13
41.690        13
41.700         7
41.710        27
41.720        27
41.730        27
41.740        27
41.750        20
41.760        27
41.770        33
41.780        20
41.790        20
41.800        20
41.810        13
41.820        13
41.830        33
41.840        20
41.850        27
41.860        20
41.870        13
41.880        47
41.890        40
41.900        40
41.910        13
41.920        33
41.930        20
41.940         7
41.950         7
41.960        13
41.970        33
41.980        33
41.990        33
42.000        40
42.010         0
42.020        13
42.030         7
42.040        27
42.050         7
42.060        13
42.070        13
42.080        20
42.090        53
42.100        20
42.110        27
42.120        40
42.130        20
42.140        53
42.150        13
42.160        13
42.170        13
42.180        27
42.190        13
42.200         7
42.210        27
42.220        20
42.230        20
42.240        33
42.250        27
42.260         7
42.270        27
42.280        13
42.290        33
42.300        20
42.310        27
42.320        20
42.330        13
42.340         7
42.350         7
42.360        27
42.370         0
42.380        13
42.390        33
42.400        40
42.410        13
42.420        13
42.430         7
42.440        27
42.450        13
42.460        27
42.470        13
42.480        27
42.490        13
42.500        20
42.510        27
42.520        13
42.530        13
42.540        13
42.550        13
42.560        13
42.570         7
42.580        47
42.590        33
42.600         7
42.610        20
42.620        20
42.630         0
42.640         0
42.650         7
42.660        13
42.670        27
42.680        33
42.690        20
42.700         7
42.710        27
42.720        20
42.730        13
42.740        27
42.750        27
42.760         7
42.770        33
42.780        27
42.790        20
42.800        27
42.810        20
42.820        13
42.830        47
42.840        20
42.850        20
42.860        40
42.870        20
42.880        27
42.890        27
42.900        20
42.910        47
42.920        20
42.930        20
42.940        27
42.950        27
42.960         0
42.970         7
42.980        33
42.990        27
43.000        20
43.010        20
43.020        40
43.030        13
43.040        13
43.050        27
43.060        27
43.070        40
43.080         7
43.090        20
43.100         0
43.110        20
43.120        20
43.130        13
43.140        13
43.150         7
43.160        33
43.170        27
43.180        27
43.190        13
43.200        27
43.210        40
43.220        40
43.230         7
43.240         7
43.250        20
43.260        33
43.270         7
43.280         7
43.290         7
43.300        40
43.310        13
43.320        27
43.330         0
43.340         0
43.350         7
43.360        20
43.370        13
43.380        20
43.390         0
43.400         7
43.410        13
43.420        27
43.430         7
43.440        13
43.450        20
43.460        20
43.470        13
43.480         7
43.490        33
43.500        33
43.510        13
43.520         7
43.530         7
43.540        20
43.550        40
43.560        33
43.570        47
43.580        33
43.590        33
43.600        27
43.610        13
43.620        40
43.630        27
43.640        27
43.650        27
43.660         0
43.670        20
43.680        13
43.690        27
43.700         7
43.710        40
43.720         0
43.730         0
43.740         7
43.750        33
43.760        33
43.770         0
43.780        27
43.790        20
43.800        13
43.810        13
43.820        20
43.830        13
43.840        13
43.850        13
43.860        20
43.870        27
43.880         7
43.890        20
43.900        33
43.910        20
43.920        27
43.930        27
43.940        27
43.950         7
43.960        20
43.970        20
43.980        33
43.990        13
44.000        40
44.010        20
44.020        20
44.030        33
44.040         7
44.050        47
44.060        27
44.070        13
44.080        13
44.090        13
44.100        40
44.110        13
44.120        27
44.130        20
44.140        33
44.150        33
44.160        40
44.170        20
44.180        20
44.190        27
44.200        13
44.210         0
44.220        33
44.230        27
44.240        20
44.250        13
44.260         0
44.270        20
44.280        20
44.290         7
44.300        13
44.310        20
44.320        27
44.330        20
44.340        33
44.350        13
44.360        13
44.370        20
44.380        33
44.390        20
44.400         7
44.410        33
44.420        33
44.430        20
44.440        33
44.450        27
44.460         0
44.470        27
44.480        33
44.490        20
44.500        20
44.510        27
44.520        47
44.530        27
44.540        13
44.550        20
44.560        13
44.570        20
44.580         7
44.590        27
44.600         0
44.610        13
44.620        33
44.630        27
44.640        20
44.650        40
44.660        20
44.670        33
44.680        53
44.690        13
44.700        20
44.710        13
44.720        27
44.730        27
44.740        20
44.750        53
44.760        20
44.770        27
44.780         7
44.790         7
44.800        13
44.810        13
44.820        20
44.830        33
44.840         7
44.850         0
44.860         7
44.870         7
44.880         0
44.890         7
44.900        13
44.910        27
44.920        13
44.930        27
44.940        27
44.950        20
44.960        27
44.970        20
44.980         7
44.990        40
45.000        27
45.010        20
45.020        13
45.030         7
45.040        20
45.050        27
45.060        33
45.070        27
45.080         7
45.090        40
45.100        27
45.110        27
45.120         7
45.130        13
45.140        13
45.150        33
45.160        20
45.170        40
45.180        20
45.190        13
45.200        20
45.210        20
45.220        27
45.230        13
45.240         0
45.250        13
45.260        33
45.270        27
45.280        13
45.290        13
45.300        27
45.310        20
45.320        20
45.330        33
45.340        27
45.350        13
45.360        33
45.370         7
45.380         7
45.390        33
45.400         0
45.410         0
45.420         7
45.430        13
45.440        13
45.450        33
45.460        27
45.470        20
45.480        20
45.490        20
45.500         7
45.510        33
45.520        13
45.530        40
45.540        40
45.550        20
45.560        40
45.570        20
45.580        27
45.590        33
45.600        27
45.610        20
45.620        13
45.630        20
45.640        27
45.650        67
45.660        27
45.670        20
45.680        27
45.690        13
45.700        60
45.710        27
45.720        40
45.730        33
45.740        47
45.750        40
45.760        33
45.770        40
45.780        27
45.790        13
45.800        27
45.810        33
45.820        27
45.830        47
45.840        27
45.850        40
45.860        53
45.870        53
45.880        33
45.890         7
45.900        73
45.910        47
45.920        73
45.930        47
45.940        33
45.950        33
45.960        33
45.970        20
45.980        47
45.990        67
46.000        60
46.010        47
46.020        53
46.030        33
46.040        33
46.050        40
46.060        60
46.070        27
46.080        47
46.090        33
46.100        47
46.110        60
46.120        60
46.130        40
46.140        20
46.150        67
46.160        40
46.170        33
46.180        73
46.190        47
46.200        53
46.210        53
46.220        40
46.230        33
46.240        53
46.250        47
46.260        60
46.270        33
46.280        67
46.290        13
46.300        27
46.310        27
46.320        27
46.330        47
46.340        53
46.350        40
46.360        67
46.370        33
46.380        40
46.390        40
46.400        27
46.410        27
46.420        20
46.430        47
46.440        20
46.450        20
46.460        40
46.470        40
46.480         7
46.490        27
46.500        13
46.510        33
46.520        47
46.530        27
46.540        13
46.550        13
46.560        40
46.570        40
46.580        20
46.590        80
46.600        20
46.610        40
46.620        47
46.630        60
46.640        33
46.650        20
46.660        27
46.670        27
46.680        40
46.690        40
46.700        67
46.710        33
46.720        53
46.730        13
46.740        53
46.750        27
46.760        67
46.770        27
46.780        40
46.790        20
46.800        47
46.810        33
46.820        33
46.830        53
46.840        33
46.850        20
46.860         7
46.870        40
46.880         7
46.890        53
46.900        33
46.910        40
46.920        60
46.930        27
46.940        33
46.950        33
46.960        33
46.970        33
46.980        27
46.990        20
47.000        27
47.010        20
47.020        33
47.030         7
47.040        33
47.050        13
47.060         7
47.070        13
47.080        13
47.090        27
47.100        20
47.110        40
47.120        13
47.130        27
47.140        20
47.150        20
47.160        13
47.170        20
47.180        20
47.190        20
47.200        20
47.210        33
47.220        20
47.230        20
47.240        13
47.250        47
47.260        20
47.270        27
47.280        20
47.290        13
47.300        13
47.310        13
47.320        53
47.330        27
47.340        13
47.350        20
47.360        40
47.370        47
47.380        27
47.390        27
47.400        27
47.410        20
47.420        47
47.430        33
47.440        13
47.450        20
47.460        27
47.470        27
47.480        20
47.490        13
47.500        13
47.510        20
47.520        27
47.530        47
47.540        13
47.550        27
47.560        40
47.570        40
47.580        33
47.590        20
47.600        13
47.610        13
47.620        13
47.630        20
47.640        13
47.650        20
47.660        27
47.670        20
47.680        33
47.690        13
47.700        20
47.710         7
47.720        53
47.730        13
47.740        27
47.750        13
47.760         7
47.770        20
47.780         7
47.790        27
47.800        20
47.810        20
47.820        20
47.830        40
47.840        20
47.850         7
47.860        33
47.870        20
47.880         7
47.890        20
47.900        27
47.910        27
47.920        33
47.930        20
47.940        27
47.950        27
47.960        13
47.970         0
47.980        20
47.990        20
48.000        13
48.010        20
48.020        13
48.030        27
48.040        27
48.050        20
48.060        13
48.070        20
48.080        20
48.090        20
48.100        20
48.110         7
48.120        20
48.130        13
48.140        20
48.150        13
48.160        20
48.170        27
48.180         7
48.190        27
48.200        27
48.210         7
48.220        20
48.230        20
48.240         0
48.250        27
48.260         7
48.270        33
48.280        27
48.290        33
48.300        13
48.310        20
48.320         7
48.330        13
48.340        20
48.350        20
48.360        20
48.370        20
48.380         7
48.390        20
48.400        20
48.410        47
48.420        13
48.430         7
48.440         7
48.450        27
48.460        27
48.470        53
48.480        13
48.490         7
48.500        27
48.510        40
48.520         7
48.530        27
48.540        20
48.550        13
48.560        13
48.570        27
48.580        20
48.590        33
48.600        13
48.610        20
48.620        13
48.630        20
48.640        33
48.650         0
48.660        13
48.670        40
48.680         7
48.690         7
48.700        20
48.710        27
48.720         7
48.730        20
48.740        27
48.750        47
48.760         7
48.770        13
48.780        13
48.790        20
48.800         7
48.810         7
48.820         7
48.830        33
48.840         7
48.850        13
48.860        13
48.870         7
48.880         0
48.890        27
48.900        13
48.910        13
48.920        27
48.930         0
48.940        47
48.950        20
48.960        27
48.970        13
48.980        20
48.990        27
49.000        13
49.010        27
49.020        20
49.030        27
49.040        33
49.050         7
49.060         7
49.070        27
49.080        13
49.090        20
49.100         0
49.110        13
49.120        60
49.130        33
49.140         7
49.150        27
49.160        20
49.170        20
49.180         0
49.190        20
49.200        27
49.210        13
49.220        40
49.230        33
49.240         7
49.250         7
49.260        47
49.270        20
49.280        13
49.290        33
49.300        20
49.310        13
49.320         7
49.330        33
49.340        20
49.350         7
49.360        13
49.370         7
49.380        20
49.390         7
49.400        13
49.410        20
49.420        27
49.430         0
49.440         7
49.450        13
49.460        13
49.470        13
49.480        20
49.490        27
49.500        20
49.510        20
49.520        33
49.530        33
49.540        40
49.550        13
49.560        27
49.570        27
49.580        13
49.590        20
49.600        20
49.610        27
49.620        73
49.630         7
49.640        40
49.650        33
49.660         7
49.670        33
49.680        33
49.690        13
49.700        20
49.710         0
49.720        33
49.730        53
49.740         7
49.750        20
49.760        33
49.770        40
49.780        13
49.790        33
49.800        20
49.810        13
49.820        40
49.830        47
49.840        60
49.850        20
49.860        33
49.870        27
49.880        40
49.890        53
49.900        33
49.910        13
49.920        33
49.930        33
49.940        20
49.950        20
49.960        60
49.970        33
49.980        20
49.990        33
50.000        47
50.010        27
50.020        20
50.030        80
50.040        20
50.050        33
50.060        13
50.070        33
50.080        40
50.090        40
50.100        20
50.110        33
50.120        20
50.130        13
50.140        33
50.150        33
50.160         7
50.170        60
50.180        40
50.190        13
50.200        20
50.210        40
50.220        20
50.230        47
50.240        20
50.250        40
50.260        13
50.270         7
50.280        20
50.290        33
50.300        13
50.310        20
50.320        40
50.330        13
50.340        33
50.350        40
50.360        33
50.370        20
50.380        27
50.390        40
50.400        13
50.410         7
50.420        47
50.430         7
50.440        33
50.450        20
50.460        20
50.470        33
50.480        20
50.490        27
50.500        20
50.510        20
50.520        27
50.530        47
50.540        20
50.550        20
50.560        20
50.570        20
50.580        27
50.590        27
50.600         7
50.610        33
50.620        20
50.630        47
50.640        40
50.650        33
50.660        20
50.670        33
50.680        53
50.690        47
50.700        20
50.710        20
50.720        53
50.730        40
50.740        60
50.750        13
50.760        20
50.770         0
50.780        27
50.790        20
50.800        20
50.810        40
50.820        13
50.830         7
50.840        13
50.850        27
50.860         7
50.870         7
50.880         7
50.890        27
50.900        20
50.910        27
50.920         0
50.930        53
50.940         0
50.950         7
50.960        27
50.970        27
50.980         7
50.990        20
51.000         7
51.010        20
51.020        20
51.030        20
51.040        20
51.050        33
51.060        33
51.070        20
51.080        40
51.090        20
51.100         7
51.110        20
51.120        27
51.130        27
51.140        27
51.150        33
51.160        27
51.170        27
51.180        20
51.190        33
51.200        20
51.210        20
51.220        47
51.230        27
51.240        33
51.250        13
51.260        33
51.270        33
51.280        40
51.290        13
51.300        47
51.310        27
51.320        20
51.330        47
51.340        20
51.350        20
51.360        47
51.370        13
51.380        27
51.390        20
51.400        40
51.410         7
51.420        40
51.430        27
51.440        27
51.450        33
51.460        27
51.470        27
51.480        27
51.490        27
51.500        33
51.510        40
51.520        33
51.530        13
51.540        40
51.550        33
51.560         7
51.570        40
51.580        27
51.590        13
51.600        53
51.610        20
51.620        27
51.630        20
51.640        27
51.650        27
51.660        20
51.670        27
51.680        40
51.690        53
51.700        47
51.710        53
51.720       100
51.730        47
51.740        47
51.750        53
51.760        13
51.770        13
51.780        87
51.790        67
51.800        40
51.810        40
51.820        80
51.830        67
51.840        73
51.850        87
51.860        47
51.870        53
51.880        20
51.890        53
51.900        40
51.910        27
51.920        20
51.930        67
51.940        40
51.950        27
51.960        47
51.970        33
51.980        60
51.990        47
52.000        67
52.010        33
52.020        27
52.030        40
52.040        73
52.050        80
52.060        20
52.070        33
52.080        67
52.090        27
52.100        33
52.110        27
52.120        87
52.130        27
52.140        27
52.150        20
52.160        53
52.170        60
52.180        47
52.190        47
52.200        73
52.210        20
52.220        27
52.230        53
52.240        27
52.250        33
52.260        47
52.270        47
52.280        40
52.290        20
52.300        33
52.310        33
52.320        27
52.330        47
52.340        20
52.350        27
52.360        13
52.370        13
52.380        40
52.390        53
52.400        27
52.410        53
52.420        20
52.430        53
52.440        40
52.450        27
52.460        20
52.470        27
52.480        27
52.490        67
52.500        27
52.510        47
52.520        47
52.530        33
52.540        80
52.550        93
52.560        67
52.570        67
52.580       147
52.590        93
52.600        53
52.610        53
52.620        47
52.630        80
52.640        47
52.650        80
52.660        67
52.670        40
52.680        60
52.690        53
52.700        67
52.710        27
52.720        47
52.730        60
52.740        53
52.750        60
52.760        47
52.770        47
52.780        47
52.790        33
52.800        47
52.810        13
52.820        20
52.830        53
52.840        33
52.850        20
52.860        20
52.870         0
52.880        13
52.890        27
52.900        27
52.910        13
52.920        67
52.930        20
52.940        60
52.950        20
52.960        27
52.970        40
52.980        47
52.990        33
53.000        40
53.010        20
53.020        13
53.030        60
53.040        33
53.050        33
53.060        40
53.070        20
53.080        33
53.090        20
53.100        53
53.110        27
53.120        27
53.130        53
53.140        20
53.150        53
53.160        33
53.170        40
53.180        20
53.190        20
53.200        27
53.210        20
53.220        40
53.230        47
53.240        27
53.250        33
53.260        13
53.270        20
53.280        27
53.290        27
53.300        20
53.310        13
53.320        13
53.330        13
53.340        13
53.350        33
53.360        27
53.370        40
53.380        40
53.390        20
53.400        33
53.410         7
53.420        40
53.430        27
53.440        27
53.450         7
53.460        47
53.470        47
53.480        20
53.490        27
53.500        27
53.510        40
53.520        20
53.530        40
53.540        27
53.550        27
53.560        40
53.570         7
53.580        20
53.590         7
53.600        27
53.610        27
53.620         7
53.630        20
53.640        13
53.650        33
53.660        40
53.670        20
53.680        27
53.690        33
53.700        33
53.710        13
53.720        27
53.730        33
53.740        53
53.750        47
53.760        27
53.770         7
53.780        27
53.790        20
53.800        27
53.810         7
53.820         0
53.830        27
53.840        27
53.850        13
53.860        13
53.870        20
53.880        33
53.890        20
53.900        20
53.910        33
53.920         7
53.930         7
53.940        20
53.950        20
53.960         7
53.970        13
53.980        60
53.990        20
54.000        20
54.010        40
54.020        13
54.030        47
54.040        20
54.050        20
54.060         0
54.070        13
54.080        33
54.090         0
54.100        20
54.110        33
54.120        40
54.130        20
54.140        20
54.150        13
54.160         0
54.170        27
54.180        40
54.190        13
54.200        33
54.210         7
54.220        20
54.230        53
54.240        27
54.250         0
54.260         7
54.270        13
54.280        27
54.290        47
54.300        20
54.310        13
54.320        33
54.330        60
54.340         7
54.350        13
54.360        13
54.370         7
54.380        13
54.390        13
54.400        20
54.410         7
54.420        13
54.430        27
54.440        20
54.450        27
54.460        33
54.470        27
54.480        27
54.490        20
54.500        13
54.510        20
54.520        53
54.530        33
54.540        20
54.550        27
54.560         7
54.570        20
54.580        33
54.590         0
54.600        47
54.610        40
54.620        20
54.630        20
54.640        40
54.650        20
54.660         7
54.670        13
54.680        13
54.690        20
54.700         0
54.710        13
54.720        13
54.730        13
54.740        20
54.750        27
54.760        20
54.770         7
54.780        20
54.790        13
54.800        20
54.810        27
54.820        33
54.830        27
54.840        13
54.850        33
54.860        33
54.870        13
54.880        47
54.890        33
54.900        40
54.910        20
54.920        27
54.930        13
54.940        40
54.950        13
54.960         7
54.970        20
54.980        13
54.990        13
55.000        13
55.010        33
55.020        13
55.030        20
55.040        13
55.050        33
55.060        20
55.070        27
55.080        13
55.090        13
55.100        20
55.110        13
55.120        13
55.130        20
55.140        20
55.150        20
55.160        20
55.170        20
55.180        20
55.190        20
55.200        13
55.210        13
55.220        13
55.230        20
55.240        33
55.250        40
55.260        53
55.270        33
55.280        27
55.290         7
55.300        27
55.310         7
55.320        40
55.330        13
55.340        27
55.350        20
55.360        20
55.370        27
55.380         0
55.390        20
55.400         7
55.410        33
55.420        27
55.430        33
55.440        27
55.450         7
55.460        27
55.470        20
55.480        20
55.490        27
55.500        13
55.510        13
55.520         7
55.530        20
55.540        20
55.550        40
55.560        20
55.570        33
55.580        27
55.590        27
55.600        27
55.610         7
55.620        13
55.630        27
55.640        33
55.650        13
55.660        13
55.670        20
55.680        13
55.690        20
55.700         0
55.710        27
55.720         7
55.730        13
55.740        33
55.750        20
55.760         7
55.770        53
55.780        13
55.790        47
55.800        33
55.810        40
55.820        20
55.830         7
55.840         7
55.850        20
55.860        13
55.870        20
55.880        20
55.890        13
55.900        33
55.910        40
55.920         7
55.930        20
55.940        13
55.950        13
55.960        40
55.970        40
55.980        20
55.990         7
56.000        20
56.010        20
56.020        27
56.030        13
56.040        27
56.050        13
56.060        13
56.070        20
56.080        33
56.090        27
56.100        27
56.110         7
56.120        27
56.130        27
56.140        27
56.150        13
56.160        20
56.170        13
56.180        27
56.190        13
56.200         7
56.210        13
56.220        33
56.230         0
56.240        27
56.250         7
56.260        13
56.270        13
56.280         7
56.290         0
56.300        27
56.310         7
56.320         7
56.330        20
56.340        33
56.350         7
56.360        40
56.370         0
56.380        20
56.390         0
56.400         7
56.410        13
56.420        20
56.430        20
56.440        13
56.450        20
56.460        13
56.470        20
56.480        33
56.490        20
56.500         7
56.510        13
56.520        20
56.530         0
56.540        20
56.550        33
56.560        27
56.570        13
56.580        13
56.590        20
56.600        40
56.610         0
56.620        40
56.630         7
56.640         7
56.650        13
56.660        13
56.670        20
56.680        20
56.690         0
56.700        13
56.710        13
56.720        20
56.730        27
56.740        13
56.750        13
56.760        27
56.770         7
56.780        20
56.790        20
56.800        13
56.810        13
56.820        40
56.830        13
56.840        27
56.850        13
56.860        20
56.870         0
56.880        27
56.890        27
56.900        27
56.910        20
56.920        27
56.930        13
56.940        27
56.950        40
56.960        27
56.970        27
56.980         7
56.990        27
57.000         7
57.010        20
57.020        13
57.030        33
57.040        13
57.050         0
57.060         0
57.070        13
57.080        13
57.090        13
57.100        20
57.110        13
57.120         7
57.130        33
57.140        20
57.150        27
57.160         7
57.170        13
57.180        20
57.190         7
57.200        13
57.210        33
57.220        13
57.230         7
57.240        13
57.250        13
57.260        27
57.270         7
57.280        13
57.290        13
57.300        20
57.310        20
57.320         7
57.330        13
57.340        27
57.350        27
57.360         7
57.370        40
57.380         0
57.390        33
57.400        13
57.410        13
57.420        20
57.430        33
57.440        33
57.450        20
57.460         7
57.470        13
57.480        20
57.490        20
57.500        20
57.510        13
57.520        13
57.530         7
57.540        13
57.550         7
57.560         7
57.570         7
57.580        40
57.590        13
57.600        13
57.610        13
57.620        20
57.630         7
57.640        13
57.650         7
57.660        13
57.670         7
57.680        27
57.690        13
57.700        20
57.710        13
57.720        13
57.730        20
57.740        47
57.750        33
57.760         7
57.770        13
57.780        13
57.790         7
57.800        33
57.810        27
57.820         7
57.830        20
57.840        33
57.850        20
57.860        27
57.870         0
57.880        20
57.890        27
57.900        53
57.910        40
57.920        13
57.930        20
57.940        20
57.950        20
57.960         0
57.970        27
57.980        20
57.990        20
58.000        13
58.010        13
58.020        27
58.030        13
58.040        33
58.050        33
58.060        20
58.070        27
58.080        40
58.090        13
58.100        27
58.110        13
58.120        13
58.130         0
58.140         0
58.150        33
58.160        27
58.170        13
58.180        40
58.190        40
58.200        33
58.210        20
58.220        20
58.230        27
58.240        33
58.250         0
58.260        20
58.270        33
58.280        13
58.290        13
58.300        20
58.310        27
58.320        27
58.330        27
58.340         7
58.350        27
58.360        20
58.370        33
58.380        20
58.390        27
58.400        33
58.410        13
58.420         7
58.430         0
58.440        13
58.450         7
58.460        13
58.470        27
58.480        13
58.490        20
58.500        33
58.510         7
58.520         0
58.530        13
58.540        20
58.550        13
58.560        20
58.570         7
58.580        20
58.590        33
58.600        20
58.610         7
58.620        20
58.630        33
58.640        27
58.650        40
58.660         0
58.670        20
58.680         7
58.690        13
58.700        13
58.710        13
58.720        13
58.730        13
58.740         7
58.750        13
58.760         7
58.770        27
58.780        13
58.790         7
58.800        13
58.810        13
58.820         7
58.830        13
58.840         0
58.850        13
58.860        20
58.870         0
58.880        33
58.890        33
58.900        33
58.910         7
58.920        13
58.930         7
58.940        20
58.950        33
58.960        13
58.970         7
58.980        13
58.990         7
59.000        13
59.010        13
59.020        20
59.030        20
59.040        33
59.050         7
59.060         7
59.070        20
59.080         7
59.090        20
59.100        27
59.110        27
59.120        33
59.130        27
59.140        13
59.150        13
59.160        13
59.170        20
59.180        20
59.190         0
59.200         7
59.210         0
59.220        27
59.230        13
59.240        13
59.250       100
59.260        20
59.270        40
59.280         7
59.290        13
59.300         7
59.310        33
59.320        13
59.330        27
59.340         7
59.350        20
59.360        13
59.370        20
59.380         0
59.390        13
59.400        13
59.410        27
59.420        27
59.430         0
59.440         7
59.450        40
59.460        27
59.470         7
59.480        20
59.490         7
59.500        13
59.510        40
59.520        20
59.530        27
59.540        20
59.550        20
59.560         0
59.570         7
59.580        20
59.590        20
59.600         7
59.610        20
59.620        20
59.630         7
59.640         7
59.650         0
59.660         0
59.670         7
59.680        13
59.690        20
59.700        13
59.710        20
59.720        27
59.730        13
59.740        13
59.750        20
59.760        20
59.770        27
59.780         7
59.790        20
59.800         7
59.810        13
59.820         7
59.830        13
59.840        20
59.850        20
59.860        33
59.870        13
59.880        27
59.890        20
59.900        20
59.910        27
59.920        27
59.930        27
59.940        13
59.950        13
59.960        27
59.970        13
59.980        13
59.990         7
60.000        20
