20.000        40
20.010        53
20.020        27
20.030        40
20.040        40
20.050        60
20.060        47
20.070        80
20.080        40
20.090        33
20.100        40
20.110        53
20.120        53
20.130        47
20.140        47
20.150        53
20.160        33
20.170        60
20.180        33
20.190        47
20.200        33
20.210        33
20.220        53
20.230        33
20.240         7
20.250        40
20.260        53
20.270        13
20.280        40
20.290        33
20.300        33
20.310        67
20.320        47
20.330        33
20.340        40
20.350        53
20.360        53
20.370        47
20.380        60
20.390        60
20.400        67
20.410        80
20.420        67
20.430        60
20.440        33
20.450        33
20.460        40
20.470        33
20.480        27
20.490        27
20.500        20
20.510        80
20.520        33
20.530        40
20.540        67
20.550        47
20.560        40
20.570        20
20.580        13
20.590        33
20.600        20
20.610        33
20.620        67
20.630        27
20.640        20
20.650        20
20.660        27
20.670        33
20.680        20
20.690        40
20.700        27
20.710        33
20.720        67
20.730        40
20.740        47
20.750        33
20.760        27
20.770        53
20.780        67
20.790        47
20.800        47
20.810        33
20.820        47
20.830        13
20.840        20
20.850        27
20.860        33
20.870        67
20.880        40
20.890        67
20.900        40
20.910        80
20.920        40
20.930        93
20.940        13
20.950        53
20.960        33
20.970        20
20.980        40
20.990        20
21.000        40
21.010        33
21.020        27
21.030        40
21.040        33
21.050        20
21.060         7
21.070        13
21.080         7
21.090        40
21.100         7
21.110        27
21.120        53
21.130        27
21.140        40
21.150        33
21.160        33
21.170        33
21.180        33
21.190        47
21.200        27
21.210        27
21.220        33
21.230        33
21.240        60
21.250        33
21.260        53
21.270        40
21.280        27
21.290        40
21.300        13
21.310        40
21.320        67
21.330        27
21.340        60
21.350        33
21.360        67
21.370        27
21.380        27
21.390        33
21.400        47
21.410        13
21.420        40
21.430        27
21.440        47
21.450        20
21.460        13
21.470        53
21.480        27
21.490        13
21.500        33
21.510        13
21.520        33
21.530        20
21.540        33
21.550        33
21.560        33
21.570         7
21.580        27
21.590        40
21.600        33
21.610        60
21.620        20
21.630        27
21.640        27
21.650        13
21.660        27
21.670        13
21.680        27
21.690        33
21.700        53
21.710        60
21.720        20
21.730        13
21.740        27
21.750        47
21.760        40
21.770        47
21.780        67
21.790        40
21.800        40
21.810         0
21.820        33
21.830        40
21.840        27
21.850        27
21.860        20
21.870        67
21.880        20
21.890        47
21.900        33
21.910        47
21.920        60
21.930        13
21.940        33
21.950        40
21.960        33
21.970        20
21.980         0
21.990        60
22.000        33
22.010        53
22.020        27
22.030        67
22.040        33
22.050        27
22.060        33
22.070        13
22.080        47
22.090        33
22.100        27
22.110        53
22.120        67
22.130        33
22.140        27
22.150        67
22.160        20
22.170        27
22.180        53
22.190        20
22.200        33
22.210        20
22.220        33
22.230        13
22.240        33
22.250        67
22.260        53
22.270        33
22.280        13
22.290        60
22.300        33
22.310        53
22.320        80
22.330        47
22.340        73
22.350        93
22.360        40
22.370        27
22.380        20
22.390        80
22.400        73
22.410        40
22.420        53
22.430        80
22.440        67
22.450        40
22.460        93
22.470        67
22.480       140
22.490        60
22.500       160
22.510       133
22.520       107
22.530       140
22.540       160
22.550       173
22.560       147
22.570       213
22.580       160
22.590       153
22.600       180
22.610       373
22.620       287
22.630       260
22.640       327
22.650       313
22.660       440
22.670       513
22.680       460
22.690       333
22.700       440
22.710       593
22.720       493
22.730       513
22.740       453
22.750       486
22.760       473
22.770       566
22.780       387
22.790       520
22.800       380
22.810       413
22.820       473
22.830       407
22.840       466
22.850       466
22.860       486
22.870       500
22.880       566
22.890       560
22.900       600
22.910       453
22.920       600
22.930       513
22.940       387
22.950       540
22.960       580
22.970       360
22.980       367
22.990       353
23.000       287
23.010       313
23.020       180
23.030       260
23.040       200
23.050       233
23.060       140
23.070       127
23.080       100
23.090        93
23.100        80
23.110        73
23.120        40
23.130        40
23.140       100
23.150        53
23.160        80
23.170        60
23.180        40
23.190        47
23.200        73
23.210        47
23.220        47
23.230        47
23.240        47
23.250        67
23.260        47
23.270        87
23.280        27
23.290        47
23.300        53
23.310        53
23.320        27
23.330        33
23.340        40
23.350        40
23.360        53
23.370        47
23.380        27
23.390        13
23.400        53
23.410        53
23.420        60
23.430        20
23.440        60
23.450        27
23.460        13
23.470        33
23.480        33
23.490        87
23.500        20
23.510        53
23.520        27
23.530        33
23.540        20
23.550        60
23.560        47
23.570        20
23.580        33
23.590        40
23.600        33
23.610        93
23.620        27
23.630        13
23.640        33
23.650        27
23.660        47
23.670        40
23.680        53
23.690        27
23.700        33
23.710        27
23.720        27
23.730        20
23.740        20
23.750        27
23.760        13
23.770         7
23.780        20
23.790        53
23.800        27
23.810        73
23.820        27
23.830        20
23.840        40
23.850         7
23.860        40
23.870        27
23.880        13
23.890        27
23.900        33
23.910        20
23.920        47
23.930        40
23.940        60
23.950        27
23.960        40
23.970        13
23.980        47
23.990        13
24.000        53
24.010        73
24.020        33
24.030        53
24.040        67
24.050        47
24.060        33
24.070        27
24.080        47
24.090        33
24.100        40
24.110        53
24.120        53
24.130        47
24.140        20
24.150        40
24.160        27
24.170        20
24.180        27
24.190        60
24.200        53
24.210        27
24.220        27
24.230        47
24.240        27
24.250        33
24.260         7
24.270        33
24.280        53
24.290        47
24.300        53
24.310        40
24.320        33
24.330        53
24.340        33
24.350        27
24.360        40
24.370        47
24.380        67
24.390        33
24.400        53
24.410        40
24.420        27
24.430        47
24.440        27
24.450        20
24.460        60
24.470        33
24.480        33
24.490        40
24.500         7
24.510        33
24.520        33
24.530        20
24.540        40
24.550        33
24.560        33
24.570        27
24.580        33
24.590        33
24.600        47
24.610        53
24.620        27
24.630        13
24.640        40
24.650        40
24.660        33
24.670        33
24.680        27
24.690        47
24.700        60
24.710        47
24.720        40
24.730        53
24.740        33
24.750        40
24.760        20
24.770        20
24.780        47
24.790        27
24.800        53
24.810        60
24.820        33
24.830        40
24.840        27
24.850        47
24.860         0
24.870        33
24.880         7
24.890        47
24.900        47
24.910        33
24.920        40
24.930        33
24.940        47
24.950        27
24.960        40
24.970        53
24.980        47
24.990        73
25.000        20
25.010        47
25.020        40
25.030        13
25.040        27
25.050        20
25.060        27
25.070        20
25.080        13
25.090        27
25.100        60
25.110        13
25.120        60
25.130        20
25.140        67
25.150        53
25.160        53
25.170        33
25.180        33
25.190         0
25.200        40
25.210        53
25.220        60
25.230        27
25.240        13
25.250        33
25.260        33
25.270        20
25.280        20
25.290        33
25.300        20
25.310        27
25.320        40
25.330        33
25.340        33
25.350        13
25.360        67
25.370        33
25.380        20
25.390        27
25.400        33
25.410        40
25.420        20
25.430        13
25.440        20
25.450        53
25.460        53
25.470        40
25.480        13
25.490         7
25.500        40
25.510        27
25.520        60
25.530        33
25.540        33
25.550        53
25.560        47
25.570        67
25.580        33
25.590        67
25.600        40
25.610        40
25.620        87
25.630        53
25.640        87
25.650        47
25.660        27
25.670        20
25.680        40
25.690        47
25.700        73
25.710        27
25.720        33
25.730        27
25.740        60
25.750        27
25.760        27
25.770        20
25.780        20
25.790        40
25.800        27
25.810        40
25.820        53
25.830        40
25.840        27
25.850        20
25.860        40
25.870        27
25.880         7
25.890        60
25.900        33
25.910        53
25.920        47
25.930        47
25.940        27
25.950        13
25.960         0
25.970        20
25.980         7
25.990        33
26.000        47
26.010        20
26.020        33
26.030        27
26.040        40
26.050        33
26.060        20
26.070        53
26.080        53
26.090        53
26.100        27
26.110        27
26.120        40
26.130        60
26.140        53
26.150        40
26.160        40
26.170        47
26.180        33
26.190        20
26.200        47
26.210        47
26.220        13
26.230        33
26.240         7
26.250        27
26.260        20
26.270        27
26.280        33
26.290        47
26.300        53
26.310        27
26.320        47
26.330        53
26.340        27
26.350        33
26.360        27
26.370        20
26.380        13
26.390        33
26.400        13
26.410        27
26.420        27
26.430        40
26.440        20
26.450        33
26.460        20
26.470        33
26.480        40
26.490        13
26.500        40
26.510        60
26.520        20
26.530        27
26.540        33
26.550        20
26.560        13
26.570        53
26.580        27
26.590        27
26.600        40
26.610        27
26.620        27
26.630        60
26.640        33
26.650        40
26.660        33
26.670        13
26.680         7
26.690        13
26.700        27
26.710        27
26.720        47
26.730        20
26.740        27
26.750        27
26.760        40
26.770        27
26.780        33
26.790        20
26.800        27
26.810        13
26.820        27
26.830        13
26.840        20
26.850        40
26.860         7
26.870        27
26.880        40
26.890        40
26.900        67
26.910        33
26.920        27
26.930        53
26.940        73
26.950        13
26.960        40
26.970        33
26.980        40
26.990        33
27.000        27
27.010        33
27.020        20
27.030        13
27.040        40
27.050        47
27.060        27
27.070        33
27.080         7
27.090        20
27.100        20
27.110        27
27.120        47
27.130        27
27.140        13
27.150        40
27.160        27
27.170        27
27.180        27
27.190        33
27.200        20
27.210        40
27.220        27
27.230        40
27.240        27
27.250         7
27.260         7
27.270        13
27.280        47
27.290        27
27.300        27
27.310        27
27.320        27
27.330        33
27.340        13
27.350        20
27.360        27
27.370        47
27.380        13
27.390        13
27.400        20
27.410        20
27.420        27
27.430        47
27.440        40
27.450        40
27.460        27
27.470         7
27.480        20
27.490        27
27.500        20
27.510        33
27.520        40
27.530        33
27.540        13
27.550        20
27.560        20
27.570        40
27.580        13
27.590        13
27.600        33
27.610        13
27.620        33
27.630        27
27.640        20
27.650        13
27.660        40
27.670        13
27.680        53
27.690        33
27.700        33
27.710        27
27.720        47
27.730        40
27.740        13
27.750        60
27.760        13
27.770        13
27.780        40
27.790        27
27.800        27
27.810         0
27.820        20
27.830        27
27.840        13
27.850        40
27.860        33
27.870        27
27.880        33
27.890         7
27.900        33
27.910         7
27.920        20
27.930        33
27.940        47
27.950        33
27.960        20
27.970        27
27.980        53
27.990        20
28.000         7
28.010        40
28.020        40
28.030        33
28.040        40
28.050        13
28.060        33
28.070        33
28.080        27
28.090        20
28.100        27
28.110        27
28.120         7
28.130        20
28.140        47
28.150        53
28.160        53
28.170        53
28.180        20
28.190        53
28.200        33
28.210        40
28.220         7
28.230        27
28.240        13
28.250         7
28.260        60
28.270        40
28.280        53
28.290        40
28.300        40
28.310        47
28.320        40
28.330        27
28.340        27
28.350        20
28.360        20
28.370        27
28.380        20
28.390        47
28.400        20
28.410        53
28.420        27
28.430        67
28.440         7
28.450        27
28.460        13
28.470        33
28.480        47
28.490        27
28.500        33
28.510         7
28.520        53
28.530        27
28.540        33
28.550         0
28.560        33
28.570        33
28.580        27
28.590        27
28.600        13
28.610        33
28.620        33
28.630        40
28.640        47
28.650        33
28.660        47
28.670        60
28.680        33
28.690        33
28.700        47
28.710        33
28.720        67
28.730        20
28.740        80
28.750        47
28.760        67
28.770        47
28.780        73
28.790        47
28.800       120
28.810        73
28.820        60
28.830        33
28.840        73
28.850        40
28.860       113
28.870       127
28.880       100
28.890        60
28.900       113
28.910        87
28.920       153
28.930       153
28.940       153
28.950        93
28.960       100
28.970       147
28.980       140
28.990       100
29.000       127
29.010       107
29.020       140
29.030       187
29.040       193
29.050       153
29.060        87
29.070       133
29.080       120
29.090       127
29.100       113
29.110        80
29.120       100
29.130        73
29.140        53
29.150       100
29.160        33
29.170        67
29.180        33
29.190        87
29.200        73
29.210        73
29.220        53
29.230        47
29.240        80
29.250        53
29.260        27
29.270        40
29.280        33
29.290        47
29.300        20
29.310        47
29.320        67
29.330        27
29.340        47
29.350        40
29.360        67
29.370        40
29.380        27
29.390        53
29.400        47
29.410        27
29.420        13
29.430        53
29.440        60
29.450        40
29.460        40
29.470        20
29.480        20
29.490        20
29.500        13
29.510        13
29.520        27
29.530        33
29.540        53
29.550        40
29.560        27
29.570        40
29.580        40
29.590        20
29.600        13
29.610        33
29.620        47
29.630        13
29.640        40
29.650        33
29.660        33
29.670        13
29.680        20
29.690        33
29.700        27
29.710        53
29.720        20
29.730        40
29.740         7
29.750        33
29.760        20
29.770        40
29.780        40
29.790        20
29.800        40
29.810        27
29.820        27
29.830        33
29.840        53
29.850        27
29.860         7
29.870        13
29.880        27
29.890        27
29.900        20
29.910        27
29.920        20
29.930        27
29.940        13
29.950         7
29.960        27
29.970        20
29.980        20
29.990        60
30.000        27
30.010        27
30.020        27
30.030        27
30.040        27
30.050        33
30.060        20
30.070        33
30.080        27
30.090        27
30.100        27
30.110        13
30.120        20
30.130        27
30.140        13
30.150        20
30.160        20
30.170        27
30.180        27
30.190        33
30.200        20
30.210        20
30.220        33
30.230        20
30.240        20
30.250        33
30.260        33
30.270        47
30.280        20
30.290        33
30.300        13
30.310        20
30.320        47
30.330        13
30.340        20
30.350        33
30.360        67
30.370        13
30.380        20
30.390        33
30.400        33
30.410        13
30.420        40
30.430        40
30.440        47
30.450         7
30.460        33
30.470        13
30.480        27
30.490        33
30.500        40
30.510        40
30.520        47
30.530        13
30.540        13
30.550        20
30.560        47
30.570        20
30.580        53
30.590        20
30.600        27
30.610        27
30.620        47
30.630        27
30.640        27
30.650        47
30.660        27
30.670        20
30.680         7
30.690        13
30.700        20
30.710        47
30.720        40
30.730        27
30.740        13
30.750        33
30.760        27
30.770        27
30.780        20
30.790        27
30.800        40
30.810        13
30.820        27
30.830        20
30.840        20
30.850         7
30.860         7
30.870        33
30.880         7
30.890        20
30.900        13
30.910        27
30.920        40
30.930        27
30.940        20
30.950        13
30.960        33
30.970        40
30.980        20
30.990        47
31.000        47
31.010        13
31.020         7
31.030        33
31.040        13
31.050        27
31.060        27
31.070        47
31.080        47
31.090        33
31.100        47
31.110        27
31.120        40
31.130        40
31.140         7
31.150        47
31.160        67
31.170        67
31.180        47
31.190        13
31.200        73
31.210        33
31.220        80
31.230        53
31.240        20
31.250        20
31.260        27
31.270        47
31.280        80
31.290        20
31.300        73
31.310        33
31.320        33
31.330        13
31.340        20
31.350        27
31.360        33
31.370        67
31.380        20
31.390        20
31.400        40
31.410        47
31.420        47
31.430        27
31.440        33
31.450        13
31.460        33
31.470        20
31.480        47
31.490        27
31.500        33
31.510        33
31.520        33
31.530        33
31.540        13
31.550        47
31.560        27
31.570        33
31.580        20
31.590        27
31.600        13
31.610         7
31.620        20
31.630         7
31.640        20
31.650        20
31.660        40
31.670        20
31.680        27
31.690        13
31.700        20
31.710        13
31.720        27
31.730        27
31.740         7
31.750        13
31.760        13
31.770        20
31.780        20
31.790         7
31.800        20
31.810        33
31.820         7
31.830        13
31.840        27
31.850        33
31.860        27
31.870        27
31.880        27
31.890        13
31.900        27
31.910        33
31.920        33
31.930        33
31.940        33
31.950        27
31.960        13
31.970         7
31.980        13
31.990         7
32.000        27
32.010        13
32.020        47
32.030        33
32.040        13
32.050        33
32.060        47
32.070        20
32.080        20
32.090        20
32.100         0
32.110        13
32.120        47
32.130        40
32.140         7
32.150        33
32.160        27
32.170        53
32.180        20
32.190        27
32.200         7
32.210        13
32.220        53
32.230        47
32.240        20
32.250        20
32.260        20
32.270         7
32.280        20
32.290        33
32.300        33
32.310        33
32.320        47
32.330        40
32.340        33
32.350        27
32.360        27
32.370         0
32.380        20
32.390        47
32.400        33
32.410        40
32.420        20
32.430        27
32.440         7
32.450        13
32.460        20
32.470        47
32.480        20
32.490        47
32.500        47
32.510        13
32.520        27
32.530        60
32.540        27
32.550        13
32.560        27
32.570        33
32.580        40
32.590        40
32.600        47
32.610        33
32.620        40
32.630        60
32.640        27
32.650        53
32.660        53
32.670        87
32.680        67
32.690        47
32.700        40
32.710        40
32.720        87
32.730        40
32.740        47
32.750        67
32.760        40
32.770        47
32.780        33
32.790        47
32.800        40
32.810        67
32.820        33
32.830        40
32.840        47
32.850        40
32.860        20
32.870        13
32.880        33
32.890        20
32.900        27
32.910        20
32.920        13
32.930        20
32.940        27
32.950        27
32.960        33
32.970        27
32.980        27
32.990        47
33.000        20
33.010        13
33.020         7
33.030        40
33.040        40
33.050        27
33.060        33
33.070        20
33.080        13
33.090        27
33.100        20
33.110        20
33.120        33
33.130        33
33.140         7
33.150        20
33.160        20
33.170        20
33.180        40
33.190        27
33.200        53
33.210        27
33.220        13
33.230         0
33.240         7
33.250        27
33.260        27
33.270        47
33.280         7
33.290        20
33.300        40
33.310        13
33.320        20
33.330        20
33.340        20
33.350        27
33.360        27
33.370        27
33.380        33
33.390        27
33.400        27
33.410        33
33.420        20
33.430        53
33.440         7
33.450        13
33.460        13
33.470        33
33.480         7
33.490        20
33.500        33
33.510        27
33.520        20
33.530        20
33.540        33
33.550         0
33.560        20
33.570        20
33.580        33
33.590         7
33.600        40
33.610         0
33.620         7
33.630        40
33.640        33
33.650         7
33.660        13
33.670        27
33.680        13
33.690        20
33.700        27
33.710         7
33.720        20
33.730        20
33.740        20
33.750        40
33.760        33
33.770        20
33.780        20
33.790        40
33.800         7
33.810         7
33.820        20
33.830        13
33.840         0
33.850         7
33.860        27
33.870        40
33.880         0
33.890        20
33.900         0
33.910        47
33.920        13
33.930        20
33.940        40
33.950         7
33.960        33
33.970        27
33.980         0
33.990        47
34.000        13
34.010        40
34.020        20
34.030        40
34.040        13
34.050        27
34.060        13
34.070        20
34.080        27
34.090         7
34.100        13
34.110        27
34.120        13
34.130        20
34.140        13
34.150        20
34.160        33
34.170         7
34.180        20
34.190        13
34.200         7
34.210         7
34.220        20
34.230        40
34.240        27
34.250        13
34.260        13
34.270        33
34.280        13
34.290        20
34.300         0
34.310        40
34.320        13
34.330        20
34.340        13
34.350        40
34.360         7
34.370        27
34.380        53
34.390        20
34.400        20
34.410        33
34.420        40
34.430        13
34.440        13
34.450         7
34.460         7
34.470        47
34.480        20
34.490        20
34.500         7
34.510        20
34.520        20
34.530        47
34.540        20
34.550        20
34.560        13
34.570        13
34.580        13
34.590        13
34.600        20
34.610        20
34.620        20
34.630        20
34.640        13
34.650        20
34.660        47
34.670        40
34.680        27
34.690         7
34.700        47
34.710        27
34.720        33
34.730        27
34.740         7
34.750        27
34.760        27
34.770        20
34.780        47
34.790        20
34.800        20
34.810        67
34.820        27
34.830        47
34.840        20
34.850        20
34.860        33
34.870        13
34.880        33
34.890        27
34.900        47
34.910        20
34.920        20
34.930        27
34.940        33
34.950        33
34.960         7
34.970        27
34.980        40
34.990        27
35.000        13
35.010        40
35.020        13
35.030        20
35.040        13
35.050        13
35.060         7
35.070        40
35.080        27
35.090         0
35.100        20
35.110        13
35.120        20
35.130        20
35.140        27
35.150        20
35.160        27
35.170         0
35.180         7
35.190         7
35.200         7
35.210         7
35.220        20
35.230        20
35.240        40
35.250        13
35.260        27
35.270         7
35.280        27
35.290        20
35.300         7
35.310         0
35.320        20
35.330         0
35.340        27
35.350        27
35.360        27
35.370         7
35.380         0
35.390         7
35.400        13
35.410         7
35.420         0
35.430        40
35.440        20
35.450        20
35.460         0
35.470        13
35.480        20
35.490        33
35.500        27
35.510        33
35.520         0
35.530        13
35.540        27
35.550        27
35.560        13
35.570        20
35.580         7
35.590        47
35.600        13
35.610         7
35.620         7
35.630         7
35.640        27
35.650        27
35.660        20
35.670        20
35.680        20
35.690        27
35.700        20
35.710        20
35.720        47
35.730        13
35.740         0
35.750        27
35.760        27
35.770        13
35.780        33
35.790        33
35.800        13
35.810        47
35.820         7
35.830        13
35.840        20
35.850        33
35.860         7
35.870        27
35.880        33
35.890        40
35.900         7
35.910        20
35.920        13
35.930         7
35.940        40
35.950        27
35.960        20
35.970        40
35.980         7
35.990        13
36.000        40
36.010        33
36.020         7
36.030         7
36.040        20
36.050         0
36.060        20
36.070        13
36.080        33
36.090         7
36.100        13
36.110        20
36.120        13
36.130        27
36.140        20
36.150        20
36.160        20
36.170        13
36.180        20
36.190        20
36.200         7
36.210        13
36.220         7
36.230        13
36.240        13
36.250         7
36.260        27
36.270        20
36.280         7
36.290        27
36.300        27
36.310        20
36.320        27
36.330        20
36.340        47
36.350         7
36.360        20
36.370        20
36.380        20
36.390        27
36.400        27
36.410        27
36.420         7
36.430        13
36.440        20
36.450        47
36.460        40
36.470        13
36.480        13
36.490        47
36.500        27
36.510        33
36.520        27
36.530        20
36.540         7
36.550        40
36.560        13
36.570        33
36.580        20
36.590        20
36.600        20
36.610        13
36.620        13
36.630        53
36.640        13
36.650        40
36.660        13
36.670         7
36.680        13
36.690        13
36.700        27
36.710        13
36.720        20
36.730         7
36.740        27
36.750        33
36.760         7
36.770        20
36.780        20
36.790        27
36.800        13
36.810         0
36.820        27
36.830         0
36.840         7
36.850        33
36.860        13
36.870        20
36.880        13
36.890         7
36.900         7
36.910        40
36.920         0
36.930        33
36.940        13
36.950         7
36.960         7
36.970        33
36.980        20
36.990        13
37.000         0
37.010        13
37.020        47
37.030        20
37.040        27
37.050        20
37.060        27
37.070        27
37.080        13
37.090        20
37.100        27
37.110         0
37.120        27
37.130         7
37.140         7
37.150        20
37.160        20
37.170        27
37.180        20
37.190         7
37.200        47
37.210         7
37.220        27
37.230        13
37.240         7
37.250        13
37.260        13
37.270        20
37.280        13
37.290        47
37.300        33
37.310        20
37.320         7
37.330        13
37.340         0
37.350        13
37.360         7
37.370        33
37.380        13
37.390        27
37.400        40
37.410        33
37.420        27
37.430        27
37.440         7
37.450        13
37.460        47
37.470        27
37.480        13
37.490        27
37.500        20
37.510        13
37.520        20
37.530        13
37.540        20
37.550         7
37.560        27
37.570        27
37.580        33
37.590        13
37.600         7
37.610         0
37.620        33
37.630         7
37.640        13
37.650         7
37.660        13
37.670         0
37.680        13
37.690        33
37.700         7
37.710        13
37.720        33
37.730        20
37.740         0
37.750         7
37.760        33
37.770        13
37.780         7
37.790        13
37.800         7
37.810        20
37.820        20
37.830        13
37.840        33
37.850        33
37.860        13
37.870        20
37.880         0
37.890         0
37.900        20
37.910         0
37.920         0
37.930         0
37.940        53
37.950        27
37.960        27
37.970        13
37.980        13
37.990        53
38.000        13
38.010        13
38.020        27
38.030        27
38.040        20
38.050        13
38.060        13
38.070        20
38.080         0
38.090        13
38.100        13
38.110        20
38.120        13
38.130        20
38.140         7
38.150        20
38.160         7
38.170         7
38.180        33
38.190         7
38.200        13
38.210        20
38.220        27
38.230         7
38.240        20
38.250         0
38.260        20
38.270        13
38.280        40
38.290         7
38.300        20
38.310        27
38.320        40
38.330        27
38.340        20
38.350        20
38.360        27
38.370        27
38.380        20
38.390        13
38.400        13
38.410        33
38.420        20
38.430        33
38.440        27
38.450        47
38.460         7
38.470        13
38.480        13
38.490        13
38.500        27
38.510        20
38.520        20
38.530        13
38.540        20
38.550        13
38.560        13
38.570        27
38.580        20
38.590        27
38.600        20
38.610        20
38.620         7
38.630        47
38.640         0
38.650         7
38.660        27
38.670        13
38.680         7
38.690         0
38.700        40
38.710        13
38.720         0
38.730        20
38.740        20
38.750        33
38.760        13
38.770         7
38.780         7
38.790         7
38.800        13
38.810        13
38.820        20
38.830        40
38.840        33
38.850         0
38.860         7
38.870        13
38.880        13
38.890         7
38.900         7
38.910         7
38.920        13
38.930        13
38.940         0
38.950         0
38.960        20
38.970        13
38.980        20
38.990        13
39.000         7
39.010        13
39.020        27
39.030         7
39.040         0
39.050        20
39.060        27
39.070         7
39.080        13
39.090        40
39.100         7
39.110         0
39.120         7
39.130        13
39.140        47
39.150        53
39.160        20
39.170         7
39.180        33
39.190        33
39.200        27
39.210        20
39.220        33
39.230         7
39.240        13
39.250        27
39.260        27
39.270        27
39.280        13
39.290        20
39.300         7
39.310        27
39.320        40
39.330        27
39.340         7
39.350        20
39.360        13
39.370         7
39.380        13
39.390        20
39.400        40
39.410         7
39.420        27
39.430        60
39.440        20
39.450        20
39.460        13
39.470        13
39.480         7
39.490         7
39.500        27
39.510        27
39.520        13
39.530        27
39.540        53
39.550        20
39.560         7
39.570        20
39.580        27
39.590        20
39.600        20
39.610        27
39.620        27
39.630        13
39.640        27
39.650        20
39.660        13
39.670        13
39.680         0
39.690        20
39.700         0
39.710        13
39.720        27
39.730        20
39.740        20
39.750        20
39.760        27
39.770         7
39.780        13
39.790        13
39.800         7
39.810        20
39.820        27
39.830        27
39.840        20
39.850        27
39.860        33
39.870        13
39.880        33
39.890        27
39.900        27
39.910        33
39.920        20
39.930        27
39.940        40
39.950        53
39.960        33
39.970        13
39.980         7
39.990        73
40.000        40
40.010        33
40.020        27
40.030        27
40.040        40
40.050        67
40.060        27
40.070        33
40.080        40
40.090        27
40.100         7
40.110        53
40.120        47
40.130        40
40.140        53
40.150        33
40.160        20
40.170        73
40.180        47
40.190       100
40.200        67
40.210        33
40.220        67
40.230        53
40.240       113
40.250        47
40.260        60
40.270        73
40.280        73
40.290       100
40.300        87
40.310        53
40.320        73
40.330        93
40.340        87
40.350        93
40.360       107
40.370       113
40.380        87
40.390       113
40.400        93
40.410        93
40.420        87
40.430        80
40.440       107
40.450        53
40.460       127
40.470        93
40.480        73
40.490        73
40.500        47
40.510        73
40.520        47
40.530        60
40.540        33
40.550        40
40.560        67
40.570        27
40.580        33
40.590        20
40.600        53
40.610        53
40.620        27
40.630        20
40.640        20
40.650        27
40.660        40
40.670        40
40.680        33
40.690        40
40.700        13
40.710        20
40.720        13
40.730        27
40.740        13
40.750        47
40.760        40
40.770        40
40.780        13
40.790        40
40.800         0
40.810        33
40.820         0
40.830        27
40.840        27
40.850        20
40.860        20
40.870         7
40.880        27
40.890        13
40.900        33
40.910        27
40.920        33
40.930        13
40.940        20
40.950        13
40.960        20
40.970        20
40.980        27
40.990        20
41.000        60
41.010        13
41.020         7
41.030         7
41.040        13
41.050        27
41.060        20
41.070        20
41.080        20
41.090        27
41.100        20
41.110        20
41.120        20
41.130         7
41.140        13
41.150        20
41.160        20
41.170        20
41.180         7
41.190        27
41.200        33
41.210         7
41.220        20
41.230        20
41.240        33
41.250         7
41.260         7
41.270        27
41.280        27
41.290        27
41.300        40
41.310        20
41.320        13
41.330        27
41.340        20
41.350        53
41.360        33
41.370        27
41.380         0
41.390        27
41.400        47
41.410        33
41.420        20
41.430        40
41.440        13
41.450        47
41.460        27
41.470        13
41.480        40
41.490         7
41.500        13
41.510        27
41.520         7
41.530        13
41.540        13
41.550        47
41.560        33
41.570        13
41.580        33
41.590        53
41.600        13
41.610         7
41.620        27
41.630         7
41.640        27
41.650        20
41.660        33
41.670        13
41.680        20
41.690        27
41.700        40
41.710        13
41.720        27
41.730        27
41.740        27
41.750        20
41.760        27
41.770        13
41.780        20
41.790        20
41.800        13
41.810        33
41.820        20
41.830         7
41.840        13
41.850        27
41.860        40
41.870        13
41.880        27
41.890        27
41.900        27
41.910        20
41.920         7
41.930         7
41.940        33
41.950        20
41.960        20
41.970        27
41.980        20
41.990        20
42.000        40
42.010        27
42.020        27
42.030        13
42.040         7
42.050        27
42.060        27
42.070        40
42.080        40
42.090        20
42.100         7
42.110        27
42.120        13
42.130        40
42.140        20
42.150        20
42.160        20
42.170        27
42.180        13
42.190        33
42.200        27
42.210         7
42.220        13
42.230        47
42.240        13
42.250        13
42.260        13
42.270        33
42.280         0
42.290        20
42.300        13
42.310        13
42.320        20
42.330        13
42.340        13
42.350        27
42.360        13
42.370        20
42.380         0
42.390         0
42.400        20
42.410        20
42.420        27
42.430         7
42.440        13
42.450        27
42.460        13
42.470        13
42.480        13
42.490        13
42.500        20
42.510        13
42.520        20
42.530        47
42.540        13
42.550        27
42.560        13
42.570        20
42.580        20
42.590        40
42.600        13
42.610        13
42.620        13
42.630         7
42.640        27
42.650        27
42.660        13
42.670         0
42.680        13
42.690         7
42.700        13
42.710        13
42.720         0
42.730         0
42.740        27
42.750        27
42.760        27
42.770        13
42.780        13
42.790        13
42.800        20
42.810        13
42.820        20
42.830        33
42.840        33
42.850        13
42.860         7
42.870         7
42.880        27
42.890        13
42.900        27
42.910        20
42.920        27
42.930        27
42.940         0
42.950         0
42.960         7
42.970        27
42.980        20
42.990         7
43.000        20
43.010        40
43.020        13
43.030        33
43.040        13
43.050        20
43.060        40
43.070        20
43.080        27
43.090        13
43.100        27
43.110         7
43.120        13
43.130        27
43.140        33
43.150        33
43.160         7
43.170        53
43.180        20
43.190        13
43.200        20
43.210         0
43.220        20
43.230        13
43.240         7
43.250        20
43.260         7
43.270        27
43.280         7
43.290         7
43.300        27
43.310        20
43.320        20
43.330         7
43.340        40
43.350        13
43.360        20
43.370         7
43.380         0
43.390        13
43.400        33
43.410        13
43.420        20
43.430        13
43.440        40
43.450        27
43.460        47
43.470        33
43.480        13
43.490        20
43.500        33
43.510        20
43.520        13
43.530        33
43.540        13
43.550        27
43.560        13
43.570        27
43.580        20
43.590         0
43.600        33
43.610        13
43.620        20
43.630        13
43.640        27
43.650        40
43.660        13
43.670        40
43.680        33
43.690        20
43.700        20
43.710        40
43.720        20
43.730        13
43.740        53
43.750        33
43.760         7
43.770        13
43.780        27
43.790        13
43.800        13
43.810         7
43.820        13
43.830        13
43.840         7
43.850        13
43.860        40
43.870        33
43.880        13
43.890        20
43.900        27
43.910        33
43.920        33
43.930        20
43.940         7
43.950        13
43.960        20
43.970        20
43.980        27
43.990        27
44.000        27
44.010         7
44.020        27
44.030        20
44.040        13
44.050         0
44.060         7
44.070        27
44.080        33
44.090         7
44.100        27
44.110        20
44.120        13
44.130        27
44.140        20
44.150        40
44.160         7
44.170         7
44.180        60
44.190        20
44.200        40
44.210        13
44.220        33
44.230        27
44.240        47
44.250        40
44.260        33
44.270        40
44.280        40
44.290        27
44.300        60
44.310        20
44.320        27
44.330        33
44.340        13
44.350        27
44.360        20
44.370        20
44.380         7
44.390        27
44.400        13
44.410        27
44.420        13
44.430        27
44.440        27
44.450        40
44.460        27
44.470        20
44.480        20
44.490        13
44.500         7
44.510        20
44.520         7
44.530        20
44.540         7
44.550        33
44.560        13
44.570         7
44.580        20
44.590        27
44.600        20
44.610        40
44.620        60
44.630         7
44.640         7
44.650        27
44.660         7
44.670         7
44.680         0
44.690        20
44.700        20
44.710        13
44.720        33
44.730        13
44.740        20
44.750        27
44.760        13
44.770        20
44.780        40
44.790        27
44.800        13
44.810        27
44.820        33
44.830        33
44.840        33
44.850        13
44.860        67
44.870         0
44.880        33
44.890        13
44.900        20
44.910        27
44.920        33
44.930         0
44.940        13
44.950        33
44.960        13
44.970        27
44.980        20
44.990        13
45.000        27
45.010        20
45.020        33
45.030        33
45.040        20
45.050        33
45.060         7
45.070        13
45.080        27
45.090        27
45.100        27
45.110         7
45.120        13
45.130        47
45.140        27
45.150        33
45.160        40
45.170        47
45.180        13
45.190        60
45.200        13
45.210        47
45.220        13
45.230        33
45.240        13
45.250        20
45.260        40
45.270        67
45.280         7
45.290        33
45.300        33
45.310        27
45.320        13
45.330        40
45.340        27
45.350         7
45.360         7
45.370        33
45.380        27
45.390        33
45.400        13
45.410        27
45.420        27
45.430         7
45.440        40
45.450        20
45.460        47
45.470        40
45.480        67
45.490        40
45.500        33
45.510        40
45.520        73
45.530        27
45.540        47
45.550        27
45.560        40
45.570        47
45.580        40
45.590         7
45.600        20
45.610        13
45.620        53
45.630        53
45.640        47
45.650        40
45.660        47
45.670        60
45.680        27
45.690        67
45.700        47
45.710        47
45.720        53
45.730        73
45.740        87
45.750        60
45.760        60
45.770        60
45.780        40
45.790        40
45.800        53
45.810        87
45.820        80
45.830        67
45.840       100
45.850       113
45.860        53
45.870       113
45.880        53
45.890       107
45.900       107
45.910       127
45.920        80
45.930       107
45.940       160
45.950       127
45.960       153
45.970       127
45.980       120
45.990       147
46.000       207
46.010       160
46.020       200
46.030       220
46.040       213
46.050       293
46.060       207
46.070       253
46.080       200
46.090       240
46.100       353
46.110       367
46.120       393
46.130       300
46.140       466
46.150       426
46.160       433
46.170       486
46.180       393
46.190       666
46.200       493
46.210       586
46.220       526
46.230       520
46.240       700
46.250       626
46.260       613
46.270       606
46.280       666
46.290       740
46.300       720
46.310       793
46.320       713
46.330       800
46.340       966
46.350       833
46.360       813
46.370       773
46.380       793
46.390       653
46.400       753
46.410       626
46.420       586
46.430       646
46.440       680
46.450       613
46.460       593
46.470       560
46.480       600
46.490       520
46.500       520
46.510       606
46.520       480
46.530       513
46.540       553
46.550       493
46.560       453
46.570       520
46.580       533
46.590       506
46.600       466
46.610       520
46.620       566
46.630       546
46.640       480
46.650       526
46.660       573
46.670       560
46.680       460
46.690       700
46.700       613
46.710       640
46.720       613
46.730       553
46.740       680
46.750       673
46.760       613
46.770       513
46.780       660
46.790       573
46.800       620
46.810       560
46.820       566
46.830       526
46.840       660
46.850       413
46.860       526
46.870       426
46.880       486
46.890       433
46.900       353
46.910       413
46.920       400
46.930       327
46.940       340
46.950       347
46.960       347
46.970       280
46.980       247
46.990       247
47.000       227
47.010       160
47.020       240
47.030       187
47.040       187
47.050       160
47.060       160
47.070       127
47.080       113
47.090       120
47.100       133
47.110       133
47.120       120
47.130       153
47.140        73
47.150        87
47.160        87
47.170        73
47.180        87
47.190        40
47.200       127
47.210        60
47.220        80
47.230        67
47.240        60
47.250        53
47.260        53
47.270        33
47.280        67
47.290        60
47.300        33
47.310        53
47.320        47
47.330        60
47.340        47
47.350        33
47.360        80
47.370        40
47.380        40
47.390        53
47.400        27
47.410        33
47.420        27
47.430        53
47.440        53
47.450        13
47.460        13
47.470        73
47.480        13
47.490        60
47.500        33
47.510        47
47.520        27
47.530        13
47.540        40
47.550        33
47.560        13
47.570        27
47.580        33
47.590        40
47.600        33
47.610        27
47.620        33
47.630        33
47.640        40
47.650        40
47.660        40
47.670        33
47.680        13
47.690        27
47.700        33
47.710        67
47.720        47
47.730        27
47.740        47
47.750        27
47.760        27
47.770        27
47.780        27
47.790        40
47.800        20
47.810        40
47.820        20
47.830        47
47.840        53
47.850        80
47.860        33
47.870        27
47.880        20
47.890        27
47.900        27
47.910        13
47.920        27
47.930        27
47.940        27
47.950        20
47.960        27
47.970        27
47.980        27
47.990        33
48.000        20
48.010        20
48.020        27
48.030        40
48.040        60
48.050        47
48.060        13
48.070         0
48.080        20
48.090        33
48.100        27
48.110         7
48.120        20
48.130        13
48.140        20
48.150        33
48.160         7
48.170        27
48.180        20
48.190        47
48.200        27
48.210         0
48.220        13
48.230         0
48.240        27
48.250        27
48.260        20
48.270        27
48.280        20
48.290        33
48.300        40
48.310        33
48.320        20
48.330        20
48.340        13
48.350        27
48.360        13
48.370        13
48.380        20
48.390        47
48.400        33
48.410        40
48.420        20
48.430        33
48.440        13
48.450        33
48.460        33
48.470        20
48.480        20
48.490        53
48.500        27
48.510        40
48.520        40
48.530        40
48.540        33
48.550        20
48.560        33
48.570        60
48.580        33
48.590        33
48.600         7
48.610         7
48.620        27
48.630        20
48.640         7
48.650         7
48.660        33
48.670        20
48.680        27
48.690        27
48.700        33
48.710        33
48.720        27
48.730        27
48.740        27
48.750         7
48.760        27
48.770        27
48.780         7
48.790        47
48.800        20
48.810        33
48.820        20
48.830        20
48.840        13
48.850        20
48.860         7
48.870        40
48.880        27
48.890        47
48.900         0
48.910        20
48.920         7
48.930        27
48.940        13
48.950        27
48.960        13
48.970        27
48.980         7
48.990        33
49.000        13
49.010        20
49.020        13
49.030        47
49.040         7
49.050        33
49.060        13
49.070        27
49.080        27
49.090        20
49.100         7
49.110        13
49.120        20
49.130        33
49.140        20
49.150         7
49.160        40
49.170        27
49.180        20
49.190        20
49.200        13
49.210         7
49.220        13
49.230        33
49.240        27
49.250        13
49.260        13
49.270         7
49.280        33
49.290        40
49.300        53
49.310        20
49.320        20
49.330        27
49.340        13
49.350        27
49.360        20
49.370        27
49.380        33
49.390        20
49.400        20
49.410        20
49.420        27
49.430        13
49.440        33
49.450        20
49.460        13
49.470        27
49.480        20
49.490        20
49.500        33
49.510         7
49.520        47
49.530        20
49.540        13
49.550        40
49.560        13
49.570        40
49.580        33
49.590        20
49.600         7
49.610        33
49.620        67
49.630        53
49.640        33
49.650        13
49.660        33
49.670        40
49.680        33
49.690        33
49.700        27
49.710        40
49.720        33
49.730        33
49.740        13
49.750         7
49.760        53
49.770        40
49.780        67
49.790        20
49.800        60
49.810       107
49.820        47
49.830        27
49.840        20
49.850        20
49.860        47
49.870        13
49.880        53
49.890        67
49.900        47
49.910        73
49.920        47
49.930       113
49.940        13
49.950        60
49.960        67
49.970        20
49.980        20
49.990        40
50.000        47
50.010        40
50.020        53
50.030        47
50.040        53
50.050        53
50.060        33
50.070        47
50.080        33
50.090        40
50.100        53
50.110        40
50.120         7
50.130        60
50.140        33
50.150         7
50.160        27
50.170        60
50.180        60
50.190        27
50.200        13
50.210        27
50.220        27
50.230        40
50.240        60
50.250        20
50.260        20
50.270        53
50.280        20
50.290        13
50.300        27
50.310        20
50.320        60
50.330        53
50.340        20
50.350        27
50.360        33
50.370        33
50.380         7
50.390        40
50.400        33
50.410        20
50.420        27
50.430        27
50.440        40
50.450        53
50.460        40
50.470        13
50.480        20
50.490        20
50.500        13
50.510        47
50.520        20
50.530        20
50.540        27
50.550        33
50.560        33
50.570         7
50.580         7
50.590         0
50.600        20
50.610        20
50.620        13
50.630         7
50.640        33
50.650         0
50.660         7
50.670        27
50.680        27
50.690        20
50.700        13
50.710        20
50.720        20
50.730        27
50.740        27
50.750         7
50.760        13
50.770        27
50.780        27
50.790        27
50.800         7
50.810        33
50.820        40
50.830        33
50.840        13
50.850        53
50.860        20
50.870        33
50.880        27
50.890        60
50.900        40
50.910         7
50.920        20
50.930        13
50.940        47
50.950         7
50.960        13
50.970        20
50.980        33
50.990        27
51.000        13
51.010        20
51.020        53
51.030        20
51.040        33
51.050        47
51.060        13
51.070        40
51.080         7
51.090        40
51.100        20
51.110        40
51.120        13
51.130        13
51.140        40
51.150        33
51.160        33
51.170        33
51.180        13
51.190        20
51.200        40
51.210        53
51.220        40
51.230        33
51.240        20
51.250        27
51.260        27
51.270        27
51.280        60
51.290        53
51.300        73
51.310        20
51.320        27
51.330        13
51.340        47
51.350        60
51.360        33
51.370        40
51.380        40
51.390        40
51.400        53
51.410        27
51.420        47
51.430        20
51.440        13
51.450        27
51.460        40
51.470        40
51.480        67
51.490        13
51.500        47
51.510        40
51.520        40
51.530        53
51.540        20
51.550        47
51.560        33
51.570        33
51.580        40
51.590        40
51.600        20
51.610        53
51.620        47
51.630        33
51.640        33
51.650        53
51.660        27
51.670        60
51.680        33
51.690        27
51.700        53
51.710        47
51.720        73
51.730        47
51.740        53
51.750        60
51.760        67
51.770        33
51.780        33
51.790        33
51.800        20
51.810        53
51.820        47
51.830        33
51.840        40
51.850        40
51.860        47
51.870        47
51.880        47
51.890        33
51.900        47
51.910        80
51.920        33
51.930        40
51.940        40
51.950        67
51.960        60
51.970        20
51.980        33
51.990        33
52.000        47
52.010        60
52.020        33
52.030        80
52.040        67
52.050        80
52.060        27
52.070        53
52.080        47
52.090        93
52.100        33
52.110        87
52.120        67
52.130        53
52.140        60
52.150        87
52.160        80
52.170        87
52.180        60
52.190        93
52.200        67
52.210        67
52.220        80
52.230        80
52.240       100
52.250        80
52.260        93
52.270        67
52.280        60
52.290        80
52.300       120
52.310        60
52.320       173
52.330        80
52.340       107
52.350        87
52.360        73
52.370        87
52.380       133
52.390        67
52.400        60
52.410       120
52.420       140
52.430       140
52.440       113
52.450       113
52.460       120
52.470       147
52.480       120
52.490       133
52.500        80
52.510       227
52.520       167
52.530       200
52.540       207
52.550       200
52.560       207
52.570       247
52.580       287
52.590       260
52.600       167
52.610       140
52.620       213
52.630       187
52.640       207
52.650       173
52.660       160
52.670       133
52.680       180
52.690       187
52.700       187
52.710       147
52.720       220
52.730       153
52.740        93
52.750       140
52.760       153
52.770        93
52.780        93
52.790        87
52.800        80
52.810        80
52.820        80
52.830       120
52.840        53
52.850        67
52.860       107
52.870        67
52.880        73
52.890        73
52.900       120
52.910        40
52.920        53
52.930        47
52.940        60
52.950        40
52.960        27
52.970        87
52.980        27
52.990        47
53.000        53
53.010        13
53.020        47
53.030        33
53.040        47
53.050        47
53.060        67
53.070        20
53.080        60
53.090        40
53.100        53
53.110        40
53.120        47
53.130        33
53.140        40
53.150        40
53.160        47
53.170        53
53.180        27
53.190        53
53.200        27
53.210        13
53.220        13
53.230        40
53.240        20
53.250        33
53.260        60
53.270        27
53.280        47
53.290        40
53.300        53
53.310        20
53.320        47
53.330        33
53.340        33
53.350        33
53.360        73
53.370        33
53.380        80
53.390        33
53.400        53
53.410        27
53.420        20
53.430        20
53.440        33
53.450        53
53.460        27
53.470        33
53.480        27
53.490        13
53.500        20
53.510        20
53.520        53
53.530        33
53.540        27
53.550        47
53.560        20
53.570        40
53.580        53
53.590        40
53.600        40
53.610        33
53.620        27
53.630        20
53.640        20
53.650        27
53.660        33
53.670        27
53.680        40
53.690        33
53.700        27
53.710        33
53.720        33
53.730        20
53.740        13
53.750        40
53.760        27
53.770        40
53.780        20
53.790        20
53.800        40
53.810        33
53.820        20
53.830        20
53.840        33
53.850         7
53.860        27
53.870        20
53.880        47
53.890        47
53.900        33
53.910        27
53.920         7
53.930        27
53.940        13
53.950        13
53.960        53
53.970        40
53.980        13
53.990         7
54.000        33
54.010        27
54.020         7
54.030        40
54.040        27
54.050        27
54.060        47
54.070        33
54.080        40
54.090        33
54.100        13
54.110        27
54.120        13
54.130        40
54.140        33
54.150        20
54.160        13
54.170         7
54.180        40
54.190        33
54.200        13
54.210        40
54.220        33
54.230        40
54.240        40
54.250        27
54.260        33
54.270        20
54.280        27
54.290        60
54.300        40
54.310         7
54.320        13
54.330        33
54.340         7
54.350         7
54.360        33
54.370        20
54.380        13
54.390         7
54.400         0
54.410        20
54.420         0
54.430        60
54.440         0
54.450        13
54.460        27
54.470        20
54.480        67
54.490         7
54.500        27
54.510        40
54.520        47
54.530        27
54.540        60
54.550        60
54.560        27
54.570        33
54.580        27
54.590        33
54.600        27
54.610        20
54.620        13
54.630        20
54.640        27
54.650        33
54.660        33
54.670        27
54.680        33
54.690        20
54.700        40
54.710        20
54.720        33
54.730         7
54.740         7
54.750        27
54.760         7
54.770         0
54.780        20
54.790        20
54.800        40
54.810        40
54.820        13
54.830        13
54.840        13
54.850        13
54.860        20
54.870        40
54.880        20
54.890        53
54.900        13
54.910        13
54.920        13
54.930         7
54.940        20
54.950        20
54.960        33
54.970        13
54.980        27
54.990        27
55.000        13
55.010         7
55.020        13
55.030        27
55.040        20
55.050        13
55.060        13
55.070        13
55.080        40
55.090         0
55.100        20
55.110        13
55.120        20
55.130        33
55.140        20
55.150        40
55.160        20
55.170         0
55.180        33
55.190        33
55.200         7
55.210        33
55.220         7
55.230        40
55.240        27
55.250        13
55.260        13
55.270        33
55.280        20
55.290        20
55.300        13
55.310        27
55.320        33
55.330         7
55.340        13
55.350        20
55.360        13
55.370        20
55.380        20
55.390        27
55.400        33
55.410        20
55.420        13
55.430        27
55.440         7
55.450        13
55.460        40
55.470        13
55.480        20
55.490        33
55.500        20
55.510        27
55.520        20
55.530        40
55.540        27
55.550        27
55.560        33
55.570        20
55.580        20
55.590        13
55.600        27
55.610        27
55.620        47
55.630        33
55.640        40
55.650        67
55.660        47
55.670        13
55.680        20
55.690        27
55.700        33
55.710        20
55.720        20
55.730        40
55.740        20
55.750        13
55.760        40
55.770        40
55.780         7
55.790        13
55.800         0
55.810        40
55.820        60
55.830        33
55.840        13
55.850        20
55.860         0
55.870        13
55.880        47
55.890        20
55.900         7
55.910        13
55.920        33
55.930        27
55.940        20
55.950        20
55.960        27
55.970        33
55.980        20
55.990        33
56.000        20
56.010        33
56.020        20
56.030        27
56.040         0
56.050        33
56.060        33
56.070        20
56.080        33
56.090        13
56.100        20
56.110        13
56.120        20
56.130        47
56.140        33
56.150        13
56.160        33
56.170        27
56.180        27
56.190        27
56.200         7
56.210        53
56.220        67
56.230        20
56.240        13
56.250        13
56.260         0
56.270        33
56.280         7
56.290        13
56.300        27
56.310         0
56.320        27
56.330        27
56.340         7
56.350        33
56.360        13
56.370        13
56.380        20
56.390        20
56.400        20
56.410        13
56.420        13
56.430         0
56.440         0
56.450        13
56.460        20
56.470        27
56.480         7
56.490         0
56.500         7
56.510        20
56.520         0
56.530        20
56.540         7
56.550        13
56.560        33
56.570         0
56.580         7
56.590        40
56.600         7
56.610        13
56.620        13
56.630        40
56.640        20
56.650         7
56.660        13
56.670        27
56.680        13
56.690        20
56.700        27
56.710        13
56.720        13
56.730        20
56.740        40
56.750        27
56.760        13
56.770        13
56.780        40
56.790        13
56.800         7
56.810         0
56.820        27
56.830         7
56.840        13
56.850         7
56.860        33
56.870         7
56.880        33
56.890        13
56.900        13
56.910        13
56.920        20
56.930         7
56.940        13
56.950        20
56.960        13
56.970        13
56.980        20
56.990        33
57.000        27
57.010        13
57.020        20
57.030         7
57.040        27
57.050         7
57.060        20
57.070        13
57.080        27
57.090        20
57.100        20
57.110        13
57.120        20
57.130        27
57.140        20
57.150        27
57.160        20
57.170         7
57.180         0
57.190        27
57.200        20
57.210         7
57.220        13
57.230        20
57.240        13
57.250        33
57.260        20
57.270        20
57.280        20
57.290         0
57.300         7
57.310         7
57.320         0
57.330        33
57.340        20
57.350        20
57.360        27
57.370        33
57.380        13
57.390        20
57.400        33
57.410        33
57.420        53
57.430        27
57.440        40
57.450         0
57.460        20
57.470        27
57.480        33
57.490        20
57.500        20
57.510        33
57.520        33
57.530        20
57.540        13
57.550        13
57.560        20
57.570         7
57.580         7
57.590        13
57.600        13
57.610        20
57.620        13
57.630        20
57.640         7
57.650         7
57.660        13
57.670        13
57.680        13
57.690         7
57.700        20
57.710         7
57.720         0
57.730         7
57.740        13
57.750        27
57.760        33
57.770         0
57.780        20
57.790        33
57.800         7
57.810        27
57.820         7
57.830         7
57.840        20
57.850        27
57.860         7
57.870         0
57.880        33
57.890         7
57.900         0
57.910        13
57.920         0
57.930         7
57.940         7
57.950        20
57.960        13
57.970        40
57.980        13
57.990        20
58.000        27
58.010         7
58.020         7
58.030        13
58.040       147
58.050        27
58.060        27
58.070        33
58.080        20
58.090        33
58.100        53
58.110         7
58.120         7
58.130        27
58.140        20
58.150         7
58.160        27
58.170        47
58.180         7
58.190        47
58.200        20
58.210         7
58.220        13
58.230        27
58.240        20
58.250        47
58.260        13
58.270        27
58.280         0
58.290         7
58.300        33
58.310        20
58.320        47
58.330         0
58.340         7
58.350         7
58.360        33
58.370        27
58.380        13
58.390        20
58.400         7
58.410        27
58.420        13
58.430        33
58.440        33
58.450         7
58.460        13
58.470        20
58.480        27
58.490        27
58.500        33
58.510        13
58.520        60
58.530        27
58.540        40
58.550         0
58.560        13
58.570        20
58.580        27
58.590        20
58.600        13
58.610        33
58.620         7
58.630        13
58.640         7
58.650         0
58.660         7
58.670        20
58.680        27
58.690        40
58.700         7
58.710        27
58.720        33
58.730        27
58.740        40
58.750        20
58.760        13
58.770        13
58.780        20
58.790         7
58.800         7
58.810         7
58.820         0
58.830        20
58.840        33
58.850        13
58.860        20
58.870         0
58.880        20
58.890         7
58.900        13
58.910         7
58.920        27
58.930         0
58.940         7
58.950         7
58.960         7
58.970         7
58.980        13
58.990        27
59.000        13
59.010        20
59.020        40
59.030        13
59.040         7
59.050        13
59.060         7
59.070        20
59.080        40
59.090        13
59.100         7
59.110        20
59.120         0
59.130        33
59.140         0
59.150        13
59.160         7
59.170        20
59.180        40
59.190         7
59.200        40
59.210        20
59.220         7
59.230        13
59.240        13
59.250        13
59.260        27
59.270         7
59.280         0
59.290        20
59.300        20
59.310        20
59.320        13
59.330        20
59.340         7
59.350        47
59.360        20
59.370         7
59.380         7
59.390         7
59.400        20
59.410        20
59.420        13
59.430        20
59.440        33
59.450        27
59.460        40
59.470        20
59.480        33
59.490         7
59.500        20
59.510         7
59.520        13
59.530        27
59.540        40
59.550        13
59.560        20
59.570         7
59.580        20
59.590        13
59.600         7
59.610        20
59.620        13
59.630         0
59.640        20
59.650        33
59.660        20
59.670        20
59.680        13
59.690        27
59.700        13
59.710         0
59.720        13
59.730        13
59.740        20
59.750        27
59.760         0
59.770        13
59.780         7
59.790        20
59.800        20
59.810         0
59.820         7
59.830        20
59.840        20
59.850         7
59.860        13
59.870        20
59.880         7
59.890        20
59.900        13
59.910         0
59.920         7
59.930         0
59.940         7
59.950        47
59.960         7
59.970         0
59.980         7
59.990        13
60.000        13
