20.000        20
20.010        20
20.020        40
20.030        60
20.040        73
20.050        40
20.060        67
20.070        33
20.080        27
20.090        73
20.100        53
20.110        40
20.120        40
20.130        40
20.140        33
20.150        40
20.160        33
20.170         7
20.180        27
20.190        33
20.200        20
20.210        27
20.220        67
20.230        20
20.240        27
20.250        47
20.260        20
20.270        33
20.280        93
20.290        40
20.300        67
20.310        67
20.320        53
20.330        20
20.340        20
20.350        47
20.360        27
20.370        47
20.380        40
20.390        27
20.400        40
20.410        40
20.420        40
20.430        20
20.440        40
20.450        33
20.460        53
20.470        20
20.480        40
20.490        53
20.500        40
20.510        47
20.520        20
20.530        27
20.540        33
20.550        80
20.560        33
20.570        47
20.580        40
20.590        33
20.600        47
20.610        47
20.620        73
20.630        53
20.640        33
20.650        53
20.660        33
20.670        33
20.680        40
20.690        13
20.700        33
20.710        47
20.720        33
20.730        53
20.740        60
20.750        20
20.760        20
20.770        53
20.780        47
20.790        27
20.800        47
20.810        47
20.820        60
20.830        27
20.840        27
20.850        40
20.860        40
20.870        40
20.880        33
20.890        20
20.900        53
20.910        27
20.920        53
20.930        67
20.940        73
20.950         7
20.960        27
20.970        33
20.980        40
20.990        13
21.000        47
21.010        20
21.020        20
21.030        80
21.040        13
21.050        27
21.060        40
21.070        53
21.080        33
21.090        20
21.100        47
21.110        40
21.120        40
21.130        40
21.140        53
21.150        27
21.160        33
21.170        60
21.180        47
21.190        40
21.200        33
21.210        47
21.220        53
21.230        40
21.240        27
21.250        33
21.260        47
21.270        60
21.280        27
21.290        20
21.300        40
21.310        47
21.320        60
21.330        13
21.340        27
21.350        60
21.360        20
21.370        40
21.380        27
21.390        33
21.400        20
21.410        53
21.420        33
21.430        47
21.440        60
21.450        47
21.460        53
21.470        27
21.480        60
21.490        27
21.500        13
21.510        67
21.520        27
21.530        33
21.540        13
21.550        60
21.560        27
21.570        27
21.580        20
21.590        33
21.600        33
21.610        27
21.620        27
21.630        53
21.640        27
21.650        27
21.660        40
21.670        27
21.680        73
21.690        73
21.700        27
21.710        53
21.720        40
21.730        40
21.740        20
21.750        33
21.760        20
21.770        27
21.780        33
21.790        40
21.800        33
21.810        60
21.820        20
21.830        53
21.840        60
21.850        20
21.860        33
21.870        13
21.880        27
21.890        20
21.900        67
21.910        60
21.920        27
21.930        60
21.940         7
21.950        47
21.960        20
21.970        47
21.980        40
21.990        40
22.000        40
22.010        20
22.020        47
22.030        20
22.040        20
22.050        27
22.060        47
22.070        40
22.080        40
22.090        27
22.100        27
22.110        47
22.120        20
22.130        20
22.140        67
22.150        27
22.160        40
22.170        13
22.180        27
22.190        40
22.200        60
22.210        27
22.220        47
22.230        47
22.240        20
22.250        33
22.260        27
22.270        47
22.280        47
22.290        13
22.300        40
22.310        27
22.320        47
22.330        47
22.340        13
22.350        33
22.360        40
22.370        60
22.380        40
22.390        53
22.400        33
22.410        60
22.420        53
22.430        27
22.440        60
22.450        27
22.460        20
22.470        40
22.480        40
22.490        40
22.500        47
22.510        60
22.520        33
22.530        53
22.540        60
22.550        60
22.560        53
22.570        67
22.580        67
22.590        73
22.600        60
22.610        67
22.620       107
22.630        27
22.640        53
22.650        80
22.660        73
22.670       120
22.680        60
22.690       127
22.700       120
22.710       140
22.720        87
22.730       127
22.740        93
22.750        93
22.760        67
22.770       167
22.780       113
22.790       147
22.800       100
22.810       100
22.820        60
22.830        80
22.840        93
22.850        40
22.860        60
22.870        53
22.880       100
22.890        93
22.900        47
22.910        67
22.920        47
22.930        53
22.940        80
22.950        40
22.960        33
22.970        20
22.980        33
22.990        27
23.000        67
23.010        73
23.020        67
23.030        53
23.040        60
23.050        73
23.060        47
23.070        47
23.080        13
23.090        27
23.100        73
23.110        40
23.120        47
23.130        13
23.140        60
23.150        27
23.160         7
23.170        60
23.180        40
23.190        40
23.200        33
23.210        27
23.220        53
23.230        27
23.240        47
23.250        33
23.260        20
23.270        13
23.280        33
23.290        40
23.300        27
23.310        13
23.320        33
23.330        60
23.340        40
23.350        40
23.360        27
23.370        40
23.380        13
23.390        47
23.400        40
23.410        60
23.420        33
23.430        13
23.440        33
23.450        40
23.460        40
23.470        13
23.480        40
23.490        33
23.500        13
23.510        47
23.520        47
23.530        47
23.540        47
23.550        40
23.560        27
23.570        33
23.580        40
23.590        20
23.600        27
23.610        47
23.620        53
23.630        27
23.640        13
23.650        33
23.660        33
23.670        60
23.680        27
23.690        20
23.700        27
23.710        33
23.720        20
23.730        33
23.740        27
23.750        13
23.760        47
23.770        27
23.780        27
23.790        47
23.800        20
23.810        20
23.820        27
23.830        20
23.840        27
23.850        33
23.860        27
23.870        33
23.880        40
23.890        40
23.900        20
23.910        33
23.920        33
23.930        47
23.940        40
23.950        27
23.960        27
23.970        20
23.980        27
23.990        53
24.000        13
24.010         7
24.020        40
24.030        20
24.040        47
24.050        20
24.060        33
24.070        47
24.080        53
24.090        33
24.100        27
24.110        27
24.120        13
24.130        20
24.140        53
24.150         7
24.160         7
24.170        33
24.180        13
24.190        47
24.200        67
24.210        40
24.220        13
24.230        13
24.240        20
24.250        40
24.260        27
24.270        33
24.280        33
24.290        20
24.300        20
24.310        27
24.320        20
24.330        20
24.340        20
24.350        27
24.360        20
24.370        33
24.380        20
24.390        20
24.400        20
24.410        27
24.420        27
24.430        33
24.440        47
24.450        40
24.460        47
24.470         7
24.480        47
24.490        47
24.500        33
24.510        60
24.520        40
24.530        13
24.540        20
24.550        33
24.560        47
24.570        40
24.580        27
24.590        53
24.600        40
24.610        27
24.620        33
24.630        33
24.640        27
24.650        40
24.660         7
24.670        60
24.680        40
24.690        27
24.700        40
24.710        20
24.720        53
24.730        27
24.740         7
24.750        13
24.760        27
24.770        27
24.780        40
24.790         7
24.800        33
24.810        53
24.820        20
24.830        53
24.840        33
24.850        20
24.860        60
24.870        67
24.880         7
24.890        13
24.900        47
24.910        20
24.920        27
24.930        13
24.940        47
24.950        60
24.960        20
24.970        27
24.980        33
24.990        20
25.000        33
25.010        53
25.020        13
25.030        53
25.040        33
25.050        40
25.060        47
25.070        33
25.080        13
25.090        13
25.100        20
25.110        20
25.120        33
25.130        13
25.140        40
25.150        40
25.160        27
25.170        47
25.180        20
25.190        27
25.200        53
25.210        20
25.220        33
25.230        33
25.240        33
25.250        20
25.260        33
25.270        47
25.280        20
25.290        27
25.300        33
25.310         7
25.320        20
25.330        40
25.340        33
25.350        67
25.360        33
25.370        33
25.380        47
25.390        20
25.400        33
25.410         0
25.420        53
25.430        27
25.440        47
25.450        67
25.460        13
25.470        40
25.480        33
25.490        27
25.500        13
25.510        33
25.520        20
25.530        27
25.540        40
25.550        20
25.560        13
25.570        40
25.580        47
25.590       100
25.600        67
25.610        87
25.620       140
25.630       107
25.640       100
25.650       120
25.660        80
25.670       100
25.680        73
25.690        73
25.700        60
25.710        60
25.720       133
25.730        53
25.740        40
25.750        60
25.760        67
25.770       100
25.780        67
25.790        67
25.800        80
25.810        67
25.820       100
25.830        73
25.840       120
25.850        40
25.860        73
25.870        33
25.880        60
25.890        53
25.900        40
25.910        80
25.920        40
25.930        53
25.940        33
25.950        33
25.960        47
25.970        40
25.980        53
25.990        27
26.000        13
26.010        20
26.020        20
26.030        33
26.040        40
26.050        60
26.060        13
26.070        20
26.080        47
26.090        33
26.100        53
26.110        73
26.120         7
26.130        20
26.140        20
26.150        20
26.160        73
26.170        33
26.180        27
26.190        33
26.200        20
26.210        73
26.220        20
26.230        20
26.240        27
26.250        33
26.260        20
26.270         7
26.280        27
26.290        20
26.300         7
26.310        40
26.320        27
26.330        40
26.340        13
26.350        33
26.360        20
26.370        47
26.380        13
26.390         7
26.400        13
26.410        13
26.420        33
26.430        27
26.440        13
26.450        40
26.460        27
26.470        47
26.480        20
26.490        27
26.500        27
26.510        33
26.520        27
26.530        47
26.540         7
26.550         7
26.560        20
26.570        20
26.580        40
26.590        27
26.600        13
26.610        33
26.620        87
26.630        80
26.640        13
26.650        20
26.660        27
26.670        27
26.680        20
26.690        47
26.700        20
26.710        13
26.720         7
26.730        20
26.740        27
26.750        20
26.760        20
26.770        33
26.780        47
26.790        27
26.800        40
26.810        13
26.820        47
26.830         0
26.840        53
26.850        47
26.860        27
26.870        13
26.880         0
26.890        47
26.900        27
26.910        47
26.920        40
26.930        33
26.940        13
26.950        13
26.960        20
26.970        20
26.980        27
26.990        27
27.000        20
27.010        40
27.020        13
27.030        33
27.040        13
27.050         7
27.060        13
27.070        27
27.080        13
27.090         7
27.100        13
27.110        33
27.120        40
27.130        40
27.140        53
27.150        47
27.160        13
27.170        20
27.180        13
27.190        27
27.200        47
27.210        27
27.220        27
27.230         7
27.240        20
27.250        20
27.260        33
27.270        40
27.280        40
27.290        47
27.300        27
27.310        27
27.320        13
27.330         7
27.340        27
27.350        20
27.360        27
27.370        13
27.380        20
27.390        20
27.400        20
27.410        40
27.420        27
27.430        27
27.440        20
27.450         7
27.460        13
27.470        33
27.480         7
27.490        40
27.500        20
27.510        33
27.520         7
27.530        40
27.540        33
27.550        13
27.560        20
27.570        53
27.580        20
27.590        27
27.600        40
27.610        20
27.620        13
27.630        33
27.640        13
27.650        13
27.660         7
27.670        13
27.680        13
27.690        13
27.700        47
27.710        20
27.720        20
27.730        13
27.740        33
27.750        20
27.760        27
27.770        13
27.780        27
27.790        33
27.800        40
27.810        40
27.820         7
27.830        40
27.840         7
27.850        33
27.860        27
27.870        47
27.880        33
27.890        47
27.900        40
27.910        33
27.920        27
27.930        67
27.940        60
27.950        20
27.960        20
27.970        20
27.980        53
27.990        53
28.000        40
28.010        27
28.020        40
28.030        13
28.040        27
28.050         7
28.060        27
28.070        27
28.080        33
28.090        20
28.100        33
28.110         7
28.120        27
28.130        20
28.140        40
28.150        33
28.160        27
28.170        27
28.180        27
28.190        40
28.200        20
28.210        20
28.220        33
28.230         7
28.240        33
28.250        20
28.260        33
28.270        20
28.280        20
28.290        27
28.300        40
28.310        47
28.320        47
28.330        47
28.340        33
28.350        60
28.360        53
28.370        33
28.380        47
28.390         7
28.400        33
28.410        13
28.420        27
28.430        60
28.440        13
28.450        33
28.460        20
28.470        40
28.480        40
28.490        27
28.500        40
28.510        33
28.520        60
28.530         0
28.540        20
28.550        33
28.560        20
28.570        13
28.580         7
28.590        13
28.600        20
28.610        13
28.620        47
28.630        40
28.640        47
28.650        20
28.660        13
28.670        40
28.680        33
28.690        33
28.700        20
28.710        53
28.720        33
28.730        60
28.740        47
28.750        40
28.760        20
28.770        60
28.780        27
28.790        27
28.800        40
28.810        27
28.820        27
28.830        47
28.840        33
28.850        27
28.860        27
28.870        47
28.880        33
28.890        20
28.900        53
28.910        40
28.920        40
28.930        40
28.940        67
28.950        27
28.960        20
28.970        27
28.980        40
28.990        40
29.000        40
29.010        60
29.020        40
29.030        33
29.040        67
29.050        60
29.060        27
29.070        53
29.080        87
29.090        87
29.100        27
29.110        47
29.120        87
29.130        73
29.140        53
29.150        67
29.160        87
29.170       100
29.180        80
29.190        60
29.200        53
29.210        87
29.220        60
29.230        87
29.240       100
29.250        40
29.260        73
29.270        67
29.280        73
29.290        33
29.300        20
29.310        33
29.320        40
29.330        40
29.340        33
29.350        47
29.360        40
29.370         7
29.380        13
29.390        13
29.400        47
29.410        13
29.420        60
29.430        53
29.440        47
29.450        53
29.460        40
29.470        67
29.480        67
29.490        47
29.500        53
29.510        47
29.520       113
29.530       107
29.540        53
29.550        93
29.560       147
29.570       153
29.580       173
29.590       160
29.600       187
29.610       107
29.620       147
29.630       100
29.640       153
29.650        93
29.660       107
29.670       127
29.680       107
29.690        73
29.700        87
29.710        93
29.720        87
29.730        40
29.740        60
29.750        80
29.760        33
29.770        27
29.780        47
29.790        53
29.800        20
29.810        33
29.820         7
29.830        20
29.840         7
29.850        27
29.860        27
29.870         0
29.880        27
29.890         7
29.900        13
29.910        13
29.920        13
29.930         7
29.940        33
29.950        27
29.960        40
29.970        20
29.980        13
29.990        40
30.000        20
30.010        20
30.020        20
30.030        33
30.040        20
30.050        13
30.060        27
30.070        20
30.080         0
30.090         0
30.100        27
30.110        13
30.120        13
30.130        13
30.140         7
30.150        20
30.160        40
30.170        13
30.180         7
30.190        27
30.200         7
30.210        13
30.220        13
30.230         7
30.240         0
30.250        20
30.260        20
30.270        33
30.280        20
30.290         7
30.300        20
30.310        27
30.320        27
30.330        40
30.340        27
30.350        13
30.360        60
30.370        20
30.380        20
30.390        27
30.400        20
30.410        13
30.420        40
30.430        13
30.440        13
30.450        47
30.460        20
30.470        40
30.480        40
30.490        27
30.500        20
30.510        20
30.520        33
30.530        40
30.540        33
30.550        20
30.560        27
30.570        20
30.580        33
30.590        13
30.600         7
30.610        60
30.620        53
30.630         7
30.640        40
30.650        53
30.660        33
30.670        20
30.680         7
30.690         0
30.700         7
30.710        20
30.720        27
30.730        20
30.740        20
30.750        13
30.760         7
30.770        13
30.780        47
30.790        20
30.800        13
30.810        27
30.820        40
30.830        20
30.840        13
30.850        20
30.860        20
30.870        20
30.880        13
30.890         7
30.900        13
30.910        27
30.920        13
30.930        20
30.940         7
30.950        33
30.960        27
30.970        20
30.980        47
30.990        13
31.000         7
31.010         7
31.020        13
31.030        13
31.040        20
31.050        27
31.060         7
31.070        40
31.080        27
31.090        27
31.100         7
31.110        20
31.120        13
31.130        27
31.140        40
31.150        33
31.160        40
31.170         0
31.180        13
31.190        13
31.200         7
31.210        33
31.220        27
31.230        27
31.240        33
31.250         7
31.260        20
31.270        27
31.280        27
31.290        20
31.300        27
31.310         7
31.320        47
31.330        47
31.340        13
31.350        27
31.360        20
31.370        20
31.380        13
31.390        53
31.400        27
31.410        13
31.420        27
31.430        27
31.440        27
31.450        27
31.460        27
31.470        47
31.480         7
31.490        20
31.500        40
31.510        20
31.520        33
31.530        20
31.540        13
31.550         0
31.560         7
31.570        27
31.580        13
31.590        13
31.600        20
31.610        47
31.620        20
31.630        20
31.640        20
31.650        13
31.660        20
31.670        13
31.680        20
31.690        13
31.700        20
31.710        13
31.720        20
31.730        20
31.740        33
31.750        13
31.760         7
31.770        20
31.780        20
31.790        13
31.800        13
31.810        53
31.820         7
31.830         7
31.840        33
31.850        20
31.860        13
31.870        47
31.880        53
31.890        20
31.900        20
31.910        80
31.920        20
31.930        13
31.940        47
31.950        13
31.960        27
31.970        20
31.980         7
31.990        33
32.000        47
32.010        27
32.020        53
32.030        33
32.040        53
32.050        33
32.060        27
32.070        27
32.080        33
32.090        27
32.100        40
32.110        40
32.120        53
32.130        27
32.140        80
32.150        73
32.160        47
32.170        53
32.180        80
32.190        40
32.200        80
32.210       120
32.220        93
32.230        47
32.240        87
32.250        80
32.260        67
32.270        67
32.280        67
32.290        47
32.300        53
32.310        13
32.320        27
32.330        20
32.340        13
32.350        20
32.360        27
32.370        33
32.380        47
32.390         7
32.400        27
32.410         7
32.420        27
32.430         7
32.440        33
32.450        20
32.460        40
32.470        27
32.480        33
32.490        13
32.500         7
32.510        20
32.520        13
32.530        13
32.540         7
32.550        27
32.560        20
32.570        47
32.580        27
32.590        33
32.600        27
32.610        13
32.620        20
32.630        27
32.640        33
32.650        33
32.660        33
32.670        40
32.680        47
32.690        40
32.700        33
32.710        13
32.720        20
32.730        60
32.740        40
32.750        60
32.760        20
32.770        20
32.780        47
32.790        67
32.800        20
32.810        33
32.820        33
32.830        60
32.840        27
32.850        33
32.860        33
32.870        60
32.880        13
32.890        20
32.900        27
32.910        20
32.920        27
32.930        13
32.940        40
32.950        27
32.960        47
32.970        27
32.980        47
32.990        33
33.000        13
33.010        40
33.020        13
33.030        47
33.040         0
33.050        20
33.060        20
33.070         0
33.080        20
33.090        33
33.100        27
33.110        13
33.120        33
33.130        33
33.140         7
33.150        13
33.160        20
33.170         7
33.180        33
33.190        13
33.200        13
33.210        13
33.220        33
33.230        33
33.240        20
33.250        13
33.260         7
33.270        20
33.280        20
33.290        13
33.300        27
33.310        27
33.320        13
33.330        33
33.340         7
33.350        27
33.360        60
33.370        33
33.380        33
33.390        13
33.400        13
33.410        13
33.420        27
33.430         7
33.440        13
33.450        20
33.460        20
33.470        27
33.480        33
33.490        20
33.500        40
33.510        13
33.520        13
33.530        13
33.540        27
33.550        40
33.560         0
33.570        27
33.580        33
33.590        20
33.600        27
33.610        33
33.620         0
33.630         0
33.640         7
33.650         7
33.660         0
33.670         7
33.680         0
33.690        33
33.700        27
33.710         7
33.720        27
33.730         0
33.740        13
33.750        33
33.760        27
33.770        13
33.780        27
33.790        20
33.800        27
33.810        20
33.820        13
33.830        13
33.840        27
33.850        20
33.860         7
33.870        13
33.880        13
33.890        33
33.900        13
33.910        27
33.920        33
33.930         0
33.940        27
33.950        20
33.960         0
33.970         7
33.980        40
33.990         7
34.000        13
34.010        20
34.020        27
34.030         7
34.040        27
34.050        33
34.060        13
34.070        20
34.080         0
34.090        13
34.100         0
34.110        13
34.120         7
34.130         7
34.140        13
34.150         7
34.160        13
34.170         7
34.180        27
34.190        20
34.200        20
34.210        20
34.220        20
34.230         0
34.240         0
34.250        33
34.260        20
34.270        13
34.280        27
34.290        13
34.300        20
34.310        20
34.320        13
34.330        27
34.340         7
34.350        33
34.360        33
34.370        47
34.380        13
34.390        33
34.400        33
34.410        27
34.420         7
34.430        20
34.440         7
34.450         7
34.460        40
34.470        13
34.480         7
34.490        33
34.500        20
34.510        20
34.520        33
34.530        13
34.540         7
34.550         7
34.560        13
34.570         7
34.580         7
34.590        40
34.600        40
34.610         7
34.620        40
34.630        13
34.640        40
34.650        47
34.660        27
34.670        20
34.680        60
34.690        27
34.700        40
34.710        13
34.720        40
34.730        40
34.740        33
34.750         7
34.760        13
34.770        20
34.780        33
34.790        53
34.800        33
34.810        40
34.820        53
34.830        33
34.840        27
34.850        40
34.860        20
34.870        13
34.880        20
34.890        13
34.900        13
34.910        13
34.920        27
34.930        67
34.940        13
34.950        20
34.960         7
34.970        47
34.980        40
34.990        27
35.000        53
35.010         0
35.020         0
35.030        13
35.040        20
35.050        13
35.060        33
35.070        27
35.080        13
35.090        20
35.100        33
35.110        13
35.120        13
35.130        27
35.140        27
35.150        20
35.160        33
35.170        20
35.180        27
35.190         7
35.200        20
35.210        20
35.220        27
35.230        20
35.240        27
35.250        20
35.260        13
35.270        20
35.280        27
35.290         7
35.300        20
35.310         7
35.320         0
35.330        13
35.340        20
35.350        27
35.360        40
35.370        20
35.380         7
35.390        20
35.400         7
35.410        27
35.420        40
35.430        47
35.440        13
35.450        27
35.460         7
35.470        13
35.480        20
35.490        40
35.500        13
35.510        13
35.520        27
35.530         0
35.540        13
35.550        27
35.560        20
35.570        13
35.580        20
35.590        13
35.600         0
35.610        33
35.620        40
35.630        33
35.640        13
35.650        33
35.660        20
35.670        13
35.680        20
35.690        47
35.700        40
35.710         0
35.720        27
35.730        33
35.740        33
35.750        27
35.760        20
35.770         7
35.780         7
35.790        13
35.800         7
35.810         7
35.820        20
35.830        27
35.840        20
35.850         0
35.860         7
35.870        27
35.880        27
35.890        27
35.900         7
35.910         0
35.920         7
35.930        20
35.940        20
35.950         0
35.960        27
35.970        20
35.980        20
35.990        13
36.000         0
36.010         0
36.020        20
36.030        13
36.040        13
36.050         7
36.060        13
36.070        20
36.080        33
36.090         7
36.100         7
36.110         7
36.120        20
36.130        20
36.140        13
36.150        13
36.160        33
36.170         0
36.180        13
36.190        20
36.200        20
36.210         7
36.220        20
36.230        27
36.240         7
36.250        20
36.260        20
36.270         0
36.280        27
36.290         7
36.300        13
36.310        13
36.320        20
36.330        40
36.340        20
36.350        27
36.360        33
36.370        13
36.380        13
36.390         7
36.400        13
36.410        40
36.420        20
36.430        20
36.440         7
36.450        33
36.460         0
36.470        13
36.480        27
36.490         7
36.500        40
36.510        27
36.520        13
36.530        33
36.540        33
36.550        20
36.560        33
36.570        27
36.580         7
36.590        33
36.600         7
36.610         7
36.620         7
36.630        13
36.640         7
36.650        27
36.660        20
36.670         7
36.680        20
36.690         7
36.700        13
36.710        13
36.720        27
36.730        20
36.740        13
36.750        47
36.760         7
36.770         0
36.780         7
36.790        13
36.800        20
36.810         7
36.820         0
36.830        20
36.840        13
36.850        20
36.860        20
36.870        27
36.880        13
36.890        40
36.900        20
36.910        13
36.920         7
36.930        13
36.940        13
36.950         7
36.960        27
36.970        33
36.980         7
36.990         0
37.000        20
37.010        27
37.020         7
37.030        27
37.040         0
37.050        20
37.060         7
37.070         7
37.080        27
37.090        20
37.100        13
37.110        20
37.120        20
37.130         7
37.140        27
37.150        40
37.160        27
37.170         7
37.180        13
37.190        13
37.200        20
37.210        13
37.220        20
37.230         7
37.240         7
37.250         7
37.260        20
37.270        20
37.280        13
37.290         7
37.300        40
37.310        20
37.320         7
37.330        13
37.340        13
37.350        20
37.360        20
37.370        20
37.380        47
37.390        20
37.400        20
37.410        33
37.420         0
37.430         7
37.440        13
37.450        13
37.460         0
37.470        20
37.480        13
37.490        33
37.500        20
37.510        13
37.520         7
37.530         7
37.540         0
37.550        20
37.560         7
37.570        20
37.580        20
37.590        33
37.600        20
37.610        20
37.620        40
37.630        33
37.640         7
37.650        13
37.660        27
37.670         7
37.680         0
37.690        33
37.700        20
37.710        33
37.720        13
37.730        33
37.740        20
37.750         0
37.760        13
37.770         0
37.780        13
37.790        33
37.800        20
37.810        40
37.820        27
37.830        20
37.840         0
37.850        20
37.860        20
37.870         7
37.880        27
37.890         0
37.900        13
37.910         7
37.920        40
37.930        20
37.940        20
37.950        27
37.960        40
37.970        20
37.980        20
37.990        13
38.000         0
38.010        13
38.020        13
38.030         0
38.040        13
38.050         0
38.060         7
38.070        13
38.080         7
38.090         7
38.100        60
38.110         0
38.120         7
38.130         7
38.140        20
38.150         7
38.160        20
38.170         7
38.180        27
38.190        40
38.200        27
38.210        13
38.220        20
38.230         7
38.240        20
38.250         0
38.260        27
38.270        13
38.280        20
38.290         7
38.300        13
38.310        27
38.320         7
38.330        27
38.340         7
38.350         0
38.360        27
38.370        20
38.380         7
38.390        33
38.400        13
38.410         7
38.420        20
38.430         0
38.440        27
38.450        13
38.460        27
38.470        47
38.480        33
38.490        20
38.500        27
38.510        13
38.520        13
38.530        53
38.540        20
38.550        13
38.560        13
38.570        27
38.580         0
38.590        33
38.600        40
38.610        47
38.620        13
38.630        20
38.640        33
38.650        20
38.660        27
38.670         7
38.680         7
38.690        20
38.700         0
38.710        27
38.720        33
38.730        33
38.740         7
38.750        20
38.760        20
38.770        27
38.780        33
38.790        47
38.800        33
38.810        53
38.820        27
38.830        13
38.840        13
38.850         7
38.860        13
38.870         7
38.880        40
38.890        33
38.900        20
38.910        13
38.920        20
38.930        40
38.940        13
38.950        27
38.960        33
38.970        13
38.980        27
38.990        33
39.000        27
39.010        33
39.020        13
39.030        27
39.040        20
39.050        27
39.060        53
39.070        53
39.080        27
39.090        33
39.100        20
39.110         7
39.120        40
39.130        27
39.140        40
39.150        13
39.160        20
39.170        20
39.180        27
39.190        20
39.200         0
39.210         7
39.220        27
39.230        13
39.240        33
39.250         7
39.260        13
39.270         7
39.280        20
39.290        13
39.300         7
39.310        13
39.320        20
39.330        20
39.340         7
39.350        20
39.360        27
39.370        20
39.380         0
39.390        60
39.400        20
39.410        13
39.420        47
39.430         0
39.440        20
39.450         7
39.460        13
39.470        13
39.480         7
39.490         7
39.500        27
39.510        13
39.520        13
39.530        20
39.540        33
39.550         7
39.560        13
39.570        13
39.580         7
39.590         7
39.600        13
39.610        20
39.620        13
39.630        20
39.640        13
39.650        13
39.660         7
39.670        13
39.680        13
39.690         7
39.700        13
39.710        13
39.720        13
39.730         7
39.740        13
39.750        13
39.760        13
39.770        13
39.780         7
39.790        27
39.800        13
39.810        20
39.820         0
39.830        13
39.840        20
39.850        20
39.860         7
39.870        20
39.880        20
39.890         7
39.900        20
39.910        13
39.920        13
39.930         7
39.940        27
39.950        13
39.960         7
39.970         7
39.980         0
39.990        27
40.000         0
40.010        20
40.020        13
40.030         7
40.040        20
40.050        33
40.060         7
40.070        20
40.080        20
40.090        40
40.100        13
40.110        47
40.120        20
40.130         7
40.140        47
40.150        27
40.160        20
40.170        13
40.180        47
40.190        40
40.200        27
40.210        20
40.220        20
40.230        27
40.240         7
40.250        27
40.260        27
40.270        27
40.280        40
40.290        20
40.300        27
40.310        20
40.320        27
40.330        20
40.340        27
40.350        47
40.360        20
40.370        27
40.380        40
40.390        33
40.400        27
40.410         7
40.420        33
40.430         0
40.440        20
40.450         7
40.460        40
40.470         7
40.480        27
40.490        20
40.500        20
40.510        20
40.520        33
40.530        13
40.540        27
40.550        20
40.560        27
40.570        13
40.580        20
40.590        27
40.600         0
40.610         0
40.620        20
40.630        20
40.640         7
40.650        13
40.660        33
40.670        33
40.680        27
40.690        13
40.700        13
40.710        13
40.720        20
40.730        20
40.740        13
40.750        20
40.760        20
40.770        20
40.780         7
40.790        33
40.800        67
40.810        13
40.820         0
40.830        40
40.840        13
40.850        13
40.860        27
40.870         7
40.880        20
40.890         0
40.900         7
40.910        33
40.920        20
40.930        20
40.940        20
40.950         0
40.960        47
40.970        20
40.980        40
40.990        13
41.000        27
41.010        20
41.020         7
41.030        13
41.040         7
41.050        20
41.060        27
41.070        27
41.080        40
41.090        13
41.100         7
41.110        33
41.120        40
41.130         7
41.140        13
41.150        13
41.160         7
41.170        33
41.180         7
41.190        20
41.200         7
41.210         0
41.220        27
41.230         7
41.240        13
41.250         7
41.260         0
41.270        27
41.280        20
41.290        33
41.300        20
41.310         0
41.320        13
41.330        13
41.340        20
41.350        13
41.360        27
41.370        13
41.380        27
41.390        20
41.400        20
41.410         7
41.420        13
41.430        27
41.440        20
41.450        20
41.460        27
41.470        13
41.480        13
41.490        47
41.500        40
41.510         7
41.520         7
41.530         7
41.540        47
41.550        13
41.560        33
41.570         0
41.580        27
41.590        27
41.600        40
41.610        13
41.620        27
41.630        27
41.640        27
41.650        27
41.660        13
41.670        33
41.680        13
41.690        20
41.700        20
41.710        27
41.720        13
41.730        20
41.740        27
41.750         7
41.760         7
41.770         0
41.780        47
41.790        13
41.800        13
41.810         7
41.820        20
41.830        33
41.840        13
41.850         7
41.860        27
41.870        20
41.880         0
41.890        27
41.900        13
41.910        33
41.920        40
41.930        33
41.940        13
41.950        13
41.960         7
41.970        13
41.980         7
41.990        13
42.000        13
42.010        13
42.020        33
42.030        40
42.040         7
42.050        20
42.060        13
42.070        40
42.080         7
42.090        47
42.100        20
42.110        27
42.120        13
42.130        33
42.140        40
42.150        13
42.160        13
42.170         7
42.180         7
42.190        33
42.200        33
42.210        33
42.220        13
42.230        40
42.240        20
42.250        13
42.260        27
42.270        73
42.280        20
42.290        40
42.300        67
42.310        40
42.320        53
42.330        33
42.340        27
42.350        40
42.360        20
42.370        47
42.380        40
42.390        53
42.400        33
42.410        60
42.420        60
42.430        13
42.440        40
42.450        33
42.460         7
42.470        20
42.480        13
42.490        40
42.500        60
42.510        20
42.520         7
42.530        13
42.540        27
42.550        33
42.560        27
42.570        20
42.580        60
42.590        47
42.600        53
42.610        27
42.620        13
42.630        40
42.640         0
42.650         7
42.660         0
42.670        20
42.680         7
42.690        27
42.700        27
42.710        20
42.720         7
42.730         7
42.740         0
42.750        27
42.760        27
42.770        13
42.780        13
42.790        27
42.800        13
42.810        13
42.820         7
42.830        33
42.840        20
42.850        20
42.860        20
42.870        20
42.880        13
42.890        20
42.900        13
42.910        27
42.920        20
42.930        27
42.940        40
42.950         7
42.960        20
42.970         7
42.980        13
42.990        33
43.000        33
43.010         7
43.020        27
43.030        13
43.040        33
43.050        13
43.060        27
43.070        13
43.080         0
43.090        33
43.100        20
43.110        27
43.120        13
43.130        27
43.140        20
43.150        47
43.160        33
43.170         7
43.180        13
43.190         7
43.200        13
43.210        33
43.220         7
43.230        33
43.240         7
43.250        13
43.260         7
43.270        27
43.280        13
43.290         7
43.300        13
43.310        20
43.320        27
43.330         7
43.340         7
43.350         0
43.360        20
43.370        13
43.380        13
43.390        20
43.400         0
43.410        13
43.420        13
43.430         7
43.440        27
43.450        13
43.460        13
43.470         7
43.480        13
43.490        13
43.500        20
43.510        20
43.520        20
43.530        13
43.540        13
43.550        27
43.560        13
43.570        33
43.580         7
43.590        20
43.600        20
43.610         7
43.620         7
43.630        40
43.640        20
43.650         7
43.660         0
43.670        27
43.680        20
43.690        13
43.700        27
43.710        60
43.720         0
43.730         0
43.740         7
43.750        27
43.760         7
43.770        13
43.780        13
43.790         7
43.800        20
43.810         7
43.820        27
43.830         0
43.840        27
43.850        33
43.860        27
43.870        33
43.880        20
43.890         7
43.900        20
43.910        27
43.920         7
43.930         0
43.940        13
43.950         7
43.960         0
43.970        20
43.980        20
43.990         7
44.000        27
44.010        33
44.020         7
44.030        20
44.040         7
44.050        13
44.060        13
44.070        13
44.080        27
44.090        20
44.100        27
44.110        27
44.120         7
44.130        40
44.140        13
44.150        27
44.160        13
44.170        20
44.180        27
44.190        20
44.200        20
44.210         0
44.220        27
44.230        20
44.240        27
44.250        33
44.260         7
44.270        33
44.280        33
44.290        20
44.300        33
44.310        27
44.320        27
44.330        40
44.340        13
44.350        13
44.360        47
44.370        33
44.380        27
44.390        13
44.400         7
44.410        20
44.420        33
44.430        20
44.440         0
44.450        33
44.460         0
44.470        40
44.480        27
44.490        27
44.500         0
44.510        27
44.520        13
44.530        13
44.540        20
44.550         0
44.560        20
44.570         7
44.580        20
44.590        20
44.600         0
44.610         7
44.620        20
44.630        20
44.640         7
44.650        13
44.660        27
44.670         7
44.680        20
44.690        27
44.700        13
44.710        20
44.720        33
44.730        40
44.740         7
44.750        27
44.760        27
44.770        13
44.780        20
44.790        27
44.800        47
44.810        27
44.820         7
44.830        20
44.840        20
44.850        27
44.860        27
44.870         7
44.880        20
44.890        13
44.900        13
44.910        20
44.920        13
44.930         7
44.940         7
44.950        20
44.960        27
44.970        27
44.980         0
44.990        20
45.000        27
45.010        33
45.020         7
45.030         0
45.040        13
45.050        40
45.060         7
45.070        20
45.080         7
45.090        47
45.100        20
45.110        27
45.120        13
45.130        13
45.140         0
45.150        27
45.160        47
45.170        40
45.180        20
45.190        20
45.200        13
45.210        27
45.220        13
45.230        20
45.240        13
45.250         7
45.260        13
45.270        20
45.280         7
45.290        13
45.300        20
45.310        27
45.320         0
45.330        20
45.340        13
45.350         0
45.360        20
45.370        27
45.380        53
45.390        40
45.400        33
45.410         0
45.420        33
45.430        20
45.440        13
45.450        33
45.460        20
45.470        20
45.480        13
45.490         7
45.500         7
45.510        13
45.520        27
45.530         7
45.540        20
45.550        40
45.560        27
45.570        33
45.580        13
45.590        27
45.600        13
45.610         7
45.620        27
45.630        13
45.640         7
45.650        13
45.660        27
45.670         7
45.680        33
45.690         7
45.700         0
45.710        33
45.720         7
45.730        27
45.740        27
45.750         0
45.760         7
45.770        40
45.780         0
45.790         7
45.800         0
45.810        33
45.820        13
45.830        20
45.840        27
45.850        13
45.860        13
45.870        33
45.880        13
45.890        33
45.900        33
45.910        40
45.920        20
45.930        33
45.940        67
45.950        20
45.960         7
45.970        20
45.980        60
45.990        27
46.000        47
46.010        33
46.020        33
46.030        67
46.040        60
46.050        20
46.060        27
46.070        60
46.080        40
46.090        27
46.100        27
46.110        60
46.120        60
46.130        53
46.140        53
46.150        60
46.160        60
46.170        67
46.180        13
46.190        60
46.200        53
46.210        33
46.220        60
46.230        80
46.240        53
46.250        53
46.260        40
46.270        40
46.280        53
46.290       107
46.300       107
46.310        67
46.320        67
46.330       133
46.340       140
46.350       127
46.360       113
46.370       107
46.380       113
46.390        87
46.400       173
46.410        93
46.420       140
46.430       147
46.440       100
46.450       120
46.460        93
46.470        80
46.480       127
46.490        40
46.500       167
46.510        47
46.520        47
46.530        93
46.540        87
46.550        80
46.560        13
46.570        53
46.580        47
46.590        40
46.600        47
46.610        13
46.620        40
46.630        33
46.640        20
46.650         7
46.660        27
46.670        13
46.680        27
46.690         7
46.700        60
46.710        27
46.720        27
46.730        40
46.740         7
46.750        27
46.760        20
46.770        47
46.780        47
46.790        40
46.800        33
46.810        27
46.820        33
46.830        13
46.840        47
46.850        33
46.860        13
46.870         7
46.880        33
46.890        20
46.900        33
46.910        47
46.920         7
46.930        27
46.940        20
46.950        33
46.960        40
46.970        60
46.980        33
46.990        47
47.000        33
47.010        33
47.020        33
47.030        53
47.040        60
47.050        27
47.060        53
47.070        40
47.080        27
47.090        20
47.100        33
47.110        13
47.120        13
47.130        40
47.140        13
47.150        27
47.160         7
47.170        27
47.180        27
47.190        40
47.200        20
47.210        33
47.220        53
47.230        33
47.240        20
47.250        27
47.260        40
47.270        27
47.280        20
47.290        27
47.300        20
47.310        20
47.320        13
47.330         7
47.340        20
47.350        13
47.360         0
47.370        13
47.380        13
47.390        13
47.400        13
47.410        33
47.420        13
47.430        33
47.440        20
47.450        33
47.460        20
47.470        13
47.480         7
47.490        20
47.500        27
47.510        20
47.520        27
47.530         7
47.540        27
47.550         7
47.560        47
47.570        13
47.580        33
47.590        27
47.600        53
47.610        13
47.620        20
47.630        27
47.640        27
47.650        27
47.660         0
47.670        20
47.680        13
47.690        33
47.700        40
47.710        20
47.720         7
47.730        27
47.740         7
47.750        13
47.760         7
47.770        27
47.780         7
47.790         7
47.800        40
47.810        47
47.820         7
47.830         7
47.840        20
47.850         7
47.860        20
47.870        40
47.880        13
47.890        20
47.900         7
47.910        13
47.920        20
47.930        40
47.940        20
47.950        13
47.960        13
47.970         7
47.980        20
47.990        13
48.000        13
48.010        27
48.020        20
48.030        20
48.040        13
48.050        40
48.060         7
48.070        13
48.080        13
48.090        20
48.100        20
48.110        20
48.120         7
48.130        20
48.140        40
48.150        27
48.160         7
48.170         7
48.180         0
48.190        20
48.200        13
48.210        27
48.220         7
48.230        27
48.240        27
48.250         7
48.260        20
48.270        27
48.280        27
48.290        27
48.300         7
48.310         7
48.320        13
48.330        20
48.340        33
48.350        40
48.360        27
48.370        20
48.380        13
48.390        20
48.400        40
48.410         7
48.420        13
48.430        27
48.440        20
48.450        33
48.460        33
48.470        13
48.480        20
48.490        47
48.500        40
48.510        13
48.520        27
48.530        20
48.540         7
48.550         7
48.560        27
48.570         7
48.580        13
48.590        13
48.600         0
48.610         7
48.620         7
48.630        27
48.640        20
48.650         0
48.660        20
48.670         7
48.680        20
48.690         7
48.700         7
48.710        27
48.720        20
48.730        13
48.740        20
48.750        20
48.760        13
48.770         7
48.780        20
48.790        20
48.800        20
48.810        20
48.820        13
48.830         7
48.840        20
48.850        33
48.860        13
48.870        20
48.880        40
48.890        20
48.900        13
48.910        13
48.920        20
48.930        27
48.940         7
48.950        27
48.960        33
48.970        27
48.980        20
48.990        40
49.000        47
49.010        40
49.020        20
49.030        47
49.040        13
49.050        27
49.060        33
49.070        33
49.080        47
49.090        33
49.100        53
49.110        27
49.120        40
49.130        13
49.140        13
49.150        40
49.160        20
49.170        33
49.180        33
49.190        40
49.200        27
49.210        33
49.220        40
49.230        27
49.240        20
49.250        33
49.260        27
49.270        40
49.280        27
49.290        27
49.300        33
49.310        13
49.320         7
49.330        33
49.340        13
49.350        27
49.360        13
49.370        33
49.380        27
49.390        33
49.400         0
49.410         7
49.420        13
49.430        33
49.440        20
49.450         7
49.460        20
49.470        20
49.480        20
49.490        13
49.500        13
49.510        20
49.520        27
49.530        27
49.540         7
49.550        13
49.560        13
49.570        27
49.580         7
49.590         7
49.600        40
49.610        27
49.620        40
49.630        20
49.640        20
49.650        33
49.660        13
49.670        13
49.680        13
49.690        13
49.700        13
49.710        20
49.720        13
49.730        33
49.740        13
49.750        33
49.760        27
49.770        20
49.780        40
49.790         7
49.800        20
49.810        33
49.820        27
49.830        20
49.840        33
49.850        33
49.860        33
49.870        47
49.880        40
49.890        33
49.900        40
49.910         7
49.920        33
49.930        40
49.940        40
49.950        73
49.960        27
49.970        53
49.980        67
49.990        47
50.000         7
50.010        27
50.020        33
50.030        47
50.040        33
50.050        20
50.060        53
50.070        40
50.080        40
50.090        40
50.100        27
50.110        47
50.120        20
50.130        67
50.140        53
50.150        40
50.160        40
50.170        33
50.180        33
50.190        27
50.200        33
50.210        40
50.220        20
50.230        33
50.240        20
50.250         7
50.260        47
50.270        20
50.280        33
50.290         7
50.300        20
50.310        20
50.320        20
50.330        20
50.340        13
50.350        40
50.360        33
50.370        13
50.380         0
50.390        20
50.400        13
50.410        33
50.420        33
50.430        27
50.440        33
50.450        13
50.460        27
50.470        20
50.480        20
50.490        27
50.500        13
50.510        13
50.520        47
50.530        33
50.540         7
50.550         7
50.560         7
50.570        33
50.580        67
50.590        13
50.600        20
50.610        13
50.620        33
50.630        53
50.640         0
50.650        13
50.660        27
50.670        47
50.680         7
50.690        13
50.700        40
50.710         7
50.720         7
50.730         7
50.740        13
50.750         7
50.760        47
50.770         7
50.780        13
50.790         7
50.800         7
50.810        20
50.820        33
50.830        13
50.840        53
50.850         7
50.860         7
50.870        33
50.880        33
50.890        20
50.900        20
50.910        13
50.920        13
50.930        53
50.940        20
50.950        33
50.960         0
50.970        27
50.980        27
50.990        20
51.000        27
51.010        33
51.020        13
51.030         0
51.040        33
51.050        13
51.060         0
51.070        13
51.080        20
51.090        27
51.100        33
51.110        73
51.120        47
51.130        20
51.140         7
51.150         7
51.160        20
51.170        27
51.180        40
51.190        27
51.200         7
51.210        33
51.220        33
51.230        20
51.240        20
51.250         7
51.260        13
51.270         0
51.280        60
51.290        40
51.300        20
51.310        20
51.320        20
51.330        47
51.340        13
51.350        13
51.360        33
51.370        27
51.380        33
51.390         7
51.400        33
51.410        40
51.420        27
51.430        53
51.440        60
51.450        40
51.460        20
51.470        27
51.480         7
51.490        47
51.500        13
51.510        20
51.520        33
51.530        33
51.540        33
51.550        20
51.560        20
51.570        47
51.580        33
51.590        13
51.600        40
51.610        13
51.620        40
51.630        33
51.640        27
51.650         7
51.660        53
51.670        20
51.680        33
51.690        40
51.700        40
51.710        33
51.720        47
51.730        33
51.740        27
51.750        47
51.760         7
51.770        20
51.780        47
51.790        20
51.800        33
51.810        33
51.820        20
51.830        27
51.840        47
51.850        60
51.860         7
51.870        40
51.880        40
51.890        33
51.900        33
51.910        40
51.920        53
51.930         0
51.940        67
51.950        53
51.960        27
51.970        47
51.980        67
51.990        33
52.000        27
52.010        27
52.020        80
52.030        47
52.040        20
52.050        53
52.060        60
52.070        33
52.080        13
52.090        40
52.100        33
52.110        53
52.120        60
52.130        27
52.140        40
52.150        60
52.160        53
52.170        33
52.180        40
52.190        33
52.200        27
52.210        80
52.220        40
52.230        47
52.240        33
52.250        47
52.260        47
52.270        40
52.280        40
52.290        40
52.300        27
52.310        20
52.320        47
52.330        40
52.340        27
52.350        40
52.360        20
52.370        40
52.380        33
52.390        40
52.400        33
52.410        53
52.420        40
52.430        20
52.440        67
52.450        87
52.460        33
52.470        67
52.480        80
52.490        60
52.500        47
52.510        73
52.520        67
52.530        60
52.540        73
52.550        67
52.560       127
52.570       100
52.580       227
52.590        87
52.600       140
52.610       127
52.620       127
52.630       127
52.640       113
52.650       167
52.660       113
52.670        73
52.680        80
52.690        93
52.700        93
52.710        40
52.720       100
52.730        67
52.740        80
52.750        60
52.760        53
52.770       107
52.780        40
52.790        47
52.800        67
52.810        80
52.820        53
52.830        60
52.840        13
52.850        53
52.860        20
52.870        47
52.880        13
52.890        53
52.900        33
52.910        27
52.920        47
52.930        27
52.940        20
52.950        20
52.960        20
52.970        13
52.980        20
52.990        27
53.000        33
53.010        60
53.020        27
53.030        33
53.040        47
53.050        53
53.060        53
53.070        40
53.080        27
53.090        13
53.100        20
53.110        13
53.120         7
53.130        20
53.140        20
53.150        20
53.160        27
53.170        27
53.180        40
53.190        47
53.200        20
53.210        47
53.220        33
53.230        47
53.240        20
53.250         7
53.260        33
53.270        20
53.280         7
53.290        33
53.300        33
53.310        33
53.320        53
53.330        20
53.340         7
53.350        40
53.360        20
53.370         7
53.380        20
53.390        13
53.400        47
53.410        20
53.420        33
53.430        20
53.440        20
53.450         7
53.460        20
53.470        27
53.480        33
53.490        47
53.500        13
53.510        27
53.520        53
53.530         7
53.540        27
53.550        40
53.560        20
53.570        27
53.580        20
53.590        20
53.600        33
53.610         7
53.620        27
53.630        13
53.640        27
53.650        20
53.660        27
53.670        53
53.680        20
53.690        40
53.700        13
53.710        33
53.720        20
53.730        33
53.740        20
53.750        13
53.760        33
53.770        13
53.780        33
53.790        13
53.800        27
53.810        33
53.820        20
53.830        40
53.840         0
53.850         7
53.860        20
53.870        33
53.880        20
53.890        27
53.900        20
53.910        33
53.920         0
53.930        27
53.940        27
53.950        27
53.960         7
53.970        33
53.980        33
53.990        20
54.000        13
54.010        47
54.020        13
54.030         7
54.040        20
54.050        33
54.060        27
54.070        20
54.080        33
54.090         7
54.100        20
54.110        13
54.120         7
54.130        40
54.140         7
54.150        13
54.160        33
54.170         7
54.180         7
54.190        27
54.200        33
54.210        13
54.220         7
54.230        20
54.240        20
54.250         7
54.260        20
54.270        20
54.280        40
54.290         0
54.300        13
54.310        20
54.320        20
54.330         7
54.340        20
54.350        20
54.360        33
54.370        20
54.380        27
54.390        27
54.400        13
54.410        13
54.420        20
54.430        27
54.440         7
54.450        13
54.460        27
54.470        13
54.480         7
54.490        20
54.500         7
54.510        27
54.520        33
54.530         0
54.540        13
54.550        20
54.560         7
54.570         7
54.580        20
54.590        13
54.600        13
54.610        33
54.620        20
54.630        20
54.640         0
54.650        27
54.660        13
54.670        27
54.680        33
54.690        27
54.700        13
54.710        13
54.720        33
54.730        20
54.740        20
54.750        20
54.760        20
54.770         7
54.780         0
54.790        13
54.800        13
54.810        33
54.820        13
54.830        27
54.840        13
54.850        27
54.860         7
54.870        20
54.880        20
54.890         7
54.900        13
54.910        13
54.920         7
54.930        27
54.940         0
54.950        20
54.960        20
54.970        33
54.980         7
54.990        27
55.000        33
55.010        27
55.020        27
55.030         0
55.040        27
55.050        13
55.060        33
55.070        33
55.080         7
55.090        33
55.100        13
55.110        20
55.120        27
55.130         7
55.140        27
55.150         7
55.160        40
55.170         7
55.180         7
55.190        20
55.200        20
55.210        13
55.220        40
55.230        33
55.240        27
55.250        13
55.260         7
55.270        20
55.280        20
55.290        27
55.300        33
55.310        20
55.320        27
55.330         0
55.340         7
55.350         0
55.360        20
55.370        13
55.380        20
55.390         7
55.400        20
55.410        13
55.420         0
55.430         0
55.440        13
55.450        33
55.460         0
55.470        13
55.480         7
55.490        27
55.500        20
55.510        27
55.520        33
55.530        27
55.540         0
55.550        33
55.560         7
55.570        13
55.580        13
55.590        13
55.600        47
55.610        13
55.620         7
55.630         0
55.640        27
55.650        13
55.660         7
55.670        27
55.680        47
55.690        13
55.700        20
55.710        33
55.720        40
55.730        27
55.740        13
55.750        13
55.760        20
55.770        13
55.780        40
55.790        33
55.800         7
55.810        20
55.820        20
55.830        33
55.840        20
55.850        33
55.860        20
55.870        13
55.880        13
55.890        27
55.900        13
55.910         0
55.920        13
55.930        20
55.940        20
55.950        20
55.960        27
55.970         0
55.980        40
55.990        33
56.000        20
56.010        20
56.020        13
56.030        20
56.040         0
56.050        27
56.060        27
56.070        53
56.080         7
56.090         0
56.100        40
56.110        27
56.120        27
56.130        20
56.140        20
56.150        20
56.160         7
56.170         7
56.180        27
56.190        27
56.200        13
56.210        20
56.220        20
56.230        27
56.240        27
56.250        20
56.260        27
56.270        27
56.280        27
56.290        27
56.300        20
56.310         7
56.320        40
56.330        20
56.340        20
56.350        20
56.360         7
56.370         7
56.380        13
56.390        33
56.400        27
56.410        33
56.420         0
56.430        33
56.440        20
56.450        27
56.460         0
56.470        53
56.480         7
56.490        40
56.500        13
56.510         0
56.520        27
56.530        27
56.540        13
56.550        13
56.560         7
56.570        33
56.580        13
56.590        53
56.600        40
56.610        27
56.620         7
56.630         7
56.640        27
56.650        20
56.660        20
56.670        27
56.680        13
56.690        13
56.700         7
56.710        20
56.720         7
56.730        13
56.740        20
56.750         7
56.760         0
56.770        20
56.780        20
56.790        27
56.800         0
56.810        20
56.820        33
56.830        13
56.840         0
56.850         7
56.860         7
56.870        20
56.880        33
56.890        13
56.900        27
56.910        27
56.920        13
56.930         7
56.940         7
56.950        27
56.960        27
56.970        27
56.980         0
56.990        27
57.000        20
57.010        13
57.020         7
57.030        20
57.040        13
57.050        13
57.060        27
57.070        33
57.080        13
57.090        13
57.100        20
57.110         7
57.120        13
57.130        20
57.140        20
57.150        13
57.160        20
57.170         7
57.180        27
57.190         7
57.200        13
57.210         7
57.220        20
57.230        13
57.240        20
57.250        20
57.260        20
57.270        20
57.280        13
57.290        13
57.300        20
57.310         7
57.320        20
57.330        13
57.340        13
57.350        20
57.360         7
57.370        20
57.380         0
57.390        20
57.400        13
57.410         7
57.420         0
57.430        27
57.440        20
57.450         7
57.460        13
57.470        27
57.480         7
57.490        33
57.500        40
57.510        20
57.520         7
57.530        20
57.540         7
57.550        13
57.560         7
57.570        40
57.580        20
57.590        20
57.600         7
57.610         0
57.620         7
57.630        27
57.640        20
57.650        27
57.660        20
57.670        13
57.680        27
57.690        27
57.700        27
57.710        13
57.720        27
57.730        33
57.740         0
57.750         7
57.760        13
57.770         0
57.780         7
57.790        20
57.800         0
57.810         7
57.820        40
57.830        27
57.840        33
57.850        20
57.860         7
57.870        33
57.880        27
57.890         7
57.900         7
57.910         7
57.920         7
57.930         7
57.940        33
57.950        20
57.960        13
57.970        20
57.980         7
57.990        13
58.000         7
58.010        13
58.020         7
58.030         7
58.040        20
58.050         0
58.060        20
58.070        13
58.080        27
58.090        13
58.100         7
58.110        13
58.120         7
58.130        20
58.140        20
58.150        27
58.160        13
58.170         0
58.180        13
58.190        27
58.200         7
58.210        13
58.220        20
58.230        13
58.240        27
58.250         7
58.260        13
58.270        33
58.280        27
58.290        13
58.300         7
58.310        40
58.320        27
58.330        13
58.340         0
58.350         7
58.360        13
58.370         7
58.380        13
58.390        20
58.400        27
58.410        13
58.420         7
58.430        27
58.440         7
58.450         7
58.460         7
58.470         7
58.480        20
58.490        13
58.500        20
58.510        20
58.520        20
58.530        20
58.540        27
58.550         0
58.560         7
58.570        13
58.580        33
58.590         7
58.600         7
58.610        13
58.620        27
58.630        33
58.640        20
58.650        13
58.660        27
58.670         0
58.680         0
58.690        20
58.700        27
58.710         7
58.720        13
58.730        20
58.740        33
58.750        13
58.760        13
58.770         0
58.780        13
58.790        47
58.800        20
58.810         7
58.820        13
58.830         7
58.840        13
58.850         7
58.860        20
58.870        13
58.880        20
58.890         7
58.900        13
58.910        20
58.920         7
58.930        13
58.940        20
58.950         7
58.960         7
58.970        13
58.980         7
58.990         7
59.000        33
59.010        13
59.020         7
59.030        20
59.040         0
59.050         0
59.060        27
59.070        20
59.080        13
59.090        13
59.100        13
59.110         0
59.120         7
59.130        13
59.140        20
59.150        27
59.160        13
59.170        20
59.180         7
59.190        13
59.200         7
59.210        13
59.220        20
59.230         7
59.240        13
59.250        13
59.260        33
59.270        27
59.280        13
59.290        40
59.300         7
59.310        20
59.320         7
59.330         0
59.340        13
59.350         7
59.360        13
59.370         7
59.380        20
59.390         7
59.400        13
59.410         7
59.420        13
59.430        27
59.440        20
59.450        13
59.460        33
59.470        13
59.480        20
59.490        20
59.500         7
59.510         0
59.520        27
59.530        13
59.540        13
59.550        13
59.560        27
59.570        27
59.580        13
59.590        20
59.600        20
59.610        13
59.620        20
59.630         7
59.640        13
59.650        13
59.660         7
59.670        33
59.680        13
59.690        20
59.700        13
59.710         7
59.720        20
59.730        13
59.740        20
59.750        27
59.760         0
59.770        13
59.780        13
59.790        20
59.800        33
59.810        20
59.820         7
59.830        20
59.840        13
59.850        13
59.860        27
59.870         7
59.880         7
59.890        13
59.900        13
59.910        20
59.920        20
59.930        20
59.940        13
59.950        13
59.960        13
59.970        20
59.980        20
59.990        13
60.000        13
