20.000        47
20.010        47
20.020        73
20.030        40
20.040        73
20.050        67
20.060        53
20.070        67
20.080        60
20.090        33
20.100        27
20.110        40
20.120        60
20.130        73
20.140        53
20.150        20
20.160        60
20.170        27
20.180        47
20.190        40
20.200        40
20.210        20
20.220        20
20.230        40
20.240        60
20.250        53
20.260        33
20.270        53
20.280        47
20.290        53
20.300        27
20.310        20
20.320        53
20.330        53
20.340        73
20.350        27
20.360        47
20.370        47
20.380         0
20.390        73
20.400        40
20.410        80
20.420        33
20.430        53
20.440        33
20.450        27
20.460        60
20.470        40
20.480        13
20.490        47
20.500        27
20.510        40
20.520        53
20.530        40
20.540        20
20.550        47
20.560        27
20.570        13
20.580        40
20.590        20
20.600        27
20.610        47
20.620        20
20.630        33
20.640        20
20.650        33
20.660        20
20.670        33
20.680        73
20.690        47
20.700        33
20.710        20
20.720        33
20.730        47
20.740        80
20.750        33
20.760        40
20.770        40
20.780        40
20.790        47
20.800        60
20.810        27
20.820        73
20.830        33
20.840        67
20.850        13
20.860        20
20.870        40
20.880        73
20.890        33
20.900        27
20.910        67
20.920        47
20.930        40
20.940        40
20.950        20
20.960        47
20.970        27
20.980        27
20.990        40
21.000        60
21.010        53
21.020        53
21.030        13
21.040        47
21.050        27
21.060        27
21.070        53
21.080        67
21.090        53
21.100        60
21.110        87
21.120        27
21.130        13
21.140        40
21.150        20
21.160        27
21.170        60
21.180        40
21.190        67
21.200        33
21.210        47
21.220        20
21.230        40
21.240        20
21.250        73
21.260        20
21.270        67
21.280        60
21.290        47
21.300        33
21.310        40
21.320        67
21.330        33
21.340        40
21.350        40
21.360        47
21.370        47
21.380        33
21.390        47
21.400        47
21.410        67
21.420        27
21.430        53
21.440        13
21.450        60
21.460        53
21.470        60
21.480        47
21.490        47
21.500        60
21.510        20
21.520        60
21.530        47
21.540        33
21.550        27
21.560        47
21.570        20
21.580        60
21.590        40
21.600        20
21.610        33
21.620        20
21.630        40
21.640        33
21.650        27
21.660        53
21.670        60
21.680        47
21.690        60
21.700        20
21.710        47
21.720        47
21.730         7
21.740        53
21.750        53
21.760        47
21.770        73
21.780        27
21.790        47
21.800        20
21.810        20
21.820        33
21.830        60
21.840        67
21.850        33
21.860        33
21.870        20
21.880        33
21.890        47
21.900        27
21.910        33
21.920        33
21.930        27
21.940        20
21.950        40
21.960        40
21.970        27
21.980        27
21.990        53
22.000        20
22.010        13
22.020        40
22.030        53
22.040        33
22.050        33
22.060        33
22.070        33
22.080        40
22.090        27
22.100        73
22.110        40
22.120        20
22.130        33
22.140        80
22.150        47
22.160        20
22.170        60
22.180        13
22.190        40
22.200        13
22.210        67
22.220        40
22.230        33
22.240        20
22.250        60
22.260        27
22.270        87
22.280        40
22.290        33
22.300        13
22.310        67
22.320        20
22.330        73
22.340        27
22.350        20
22.360        27
22.370        60
22.380        47
22.390        73
22.400        60
22.410        40
22.420        93
22.430        33
22.440        80
22.450        80
22.460        67
22.470        67
22.480       100
22.490       100
22.500       100
22.510        80
22.520       153
22.530       147
22.540       180
22.550       147
22.560       180
22.570       127
22.580       267
22.590       180
22.600       240
22.610       293
22.620       287
22.630       320
22.640       267
22.650       233
22.660       273
22.670       353
22.680       280
22.690       313
22.700       213
22.710       247
22.720       187
22.730       207
22.740       160
22.750        93
22.760       107
22.770       120
22.780        73
22.790        80
22.800        67
22.810        80
22.820        67
22.830        53
22.840       127
22.850        73
22.860        87
22.870        93
22.880        87
22.890       107
22.900       187
22.910       120
22.920       107
22.930        93
22.940       173
22.950       113
22.960        87
22.970       120
22.980        73
22.990       100
23.000        67
23.010        80
23.020        33
23.030        73
23.040       107
23.050        80
23.060        33
23.070        67
23.080        67
23.090        53
23.100        47
23.110        27
23.120        47
23.130        33
23.140        27
23.150        73
23.160        40
23.170        47
23.180        47
23.190        27
23.200        40
23.210        47
23.220        27
23.230        33
23.240        40
23.250         0
23.260        60
23.270        47
23.280        20
23.290        27
23.300        33
23.310        33
23.320        27
23.330        33
23.340        20
23.350        33
23.360        20
23.370        27
23.380        60
23.390        40
23.400        73
23.410        40
23.420        27
23.430        13
23.440        33
23.450        33
23.460        47
23.470        27
23.480        33
23.490        33
23.500        40
23.510        40
23.520        20
23.530        53
23.540        33
23.550        33
23.560        33
23.570         7
23.580        33
23.590        27
23.600        40
23.610        20
23.620        73
23.630        20
23.640        27
23.650        33
23.660        47
23.670        47
23.680        40
23.690         7
23.700        33
23.710        27
23.720        67
23.730        27
23.740        40
23.750        80
23.760        40
23.770        20
23.780        47
23.790         7
23.800        27
23.810        27
23.820        20
23.830        47
23.840        80
23.850        33
23.860        47
23.870         7
23.880        60
23.890        33
23.900        40
23.910        20
23.920        67
23.930        33
23.940        20
23.950        27
23.960        40
23.970        13
23.980        53
23.990        27
24.000        13
24.010        47
24.020        27
24.030        60
24.040        40
24.050        20
24.060        27
24.070        13
24.080        13
24.090        27
24.100        33
24.110        33
24.120        27
24.130        60
24.140        13
24.150        53
24.160        53
24.170        33
24.180        40
24.190        53
24.200        20
24.210        20
24.220        60
24.230        40
24.240        20
24.250        20
24.260        40
24.270        33
24.280        27
24.290        47
24.300        47
24.310        33
24.320        33
24.330        53
24.340        27
24.350        27
24.360        13
24.370        40
24.380        20
24.390        53
24.400        20
24.410        53
24.420        33
24.430        40
24.440        53
24.450        33
24.460        20
24.470        40
24.480        33
24.490        33
24.500        40
24.510        20
24.520        33
24.530        27
24.540        27
24.550        47
24.560        40
24.570        40
24.580        47
24.590        47
24.600        47
24.610        47
24.620        40
24.630        33
24.640        27
24.650        20
24.660        27
24.670        60
24.680        20
24.690        20
24.700        33
24.710        53
24.720        67
24.730        80
24.740        67
24.750        27
24.760        47
24.770        80
24.780        13
24.790        73
24.800        60
24.810        60
24.820        40
24.830        53
24.840        27
24.850        33
24.860        53
24.870        60
24.880        27
24.890        40
24.900        40
24.910         7
24.920        40
24.930        53
24.940        20
24.950        33
24.960        13
24.970        40
24.980        13
24.990        27
25.000        40
25.010        33
25.020        27
25.030        40
25.040        93
25.050        33
25.060        20
25.070        40
25.080        33
25.090        27
25.100        13
25.110        33
25.120        20
25.130        13
25.140        20
25.150        33
25.160        33
25.170        33
25.180         7
25.190        53
25.200        33
25.210        27
25.220        20
25.230        40
25.240        53
25.250        53
25.260        20
25.270        27
25.280        27
25.290        27
25.300        47
25.310        27
25.320        33
25.330        27
25.340        13
25.350        40
25.360        20
25.370        27
25.380        27
25.390         7
25.400        27
25.410        33
25.420        13
25.430        33
25.440        13
25.450        27
25.460        47
25.470        47
25.480        47
25.490        20
25.500        47
25.510        60
25.520        27
25.530        67
25.540        27
25.550        47
25.560        33
25.570        40
25.580        33
25.590        13
25.600        67
25.610        60
25.620        33
25.630        27
25.640        27
25.650        27
25.660        40
25.670        47
25.680        40
25.690        40
25.700        33
25.710        40
25.720        53
25.730        73
25.740       100
25.750        60
25.760        27
25.770        47
25.780        47
25.790        47
25.800        27
25.810        47
25.820        40
25.830        67
25.840        47
25.850        27
25.860        27
25.870        27
25.880        33
25.890        20
25.900        33
25.910        33
25.920        27
25.930        80
25.940        33
25.950        53
25.960        40
25.970        27
25.980        27
25.990        33
26.000        27
26.010        33
26.020        47
26.030        33
26.040        53
26.050        40
26.060         7
26.070        60
26.080        20
26.090        40
26.100        40
26.110        40
26.120        33
26.130        27
26.140        27
26.150         7
26.160        27
26.170        20
26.180        40
26.190        40
26.200        33
26.210        20
26.220        33
26.230         7
26.240        27
26.250        13
26.260        20
26.270        40
26.280        40
26.290        33
26.300        27
26.310        27
26.320        40
26.330        40
26.340        20
26.350        20
26.360        13
26.370        27
26.380        20
26.390        73
26.400        33
26.410        27
26.420        80
26.430        40
26.440        33
26.450        40
26.460        27
26.470        40
26.480        47
26.490        47
26.500        20
26.510        27
26.520        40
26.530        40
26.540        27
26.550        27
26.560        13
26.570        13
26.580        33
26.590         0
26.600        13
26.610        40
26.620        27
26.630        20
26.640        47
26.650        40
26.660        20
26.670        33
26.680         7
26.690        47
26.700        53
26.710        27
26.720        13
26.730        20
26.740        20
26.750        53
26.760        33
26.770        13
26.780        27
26.790        27
26.800         7
26.810        27
26.820        33
26.830        27
26.840        33
26.850        27
26.860        40
26.870        47
26.880        27
26.890        40
26.900        13
26.910        33
26.920        53
26.930        27
26.940        20
26.950        27
26.960        13
26.970        40
26.980        40
26.990        47
27.000        33
27.010        20
27.020        13
27.030        13
27.040        40
27.050        20
27.060        40
27.070        13
27.080        20
27.090        27
27.100        13
27.110        47
27.120        20
27.130        40
27.140        20
27.150        47
27.160        27
27.170        47
27.180        20
27.190        33
27.200        20
27.210        20
27.220         7
27.230        40
27.240        33
27.250         0
27.260        27
27.270        13
27.280        67
27.290        13
27.300        27
27.310         7
27.320        40
27.330        20
27.340        33
27.350        20
27.360        27
27.370        13
27.380        33
27.390        20
27.400        40
27.410        27
27.420        20
27.430        40
27.440        20
27.450        33
27.460         7
27.470        27
27.480        13
27.490        13
27.500        20
27.510        47
27.520        27
27.530        33
27.540        20
27.550        33
27.560        47
27.570        33
27.580        13
27.590        33
27.600        27
27.610        40
27.620        20
27.630        40
27.640        33
27.650        33
27.660        27
27.670        27
27.680        27
27.690        33
27.700        40
27.710        27
27.720        13
27.730        20
27.740        47
27.750        27
27.760        27
27.770         7
27.780        40
27.790        27
27.800        33
27.810        20
27.820        33
27.830        20
27.840        27
27.850        20
27.860        33
27.870         7
27.880        40
27.890        33
27.900        27
27.910        13
27.920        20
27.930        20
27.940        13
27.950        33
27.960        27
27.970        13
27.980        20
27.990        20
28.000        53
28.010        40
28.020        20
28.030        27
28.040        13
28.050        60
28.060        20
28.070        13
28.080        20
28.090        40
28.100        20
28.110        13
28.120        27
28.130        33
28.140        40
28.150        27
28.160        40
28.170        27
28.180        33
28.190        53
28.200        40
28.210        27
28.220        33
28.230        13
28.240        67
28.250        40
28.260        47
28.270        27
28.280        40
28.290        20
28.300        20
28.310        20
28.320        47
28.330        27
28.340         7
28.350        67
28.360        60
28.370        60
28.380        40
28.390        40
28.400        53
28.410        13
28.420        47
28.430        20
28.440        20
28.450        53
28.460        20
28.470         7
28.480        27
28.490        47
28.500        47
28.510        20
28.520        33
28.530        47
28.540        40
28.550        20
28.560        80
28.570        27
28.580        40
28.590        33
28.600        27
28.610        27
28.620        33
28.630        40
28.640        20
28.650        27
28.660        53
28.670        13
28.680        13
28.690        40
28.700        40
28.710        27
28.720        20
28.730        33
28.740        33
28.750        53
28.760        27
28.770        27
28.780        13
28.790        20
28.800        60
28.810        40
28.820        13
28.830        40
28.840        40
28.850        40
28.860        27
28.870        73
28.880        20
28.890        20
28.900        27
28.910        27
28.920        40
28.930        47
28.940        33
28.950        33
28.960        47
28.970        33
28.980        53
28.990        47
29.000        33
29.010        40
29.020        13
29.030        40
29.040        47
29.050        47
29.060        20
29.070        60
29.080        20
29.090        53
29.100        33
29.110        13
29.120        40
29.130        40
29.140        27
29.150        27
29.160        33
29.170        33
29.180        47
29.190        73
29.200        53
29.210        27
29.220        33
29.230        13
29.240        47
29.250       107
29.260        80
29.270        67
29.280        87
29.290        67
29.300        67
29.310       100
29.320        93
29.330        73
29.340        73
29.350        60
29.360        27
29.370        87
29.380        47
29.390        53
29.400        73
29.410        67
29.420        33
29.430        67
29.440        13
29.450        87
29.460        40
29.470        67
29.480        40
29.490        60
29.500        53
29.510        80
29.520        93
29.530       100
29.540       133
29.550        87
29.560        67
29.570        73
29.580        67
29.590        67
29.600        53
29.610        53
29.620        47
29.630        33
29.640        60
29.650        33
29.660        20
29.670        27
29.680        27
29.690        33
29.700        33
29.710        33
29.720        27
29.730        13
29.740        40
29.750         7
29.760        33
29.770        20
29.780         7
29.790        33
29.800        13
29.810        40
29.820        27
29.830        13
29.840        33
29.850        20
29.860        47
29.870        13
29.880        20
29.890        20
29.900        27
29.910        47
29.920        47
29.930        27
29.940        27
29.950        13
29.960        13
29.970        13
29.980        40
29.990        20
30.000        40
30.010        20
30.020        20
30.030        27
30.040        27
30.050         7
30.060        33
30.070        40
30.080        20
30.090         7
30.100        47
30.110        20
30.120         0
30.130         0
30.140        13
30.150        13
30.160        33
30.170        33
30.180        20
30.190         0
30.200        33
30.210        13
30.220        40
30.230        27
30.240        13
30.250        40
30.260        20
30.270         0
30.280        13
30.290        33
30.300        13
30.310        13
30.320        20
30.330        33
30.340         7
30.350        27
30.360        20
30.370        40
30.380        33
30.390        13
30.400        13
30.410        20
30.420        53
30.430        40
30.440        20
30.450        47
30.460        47
30.470        33
30.480         7
30.490        20
30.500        20
30.510        33
30.520        20
30.530        20
30.540        40
30.550        20
30.560        60
30.570        13
30.580        13
30.590        40
30.600        33
30.610        27
30.620        13
30.630         7
30.640        60
30.650        20
30.660        47
30.670        47
30.680        20
30.690         7
30.700        40
30.710        53
30.720        33
30.730        13
30.740        33
30.750        13
30.760         7
30.770        33
30.780        20
30.790        13
30.800        13
30.810        20
30.820        33
30.830         7
30.840        13
30.850        27
30.860        27
30.870        20
30.880        27
30.890        13
30.900        40
30.910        13
30.920        40
30.930         7
30.940         7
30.950        13
30.960        13
30.970         7
30.980        20
30.990         7
31.000        20
31.010        27
31.020        20
31.030        27
31.040        13
31.050        13
31.060        47
31.070        13
31.080        20
31.090        40
31.100         7
31.110        47
31.120        20
31.130        47
31.140        13
31.150        33
31.160        20
31.170         7
31.180        20
31.190        33
31.200        40
31.210        13
31.220        13
31.230        13
31.240        20
31.250        27
31.260        20
31.270        27
31.280        60
31.290        27
31.300        27
31.310        13
31.320        20
31.330        27
31.340        40
31.350        27
31.360        27
31.370        20
31.380        27
31.390        27
31.400        20
31.410        33
31.420        27
31.430        13
31.440        13
31.450        20
31.460        33
31.470        33
31.480        40
31.490        27
31.500        20
31.510        20
31.520        20
31.530        40
31.540         0
31.550        47
31.560         7
31.570        13
31.580        13
31.590         7
31.600        33
31.610         7
31.620        33
31.630        20
31.640        40
31.650        33
31.660         7
31.670        13
31.680        33
31.690        13
31.700        27
31.710        13
31.720        40
31.730        13
31.740        13
31.750        27
31.760        13
31.770         0
31.780         7
31.790        27
31.800        40
31.810        20
31.820         7
31.830        13
31.840        20
31.850        27
31.860        20
31.870        13
31.880        20
31.890        27
31.900         7
31.910        27
31.920        27
31.930        13
31.940        20
31.950        27
31.960        33
31.970        60
31.980        33
31.990        47
32.000         0
32.010        40
32.020        27
32.030        27
32.040         0
32.050        33
32.060        40
32.070        40
32.080        47
32.090        53
32.100        20
32.110        33
32.120        47
32.130        20
32.140        27
32.150        73
32.160        20
32.170        33
32.180        13
32.190        60
32.200        53
32.210         7
32.220        13
32.230        27
32.240        53
32.250        13
32.260        33
32.270        13
32.280        20
32.290        20
32.300        47
32.310        20
32.320        20
32.330        40
32.340        27
32.350        27
32.360        20
32.370        20
32.380        13
32.390        27
32.400         0
32.410         7
32.420        47
32.430        20
32.440        20
32.450        13
32.460        13
32.470        20
32.480        27
32.490        33
32.500        47
32.510        47
32.520         7
32.530        33
32.540        40
32.550        53
32.560        40
32.570        33
32.580        33
32.590        27
32.600        27
32.610        33
32.620        33
32.630         0
32.640        27
32.650        60
32.660        27
32.670        27
32.680        33
32.690        33
32.700        13
32.710        60
32.720        27
32.730        33
32.740        13
32.750        40
32.760        33
32.770        40
32.780        27
32.790        13
32.800         7
32.810        33
32.820        27
32.830        27
32.840        40
32.850         7
32.860         7
32.870        13
32.880        33
32.890        13
32.900        20
32.910        20
32.920        20
32.930         7
32.940        13
32.950         7
32.960        13
32.970         7
32.980        13
32.990        20
33.000         0
33.010        13
33.020        13
33.030        60
33.040        33
33.050        33
33.060        20
33.070         0
33.080        40
33.090        20
33.100        33
33.110        13
33.120         0
33.130        13
33.140        20
33.150         0
33.160        33
33.170        20
33.180         0
33.190        13
33.200        20
33.210        20
33.220        27
33.230        13
33.240        20
33.250        13
33.260        13
33.270        13
33.280        40
33.290        13
33.300         7
33.310        27
33.320        40
33.330         7
33.340        87
33.350        20
33.360        33
33.370        27
33.380         0
33.390        13
33.400        20
33.410        40
33.420         7
33.430         7
33.440         7
33.450        60
33.460        40
33.470        13
33.480        27
33.490        20
33.500        33
33.510         7
33.520         0
33.530        13
33.540        33
33.550        13
33.560        27
33.570        20
33.580        13
33.590        27
33.600        13
33.610        27
33.620        20
33.630        13
33.640        13
33.650         0
33.660         7
33.670        27
33.680         7
33.690        20
33.700        40
33.710        27
33.720         0
33.730        13
33.740        20
33.750        27
33.760        27
33.770        33
33.780        33
33.790        27
33.800         7
33.810         7
33.820        13
33.830        27
33.840        27
33.850        20
33.860        33
33.870        27
33.880        13
33.890        13
33.900         7
33.910        27
33.920        20
33.930        13
33.940         7
33.950         7
33.960        20
33.970        33
33.980        20
33.990        27
34.000        27
34.010         7
34.020         7
34.030        20
34.040        40
34.050        47
34.060        20
34.070        20
34.080         0
34.090        33
34.100        13
34.110        20
34.120        27
34.130        20
34.140        33
34.150        13
34.160        20
34.170        47
34.180        27
34.190        27
34.200        20
34.210        13
34.220        13
34.230        33
34.240        20
34.250        40
34.260        20
34.270        27
34.280        27
34.290        20
34.300        40
34.310        20
34.320         0
34.330        13
34.340        20
34.350        40
34.360        13
34.370        33
34.380        13
34.390        13
34.400         0
34.410        53
34.420        20
34.430        20
34.440        13
34.450        13
34.460        27
34.470        13
34.480        40
34.490        33
34.500        33
34.510         7
34.520        20
34.530        20
34.540         7
34.550        33
34.560        40
34.570         0
34.580        20
34.590        33
34.600        13
34.610        40
34.620        27
34.630        13
34.640        20
34.650        47
34.660        13
34.670        27
34.680        13
34.690        40
34.700        33
34.710        27
34.720        13
34.730        60
34.740        33
34.750        13
34.760        27
34.770        40
34.780        27
34.790         7
34.800        20
34.810        20
34.820        33
34.830        33
34.840        13
34.850        27
34.860         0
34.870        40
34.880         7
34.890        60
34.900         7
34.910        33
34.920        27
34.930        40
34.940         7
34.950        20
34.960        40
34.970        27
34.980        20
34.990        20
35.000        20
35.010         7
35.020         0
35.030         7
35.040        13
35.050        27
35.060        20
35.070        20
35.080        53
35.090        27
35.100        33
35.110        40
35.120        27
35.130         7
35.140        13
35.150        20
35.160        33
35.170        20
35.180         7
35.190        27
35.200         0
35.210        13
35.220        47
35.230        20
35.240        27
35.250         7
35.260         0
35.270        13
35.280        20
35.290        20
35.300        13
35.310        27
35.320        13
35.330         7
35.340        20
35.350        20
35.360        20
35.370        53
35.380        20
35.390        27
35.400         7
35.410        13
35.420        47
35.430         7
35.440        20
35.450         7
35.460        20
35.470        20
35.480        13
35.490         7
35.500        20
35.510         7
35.520        27
35.530        20
35.540        20
35.550        20
35.560        13
35.570         0
35.580        20
35.590        33
35.600        13
35.610        13
35.620        33
35.630        13
35.640        40
35.650        33
35.660        27
35.670        20
35.680        27
35.690        20
35.700        20
35.710        33
35.720        27
35.730        27
35.740        27
35.750         0
35.760        47
35.770        27
35.780        47
35.790         7
35.800        20
35.810        33
35.820        27
35.830        27
35.840        27
35.850        47
35.860        27
35.870        13
35.880        47
35.890         7
35.900        13
35.910        20
35.920        27
35.930        40
35.940         0
35.950        13
35.960        40
35.970        27
35.980        20
35.990        33
36.000        20
36.010        27
36.020        33
36.030        33
36.040        20
36.050        27
36.060        33
36.070        13
36.080        13
36.090        13
36.100        20
36.110         7
36.120        20
36.130        20
36.140        13
36.150         7
36.160        27
36.170         0
36.180        13
36.190        20
36.200        13
36.210        33
36.220        20
36.230        20
36.240        53
36.250         7
36.260        20
36.270        20
36.280        20
36.290        13
36.300        13
36.310        27
36.320         0
36.330        13
36.340        13
36.350        13
36.360         7
36.370        13
36.380        27
36.390        13
36.400        27
36.410         7
36.420        20
36.430        13
36.440        47
36.450        20
36.460        33
36.470        27
36.480        13
36.490        20
36.500        13
36.510        27
36.520        27
36.530        27
36.540        20
36.550         0
36.560        20
36.570         7
36.580         7
36.590        13
36.600        20
36.610         0
36.620        13
36.630        20
36.640        13
36.650        27
36.660        20
36.670         7
36.680         7
36.690        27
36.700        20
36.710        20
36.720         7
36.730        13
36.740        20
36.750        13
36.760         7
36.770        20
36.780         7
36.790        27
36.800        20
36.810         7
36.820         7
36.830         7
36.840        27
36.850        20
36.860         7
36.870        20
36.880        13
36.890         7
36.900         7
36.910        27
36.920         0
36.930        20
36.940        27
36.950        40
36.960        20
36.970        13
36.980        13
36.990        20
37.000         7
37.010        13
37.020        40
37.030        20
37.040        27
37.050        33
37.060        27
37.070        13
37.080         7
37.090        20
37.100        27
37.110         7
37.120        33
37.130        33
37.140        27
37.150         0
37.160         7
37.170         0
37.180         0
37.190        13
37.200        20
37.210        27
37.220        13
37.230         0
37.240        20
37.250         7
37.260         7
37.270         7
37.280        13
37.290        13
37.300        13
37.310         0
37.320        20
37.330        13
37.340        33
37.350         7
37.360         7
37.370         7
37.380         0
37.390        20
37.400        13
37.410        27
37.420        40
37.430        40
37.440        13
37.450        20
37.460        40
37.470        20
37.480        20
37.490        27
37.500        47
37.510        40
37.520        20
37.530        27
37.540        13
37.550        13
37.560        20
37.570        27
37.580        40
37.590        13
37.600        13
37.610        60
37.620        20
37.630        20
37.640         7
37.650        20
37.660        33
37.670        13
37.680        40
37.690         7
37.700        47
37.710        27
37.720        47
37.730        20
37.740        13
37.750        20
37.760        13
37.770         7
37.780         7
37.790         7
37.800        20
37.810        20
37.820        13
37.830        13
37.840        20
37.850        33
37.860        20
37.870        13
37.880        13
37.890        27
37.900        33
37.910         7
37.920        20
37.930         7
37.940        33
37.950        20
37.960        20
37.970        20
37.980        27
37.990        20
38.000        27
38.010        20
38.020        20
38.030        13
38.040        33
38.050         7
38.060        27
38.070        13
38.080        33
38.090        13
38.100        47
38.110        27
38.120        13
38.130         0
38.140        13
38.150        13
38.160        13
38.170         0
38.180         7
38.190        27
38.200        13
38.210        13
38.220        33
38.230        13
38.240        33
38.250        27
38.260        33
38.270        40
38.280        20
38.290         7
38.300        13
38.310        40
38.320        27
38.330        27
38.340        33
38.350        40
38.360        33
38.370        33
38.380        33
38.390        20
38.400         7
38.410        13
38.420        20
38.430        13
38.440        27
38.450        33
38.460        13
38.470        47
38.480        13
38.490         7
38.500        33
38.510         7
38.520        27
38.530        13
38.540         7
38.550        40
38.560        20
38.570         7
38.580        33
38.590        27
38.600        20
38.610        27
38.620        27
38.630        20
38.640         0
38.650        40
38.660         7
38.670        27
38.680        13
38.690        20
38.700         7
38.710         7
38.720         0
38.730        27
38.740        13
38.750        13
38.760        13
38.770        20
38.780        13
38.790         0
38.800        27
38.810        33
38.820         0
38.830         7
38.840         7
38.850        33
38.860        13
38.870        20
38.880        20
38.890        20
38.900         7
38.910        67
38.920        20
38.930        27
38.940        40
38.950        20
38.960         0
38.970        27
38.980        13
38.990        20
39.000        40
39.010         7
39.020        27
39.030        20
39.040        33
39.050        40
39.060        33
39.070        13
39.080        67
39.090        20
39.100        13
39.110         0
39.120         0
39.130         7
39.140        40
39.150        33
39.160        27
39.170        27
39.180        47
39.190        40
39.200        47
39.210        20
39.220        33
39.230        40
39.240        13
39.250        27
39.260        40
39.270        27
39.280         7
39.290        73
39.300        53
39.310        47
39.320         7
39.330        33
39.340        40
39.350        60
39.360         7
39.370        47
39.380        13
39.390        13
39.400        33
39.410        13
39.420        47
39.430        20
39.440        53
39.450        33
39.460        20
39.470        20
39.480        13
39.490        27
39.500         7
39.510         7
39.520        40
39.530        13
39.540        33
39.550        27
39.560        20
39.570        13
39.580        27
39.590        13
39.600        60
39.610        13
39.620        13
39.630         0
39.640        27
39.650        13
39.660        27
39.670        20
39.680        20
39.690        20
39.700        13
39.710        13
39.720        27
39.730        27
39.740        13
39.750        20
39.760        47
39.770        47
39.780        20
39.790         7
39.800        13
39.810        20
39.820         0
39.830        13
39.840        40
39.850         7
39.860        33
39.870         7
39.880        13
39.890        20
39.900        13
39.910         7
39.920         7
39.930        33
39.940        13
39.950        27
39.960         7
39.970        67
39.980        13
39.990        13
40.000         7
40.010        20
40.020        40
40.030        33
40.040        20
40.050         7
40.060        20
40.070        13
40.080        13
40.090        27
40.100        13
40.110        13
40.120        27
40.130         7
40.140        27
40.150        13
40.160        20
40.170        27
40.180        13
40.190        13
40.200         7
40.210        13
40.220        27
40.230        33
40.240        33
40.250        40
40.260        13
40.270        20
40.280        20
40.290        40
40.300        27
40.310         7
40.320         7
40.330         7
40.340        13
40.350        13
40.360        20
40.370         0
40.380        47
40.390        27
40.400        13
40.410        27
40.420        13
40.430         7
40.440         7
40.450        20
40.460        27
40.470        13
40.480        20
40.490        27
40.500        47
40.510        27
40.520        13
40.530         7
40.540        20
40.550        33
40.560         0
40.570         7
40.580        27
40.590         7
40.600        13
40.610        20
40.620        40
40.630         7
40.640        27
40.650        27
40.660        13
40.670         0
40.680         7
40.690        20
40.700        13
40.710        27
40.720        13
40.730         7
40.740        13
40.750        20
40.760        27
40.770         0
40.780        27
40.790        20
40.800        20
40.810         7
40.820         7
40.830        20
40.840        40
40.850        20
40.860        60
40.870        27
40.880         7
40.890        13
40.900        27
40.910        20
40.920        13
40.930        33
40.940        33
40.950        40
40.960        13
40.970         7
40.980        20
40.990        13
41.000        33
41.010         7
41.020        27
41.030        20
41.040        53
41.050        20
41.060        27
41.070        33
41.080        13
41.090        13
41.100        27
41.110        13
41.120        13
41.130         7
41.140        33
41.150        40
41.160         7
41.170        13
41.180         0
41.190         7
41.200        40
41.210        20
41.220        20
41.230        20
41.240        13
41.250        13
41.260         0
41.270        27
41.280        13
41.290        27
41.300        27
41.310        13
41.320        13
41.330        20
41.340         7
41.350        20
41.360        13
41.370        33
41.380        20
41.390        20
41.400        33
41.410        13
41.420        13
41.430        13
41.440        27
41.450        13
41.460        13
41.470        20
41.480        13
41.490        33
41.500        27
41.510         7
41.520        20
41.530        40
41.540        20
41.550         7
41.560        27
41.570         7
41.580        27
41.590         7
41.600         7
41.610        20
41.620        33
41.630        27
41.640        47
41.650         7
41.660         7
41.670         7
41.680        33
41.690        27
41.700        47
41.710        27
41.720        33
41.730        33
41.740        33
41.750        20
41.760        40
41.770         7
41.780        13
41.790        20
41.800        33
41.810         7
41.820        13
41.830        27
41.840        20
41.850        20
41.860        13
41.870        20
41.880        13
41.890         0
41.900        27
41.910        20
41.920        13
41.930        20
41.940        20
41.950        20
41.960        13
41.970        20
41.980         7
41.990         7
42.000         7
42.010         0
42.020        20
42.030         7
42.040         7
42.050        27
42.060        20
42.070        53
42.080        13
42.090        27
42.100        13
42.110        13
42.120         0
42.130        20
42.140        40
42.150        13
42.160        33
42.170        20
42.180        20
42.190        40
42.200         7
42.210        20
42.220        40
42.230        27
42.240        20
42.250        27
42.260        27
42.270        33
42.280        13
42.290        40
42.300        60
42.310        20
42.320        20
42.330        33
42.340        53
42.350        47
42.360        27
42.370        27
42.380        33
42.390        13
42.400        20
42.410        33
42.420         7
42.430        33
42.440        13
42.450        20
42.460        20
42.470        13
42.480        20
42.490        27
42.500        13
42.510        20
42.520        13
42.530        13
42.540        20
42.550        20
42.560        20
42.570        27
42.580         7
42.590        27
42.600         7
42.610        20
42.620        20
42.630        27
42.640        13
42.650        33
42.660        13
42.670        20
42.680         7
42.690        20
42.700        20
42.710        27
42.720        33
42.730        27
42.740        27
42.750        27
42.760        27
42.770        40
42.780        20
42.790        27
42.800        13
42.810         7
42.820        13
42.830         7
42.840        40
42.850        20
42.860        27
42.870        13
42.880        27
42.890        20
42.900        33
42.910        20
42.920        40
42.930        27
42.940        27
42.950        20
42.960        13
42.970        53
42.980        13
42.990        80
43.000        13
43.010        13
43.020        13
43.030        33
43.040        20
43.050        27
43.060        20
43.070        40
43.080        40
43.090        73
43.100        20
43.110        13
43.120        47
43.130        20
43.140        33
43.150        13
43.160        13
43.170        40
43.180        33
43.190        13
43.200        40
43.210        33
43.220        47
43.230        40
43.240        40
43.250        13
43.260        47
43.270         7
43.280        33
43.290         7
43.300        20
43.310        33
43.320         7
43.330        13
43.340        47
43.350        13
43.360         7
43.370        13
43.380        33
43.390        20
43.400         7
43.410         7
43.420         0
43.430        13
43.440        33
43.450        13
43.460        13
43.470        20
43.480        20
43.490        13
43.500        40
43.510        40
43.520         7
43.530        20
43.540         7
43.550        27
43.560         0
43.570         7
43.580        40
43.590        40
43.600        13
43.610        13
43.620        40
43.630        20
43.640        20
43.650         7
43.660        27
43.670        20
43.680         7
43.690        33
43.700        20
43.710         0
43.720        20
43.730        20
43.740         7
43.750        27
43.760        20
43.770        33
43.780        13
43.790        20
43.800         7
43.810        13
43.820         0
43.830        13
43.840        13
43.850        13
43.860        27
43.870        33
43.880        20
43.890        33
43.900        20
43.910        13
43.920        47
43.930        27
43.940         7
43.950         7
43.960        13
43.970        13
43.980        53
43.990         0
44.000        27
44.010         7
44.020        13
44.030        13
44.040        13
44.050        33
44.060        20
44.070        40
44.080        13
44.090         0
44.100        13
44.110        20
44.120        27
44.130        20
44.140        13
44.150         7
44.160        27
44.170        27
44.180        20
44.190        27
44.200         7
44.210        13
44.220        20
44.230        33
44.240        27
44.250         0
44.260        33
44.270        27
44.280        40
44.290        13
44.300        13
44.310        20
44.320        40
44.330         7
44.340        27
44.350        13
44.360        33
44.370         0
44.380        20
44.390        20
44.400         0
44.410        27
44.420        20
44.430        20
44.440        27
44.450        20
44.460        20
44.470        33
44.480         7
44.490         7
44.500        27
44.510        13
44.520        20
44.530        33
44.540         0
44.550        27
44.560        13
44.570         7
44.580        13
44.590         7
44.600         7
44.610        13
44.620        27
44.630        20
44.640        27
44.650         7
44.660        13
44.670         7
44.680        27
44.690         0
44.700        27
44.710        20
44.720        27
44.730        40
44.740        13
44.750         0
44.760        20
44.770        27
44.780        33
44.790        27
44.800        13
44.810        20
44.820        27
44.830         7
44.840        20
44.850        13
44.860        33
44.870        40
44.880        13
44.890        40
44.900        13
44.910        13
44.920         7
44.930        33
44.940        13
44.950        13
44.960        27
44.970        13
44.980        33
44.990        47
45.000        20
45.010        13
45.020        20
45.030        27
45.040        20
45.050        40
45.060        33
45.070        13
45.080        40
45.090        27
45.100         7
45.110        27
45.120        27
45.130        33
45.140         0
45.150        20
45.160        33
45.170        13
45.180        53
45.190        13
45.200         7
45.210        13
45.220        33
45.230        20
45.240        27
45.250         7
45.260        13
45.270        20
45.280        47
45.290        33
45.300        27
45.310        20
45.320        13
45.330        13
45.340         7
45.350        20
45.360        13
45.370         7
45.380        13
45.390        40
45.400         0
45.410        20
45.420        73
45.430         7
45.440        27
45.450        20
45.460        20
45.470        13
45.480        20
45.490        53
45.500        20
45.510        13
45.520        27
45.530        33
45.540        20
45.550        27
45.560        27
45.570        27
45.580        13
45.590        20
45.600        27
45.610        27
45.620        20
45.630        20
45.640        20
45.650        13
45.660        33
45.670        20
45.680        60
45.690        13
45.700        27
45.710        20
45.720        20
45.730        27
45.740        20
45.750        33
45.760        33
45.770         0
45.780        20
45.790        20
45.800        33
45.810        53
45.820         7
45.830        13
45.840        27
45.850        27
45.860        20
45.870        47
45.880        40
45.890        20
45.900        53
45.910        27
45.920        47
45.930        73
45.940        20
45.950        40
45.960        40
45.970        53
45.980        20
45.990        53
46.000        40
46.010        40
46.020        13
46.030        47
46.040        47
46.050        67
46.060        47
46.070        13
46.080        87
46.090        53
46.100        60
46.110        47
46.120        73
46.130        80
46.140        67
46.150       100
46.160       133
46.170       107
46.180       120
46.190       120
46.200       133
46.210       133
46.220       173
46.230       153
46.240       207
46.250       173
46.260       207
46.270       220
46.280       320
46.290       247
46.300       353
46.310       307
46.320       260
46.330       260
46.340       287
46.350       280
46.360       360
46.370       367
46.380       287
46.390       280
46.400       340
46.410       220
46.420       193
46.430       240
46.440       260
46.450       147
46.460       227
46.470       193
46.480       160
46.490       167
46.500        87
46.510       160
46.520       153
46.530       173
46.540        80
46.550       100
46.560       107
46.570        80
46.580        73
46.590        87
46.600        53
46.610        53
46.620        40
46.630        40
46.640        47
46.650        73
46.660        33
46.670        40
46.680        40
46.690        27
46.700        40
46.710        87
46.720        73
46.730        47
46.740        80
46.750        53
46.760        27
46.770        67
46.780        60
46.790        47
46.800        40
46.810        93
46.820        87
46.830        80
46.840        80
46.850        67
46.860       160
46.870       120
46.880        80
46.890        93
46.900       107
46.910        93
46.920        87
46.930        73
46.940        80
46.950        53
46.960       100
46.970        93
46.980        67
46.990       100
47.000        73
47.010       100
47.020        67
47.030        67
47.040        53
47.050        60
47.060        33
47.070        67
47.080        73
47.090        47
47.100        47
47.110        47
47.120        40
47.130        33
47.140        53
47.150        60
47.160        33
47.170        40
47.180        40
47.190        47
47.200        47
47.210        60
47.220        60
47.230        53
47.240        60
47.250        13
47.260        47
47.270        27
47.280        53
47.290        20
47.300        27
47.310        13
47.320        20
47.330        60
47.340         0
47.350        27
47.360        40
47.370        27
47.380        20
47.390        47
47.400        40
47.410        13
47.420        27
47.430        60
47.440        13
47.450        33
47.460        27
47.470        53
47.480        40
47.490        33
47.500        53
47.510        53
47.520        20
47.530        27
47.540        33
47.550        13
47.560        53
47.570        33
47.580        27
47.590        13
47.600        33
47.610        40
47.620        27
47.630        33
47.640        20
47.650        27
47.660        33
47.670        47
47.680        20
47.690         7
47.700        13
47.710         7
47.720        27
47.730        20
47.740        13
47.750        20
47.760        40
47.770        20
47.780        13
47.790         7
47.800        13
47.810        13
47.820        33
47.830        33
47.840        27
47.850        27
47.860        40
47.870        13
47.880        47
47.890        13
47.900         0
47.910         7
47.920        40
47.930        33
47.940         7
47.950         7
47.960        27
47.970        20
47.980        40
47.990        13
48.000        53
48.010        20
48.020        33
48.030        53
48.040        13
48.050        13
48.060        33
48.070         7
48.080        13
48.090        47
48.100        27
48.110        27
48.120        33
48.130        20
48.140        27
48.150        20
48.160         0
48.170         7
48.180        20
48.190        47
48.200        27
48.210        33
48.220         7
48.230        20
48.240        40
48.250         7
48.260        60
48.270        20
48.280        33
48.290         7
48.300        40
48.310        27
48.320         7
48.330        40
48.340        33
48.350        33
48.360         7
48.370        53
48.380        33
48.390        33
48.400        40
48.410        47
48.420        33
48.430        27
48.440        47
48.450        47
48.460        27
48.470        67
48.480        40
48.490        13
48.500        27
48.510        27
48.520        47
48.530        40
48.540        13
48.550        33
48.560        27
48.570        40
48.580        40
48.590        20
48.600        20
48.610         7
48.620        60
48.630         7
48.640         7
48.650        47
48.660        13
48.670        33
48.680        20
48.690        13
48.700        20
48.710         0
48.720        27
48.730         7
48.740        13
48.750         7
48.760         0
48.770         7
48.780        20
48.790        20
48.800        27
48.810        27
48.820         7
48.830        27
48.840         7
48.850        27
48.860        20
48.870        13
48.880        40
48.890         0
48.900        33
48.910         0
48.920        13
48.930        27
48.940        20
48.950        40
48.960        20
48.970        27
48.980        20
48.990        27
49.000        13
49.010        13
49.020         0
49.030        13
49.040        13
49.050        27
49.060        27
49.070        33
49.080        20
49.090        33
49.100        27
49.110        13
49.120        13
49.130        47
49.140        40
49.150        13
49.160        13
49.170        13
49.180        40
49.190        20
49.200         7
49.210         7
49.220        53
49.230        13
49.240        33
49.250        47
49.260        13
49.270        33
49.280        13
49.290         7
49.300        20
49.310        20
49.320        20
49.330        33
49.340        20
49.350         7
49.360        33
49.370        13
49.380        20
49.390        33
49.400        40
49.410        27
49.420         0
49.430        20
49.440        27
49.450         7
49.460         0
49.470        20
49.480        40
49.490        33
49.500        33
49.510        20
49.520         7
49.530        27
49.540        27
49.550        27
49.560        20
49.570         7
49.580        47
49.590         7
49.600        27
49.610        33
49.620         7
49.630        13
49.640        13
49.650        33
49.660        40
49.670        13
49.680        13
49.690        20
49.700        27
49.710        33
49.720         7
49.730        27
49.740         0
49.750         7
49.760         7
49.770        20
49.780        47
49.790        40
49.800         7
49.810        13
49.820        33
49.830        40
49.840        33
49.850        33
49.860        20
49.870        27
49.880         7
49.890        40
49.900        33
49.910        27
49.920        13
49.930        27
49.940         0
49.950        13
49.960        13
49.970        40
49.980        20
49.990        40
50.000         7
50.010        20
50.020        40
50.030        27
50.040        27
50.050        47
50.060        20
50.070        33
50.080         7
50.090        33
50.100        40
50.110        47
50.120        20
50.130        40
50.140        27
50.150        20
50.160        20
50.170        27
50.180        27
50.190        20
50.200        20
50.210        27
50.220        20
50.230         7
50.240        20
50.250        33
50.260        40
50.270        33
50.280         7
50.290        13
50.300        20
50.310        13
50.320        47
50.330        67
50.340        27
50.350        20
50.360        20
50.370        20
50.380        20
50.390        13
50.400        13
50.410         7
50.420        20
50.430         7
50.440         0
50.450        33
50.460        40
50.470         7
50.480         7
50.490        33
50.500        13
50.510        33
50.520        20
50.530        13
50.540        20
50.550        13
50.560        47
50.570        20
50.580        47
50.590        20
50.600        27
50.610        60
50.620         7
50.630        47
50.640        20
50.650        27
50.660        20
50.670        20
50.680        27
50.690        33
50.700         7
50.710        20
50.720         7
50.730        20
50.740        27
50.750        40
50.760        13
50.770        13
50.780        13
50.790        13
50.800        13
50.810         7
50.820        13
50.830        13
50.840        53
50.850        13
50.860        27
50.870        20
50.880        20
50.890        13
50.900        27
50.910        13
50.920        13
50.930        33
50.940        33
50.950        20
50.960         0
50.970        20
50.980        33
50.990        20
51.000         0
51.010        20
51.020        33
51.030         7
51.040        13
51.050        20
51.060        33
51.070        13
51.080        40
51.090        27
51.100        27
51.110        20
51.120        20
51.130        13
51.140        40
51.150        20
51.160         7
51.170        33
51.180        33
51.190        20
51.200        13
51.210         0
51.220        33
51.230        33
51.240        33
51.250        53
51.260         7
51.270        13
51.280        33
51.290        13
51.300        27
51.310        20
51.320        13
51.330        13
51.340        47
51.350        40
51.360        33
51.370        47
51.380        20
51.390        13
51.400        40
51.410        27
51.420        20
51.430        27
51.440        13
51.450        27
51.460        47
51.470        33
51.480        27
51.490        27
51.500        27
51.510        47
51.520        40
51.530         0
51.540        13
51.550        33
51.560        33
51.570        20
51.580        20
51.590        67
51.600        53
51.610        27
51.620        13
51.630        13
51.640        13
51.650        27
51.660        13
51.670         7
51.680         7
51.690        20
51.700        33
51.710        60
51.720        27
51.730        27
51.740        33
51.750        27
51.760        67
51.770        47
51.780        40
51.790        27
51.800        20
51.810        33
51.820        40
51.830        33
51.840        40
51.850        33
51.860        53
51.870        40
51.880        67
51.890        27
51.900        40
51.910        40
51.920        33
51.930        27
51.940        67
51.950        33
51.960        47
51.970        33
51.980        13
51.990        53
52.000        33
52.010        53
52.020        40
52.030        40
52.040        67
52.050       107
52.060        60
52.070        40
52.080        20
52.090        47
52.100        47
52.110        40
52.120        53
52.130        13
52.140        20
52.150        27
52.160        87
52.170        53
52.180        27
52.190        40
52.200        20
52.210        33
52.220        33
52.230        40
52.240        20
52.250        40
52.260        27
52.270        27
52.280        27
52.290        67
52.300        20
52.310        40
52.320        40
52.330        67
52.340        40
52.350        27
52.360        27
52.370        33
52.380        20
52.390        53
52.400        53
52.410        40
52.420        67
52.430        47
52.440        53
52.450        33
52.460        47
52.470        73
52.480        53
52.490        73
52.500        60
52.510        53
52.520        67
52.530        80
52.540        87
52.550       100
52.560        73
52.570        93
52.580       107
52.590       107
52.600        80
52.610        53
52.620        33
52.630        40
52.640        27
52.650        93
52.660        73
52.670        33
52.680        67
52.690        93
52.700        67
52.710        40
52.720        47
52.730        27
52.740        33
52.750        40
52.760        20
52.770        47
52.780        40
52.790        47
52.800        33
52.810        40
52.820        20
52.830        60
52.840        33
52.850        27
52.860        47
52.870        47
52.880        33
52.890        27
52.900        27
52.910        47
52.920        53
52.930        27
52.940        27
52.950        13
52.960        40
52.970        47
52.980        33
52.990        27
53.000        53
53.010        60
53.020        40
53.030        13
53.040        40
53.050        33
53.060        20
53.070        13
53.080        27
53.090        33
53.100        33
53.110        27
53.120        40
53.130        33
53.140         7
53.150        27
53.160        27
53.170        20
53.180        53
53.190        40
53.200        13
53.210         7
53.220        33
53.230        27
53.240        47
53.250        33
53.260        27
53.270         0
53.280        27
53.290        27
53.300        53
53.310        27
53.320        33
53.330        33
53.340        40
53.350        27
53.360        27
53.370        53
53.380         0
53.390        27
53.400        13
53.410        40
53.420        20
53.430        13
53.440        20
53.450         0
53.460        20
53.470        27
53.480        47
53.490        20
53.500        27
53.510        27
53.520        40
53.530         7
53.540        40
53.550        13
53.560         7
53.570        13
53.580        20
53.590         7
53.600        13
53.610        33
53.620        20
53.630        13
53.640        27
53.650        27
53.660         7
53.670        20
53.680        33
53.690        13
53.700        13
53.710        33
53.720         7
53.730        20
53.740        13
53.750        13
53.760        27
53.770        33
53.780        13
53.790        20
53.800        33
53.810        27
53.820        47
53.830        27
53.840        13
53.850        20
53.860        53
53.870        27
53.880        27
53.890        20
53.900         7
53.910        27
53.920        27
53.930         0
53.940        33
53.950        33
53.960        33
53.970         7
53.980        40
53.990        13
54.000        20
54.010        27
54.020        40
54.030        20
54.040        27
54.050        27
54.060        13
54.070        27
54.080        13
54.090        13
54.100         0
54.110        20
54.120        13
54.130         7
54.140        13
54.150        13
54.160        13
54.170        47
54.180         7
54.190        13
54.200        20
54.210         7
54.220        20
54.230        20
54.240        13
54.250        13
54.260        13
54.270         7
54.280         7
54.290         7
54.300        20
54.310        13
54.320        20
54.330        33
54.340        20
54.350        13
54.360        20
54.370        13
54.380         7
54.390        20
54.400        20
54.410        13
54.420         0
54.430        27
54.440         0
54.450        13
54.460         0
54.470        33
54.480        20
54.490         7
54.500        13
54.510        33
54.520        27
54.530         7
54.540        33
54.550        20
54.560        33
54.570        27
54.580        13
54.590        13
54.600         0
54.610        13
54.620         7
54.630        20
54.640        27
54.650         7
54.660        27
54.670        33
54.680        33
54.690        20
54.700        40
54.710         7
54.720        33
54.730        33
54.740         7
54.750        40
54.760        27
54.770        13
54.780         7
54.790        13
54.800        20
54.810        27
54.820         7
54.830        13
54.840         0
54.850        20
54.860        20
54.870        13
54.880        13
54.890        33
54.900        27
54.910        20
54.920        33
54.930        20
54.940        40
54.950        13
54.960        40
54.970        20
54.980        27
54.990        13
55.000         7
55.010        33
55.020        27
55.030        20
55.040         7
55.050        20
55.060        33
55.070        13
55.080         0
55.090        20
55.100         7
55.110        40
55.120        20
55.130        47
55.140        27
55.150         7
55.160        27
55.170        13
55.180        33
55.190        47
55.200        33
55.210        20
55.220         7
55.230        13
55.240        13
55.250         7
55.260         7
55.270        27
55.280        20
55.290        27
55.300        20
55.310         7
55.320         7
55.330         7
55.340        33
55.350        27
55.360        13
55.370         7
55.380        27
55.390        20
55.400        33
55.410        20
55.420        27
55.430        27
55.440        20
55.450        47
55.460        13
55.470        47
55.480        20
55.490        33
55.500        27
55.510        13
55.520        33
55.530        33
55.540        13
55.550         0
55.560         7
55.570        20
55.580        13
55.590         7
55.600        13
55.610         0
55.620        27
55.630        33
55.640        20
55.650        13
55.660         7
55.670        27
55.680         0
55.690        13
55.700        13
55.710        13
55.720         0
55.730        33
55.740        13
55.750        20
55.760        13
55.770        20
55.780         7
55.790        13
55.800        47
55.810        13
55.820        27
55.830        27
55.840        40
55.850         0
55.860        27
55.870        13
55.880        27
55.890        13
55.900        13
55.910        13
55.920        33
55.930        13
55.940        20
55.950        33
55.960        20
55.970         0
55.980        13
55.990        20
56.000        20
56.010        27
56.020        27
56.030         7
56.040         7
56.050         7
56.060        33
56.070         7
56.080        20
56.090        27
56.100        40
56.110        13
56.120         7
56.130         7
56.140        40
56.150        20
56.160        40
56.170        20
56.180        20
56.190        33
56.200        20
56.210        13
56.220        20
56.230        13
56.240        20
56.250        33
56.260        60
56.270         7
56.280        27
56.290        13
56.300        20
56.310        27
56.320         7
56.330        13
56.340         7
56.350        20
56.360        13
56.370         7
56.380        27
56.390        20
56.400         0
56.410        20
56.420        13
56.430        13
56.440        33
56.450        33
56.460         7
56.470        20
56.480        20
56.490         7
56.500         0
56.510        20
56.520        13
56.530         7
56.540        33
56.550         7
56.560        27
56.570        27
56.580        20
56.590        13
56.600        27
56.610         7
56.620        20
56.630         7
56.640        47
56.650        33
56.660        13
56.670        40
56.680         7
56.690        27
56.700        20
56.710         0
56.720        33
56.730        27
56.740        20
56.750        20
56.760         7
56.770        13
56.780         7
56.790        40
56.800         7
56.810        33
56.820         0
56.830        13
56.840         0
56.850        13
56.860        27
56.870        20
56.880        27
56.890         7
56.900        20
56.910        13
56.920        20
56.930        33
56.940        33
56.950         7
56.960        20
56.970        13
56.980         0
56.990        13
57.000        33
57.010        27
57.020        27
57.030        20
57.040        13
57.050        27
57.060         7
57.070        13
57.080         0
57.090        33
57.100        13
57.110         7
57.120        20
57.130        13
57.140         0
57.150         7
57.160        20
57.170         7
57.180        27
57.190        27
57.200        13
57.210        13
57.220        20
57.230         7
57.240        33
57.250        20
57.260        13
57.270        33
57.280        27
57.290         7
57.300        47
57.310        27
57.320        27
57.330        27
57.340        20
57.350        33
57.360        40
57.370        20
57.380        20
57.390        33
57.400        20
57.410        27
57.420        13
57.430        27
57.440        27
57.450         7
57.460        20
57.470        13
57.480        20
57.490        20
57.500        27
57.510         7
57.520         7
57.530         7
57.540        20
57.550        13
57.560        20
57.570        20
57.580         7
57.590        13
57.600        13
57.610        13
57.620        20
57.630         0
57.640         0
57.650        27
57.660        13
57.670        13
57.680        20
57.690        27
57.700        20
57.710         7
57.720        20
57.730        20
57.740        27
57.750        20
57.760         7
57.770        13
57.780        20
57.790        27
57.800        13
57.810        20
57.820         7
57.830         0
57.840        33
57.850         0
57.860         7
57.870         0
57.880        13
57.890         7
57.900         0
57.910        13
57.920        27
57.930        13
57.940        20
57.950         7
57.960         0
57.970        13
57.980        13
57.990        13
58.000        13
58.010         7
58.020        27
58.030         7
58.040        27
58.050        20
58.060        20
58.070         0
58.080        13
58.090         7
58.100        13
58.110        33
58.120         7
58.130        13
58.140         7
58.150        20
58.160        20
58.170         7
58.180        27
58.190         7
58.200        33
58.210        27
58.220        20
58.230         7
58.240        20
58.250        13
58.260        20
58.270        13
58.280        13
58.290        27
58.300        40
58.310        20
58.320         7
58.330        20
58.340         0
58.350         7
58.360         0
58.370        27
58.380        27
58.390        13
58.400        20
58.410         7
58.420        20
58.430         7
58.440        27
58.450        33
58.460        13
58.470        33
58.480        27
58.490         7
58.500        27
58.510        40
58.520         7
58.530         0
58.540        13
58.550        47
58.560        13
58.570         7
58.580         0
58.590        13
58.600         7
58.610         7
58.620        20
58.630        13
58.640         0
58.650         7
58.660         7
58.670        13
58.680        33
58.690        13
58.700         7
58.710         7
58.720        20
58.730        13
58.740        13
58.750        13
58.760        27
58.770        27
58.780         0
58.790        20
58.800        20
58.810        33
58.820         7
58.830         0
58.840         7
58.850        20
58.860        27
58.870        27
58.880        13
58.890        13
58.900        13
58.910         7
58.920        13
58.930        13
58.940         7
58.950        13
58.960        13
58.970         0
58.980        13
58.990         7
59.000        13
59.010        20
59.020        13
59.030        13
59.040        13
59.050         0
59.060         0
59.070         0
59.080        20
59.090         0
59.100        13
59.110         0
59.120        20
59.130        27
59.140        13
59.150        13
59.160         7
59.170        13
59.180         7
59.190         7
59.200        33
59.210         7
59.220        13
59.230         7
59.240        13
59.250         0
59.260        33
59.270        27
59.280        13
59.290         7
59.300        27
59.310         7
59.320         7
59.330        13
59.340        20
59.350        33
59.360        13
59.370        13
59.380        33
59.390        13
59.400        27
59.410        20
59.420         7
59.430        20
59.440         0
59.450        13
59.460        13
59.470         7
59.480         0
59.490        33
59.500        20
59.510        20
59.520        20
59.530        20
59.540        13
59.550         7
59.560        33
59.570        20
59.580         0
59.590         7
59.600         0
59.610         0
59.620        13
59.630         0
59.640         0
59.650        27
59.660        27
59.670        13
59.680        20
59.690        20
59.700        13
59.710        13
59.720        20
59.730         7
59.740        13
59.750        47
59.760        13
59.770        27
59.780         0
59.790         7
59.800         7
59.810        27
59.820         0
59.830        13
59.840         7
59.850        27
59.860         0
59.870         0
59.880         0
59.890         7
59.900        13
59.910        13
59.920        33
59.930        47
59.940        33
59.950         7
59.960        27
59.970        33
59.980        13
59.990         7
60.000         7
