20.000         0
20.010         0
20.020        27
20.030        53
20.040        67
20.050       120
20.060        53
20.070        53
20.080        53
20.090        80
20.100        53
20.110        53
20.120        27
20.130        53
20.140        13
20.150        40
20.160        53
20.170        40
20.180        27
20.190        93
20.200        80
20.210        13
20.220        27
20.230        27
20.240        13
20.250        80
20.260        27
20.270        27
20.280        27
20.290        53
20.300        27
20.310        27
20.320        13
20.330        93
20.340         0
20.350        40
20.360        53
20.370        40
20.380        27
20.390        40
20.400        40
20.410        67
20.420        40
20.430        27
20.440        80
20.450        67
20.460        27
20.470        40
20.480        93
20.490        40
20.500        27
20.510        80
20.520        40
20.530        40
20.540        27
20.550        40
20.560        40
20.570        93
20.580        67
20.590        67
20.600        40
20.610        27
20.620        40
20.630        40
20.640        27
20.650        80
20.660        40
20.670        40
20.680        53
20.690        67
20.700        40
20.710        13
20.720        53
20.730        53
20.740        27
20.750        27
20.760        53
20.770        40
20.780        40
20.790       120
20.800        67
20.810        13
20.820        53
20.830        13
20.840        53
20.850        67
20.860        13
20.870        13
20.880        27
20.890        53
20.900        40
20.910        27
20.920         0
20.930        27
20.940        40
20.950        40
20.960        53
20.970        40
20.980         0
20.990        80
21.000        53
21.010        40
21.020        53
21.030        80
21.040         0
21.050        80
21.060        40
21.070        40
21.080        13
21.090        53
21.100         0
21.110        40
21.120        40
21.130        13
21.140        40
21.150        13
21.160        40
21.170        13
21.180        27
21.190        40
21.200        13
21.210        67
21.220        13
21.230        27
21.240        40
21.250        67
21.260        80
21.270        67
21.280        53
21.290        40
21.300        27
21.310        13
21.320        13
21.330        80
21.340        13
21.350        40
21.360        93
21.370        80
21.380        40
21.390       120
21.400        53
21.410        53
21.420         0
21.430         0
21.440        40
21.450        40
21.460        53
21.470        27
21.480        67
21.490        53
21.500        13
21.510        80
21.520        40
21.530        53
21.540        40
21.550        53
21.560        53
21.570        53
21.580        80
21.590        13
21.600        53
21.610        67
21.620        40
21.630        53
21.640        40
21.650        40
21.660        80
21.670        53
21.680        13
21.690        40
21.700        53
21.710        53
21.720        40
21.730        13
21.740        13
21.750        27
21.760        13
21.770        13
21.780        53
21.790        67
21.800        80
21.810        27
21.820        27
21.830        27
21.840        27
21.850        40
21.860        40
21.870        40
21.880        27
21.890        40
21.900        67
21.910        53
21.920        27
21.930        13
21.940        53
21.950        27
21.960        53
21.970        13
21.980       107
21.990        13
22.000         0
22.010        27
22.020         0
22.030        27
22.040        53
22.050        40
22.060        27
22.070        53
22.080        67
22.090        53
22.100        13
22.110        13
22.120        40
22.130        13
22.140        53
22.150        40
22.160        67
22.170        27
22.180        53
22.190        67
22.200        13
22.210        53
22.220        27
22.230        40
22.240        13
22.250        67
22.260        53
22.270        27
22.280        40
22.290        13
22.300        67
22.310        53
22.320        27
22.330        67
22.340        40
22.350        67
22.360        40
22.370        80
22.380        67
22.390        40
22.400        67
22.410        80
22.420        27
22.430        67
22.440        27
22.450       107
22.460        53
22.470        40
22.480        27
22.490        80
22.500        40
22.510        67
22.520        40
22.530       120
22.540        93
22.550        67
22.560        67
22.570        80
22.580        40
22.590       107
22.600        67
22.610       187
22.620        80
22.630       160
22.640       213
22.650       173
22.660       227
22.670       227
22.680       147
22.690       373
22.700       213
22.710       387
22.720       347
22.730       347
22.740       240
22.750       333
22.760       253
22.770       280
22.780       227
22.790       280
22.800        93
22.810       120
22.820       160
22.830       173
22.840       200
22.850        93
22.860       107
22.870        53
22.880        67
22.890       133
22.900        67
22.910        93
22.920        80
22.930       187
22.940        40
22.950        93
22.960       133
22.970       240
22.980        80
22.990        93
23.000        93
23.010        80
23.020        93
23.030        80
23.040        67
23.050       133
23.060       147
23.070       200
23.080        80
23.090        80
23.100        80
23.110        67
23.120        80
23.130       120
23.140        13
23.150        27
23.160       120
23.170       107
23.180        67
23.190        40
23.200        27
23.210        40
23.220        13
23.230        53
23.240        27
23.250        27
23.260        67
23.270        67
23.280        93
23.290        40
23.300        27
23.310        40
23.320        13
23.330        13
23.340        27
23.350        53
23.360         0
23.370        27
23.380        27
23.390        27
23.400        53
23.410        27
23.420        67
23.430        13
23.440        13
23.450        40
23.460        27
23.470        53
23.480        53
23.490        40
23.500        27
23.510        53
23.520        27
23.530        27
23.540        67
23.550        13
23.560        27
23.570         0
23.580        67
23.590        67
23.600        13
23.610        40
23.620        13
23.630        13
23.640        40
23.650        40
23.660        40
23.670        27
23.680        13
23.690        13
23.700        27
23.710        13
23.720        27
23.730        53
23.740        53
23.750        53
23.760         0
23.770        13
23.780        13
23.790        40
23.800        40
23.810        27
23.820        53
23.830        40
23.840        53
23.850        53
23.860        27
23.870        40
23.880        80
23.890        40
23.900        53
23.910        13
23.920        80
23.930        27
23.940        53
23.950        27
23.960        27
23.970        40
23.980        27
23.990        80
24.000        80
24.010        27
24.020        53
24.030        67
24.040        27
24.050        27
24.060        80
24.070        53
24.080        93
24.090        53
24.100        40
24.110        67
24.120        27
24.130        13
24.140        67
24.150        27
24.160        13
24.170        53
24.180        80
24.190        40
24.200        27
24.210        27
24.220        13
24.230        67
24.240        13
24.250        27
24.260        53
24.270         0
24.280        13
24.290        27
24.300        13
24.310         0
24.320        40
24.330        13
24.340        67
24.350        27
24.360        27
24.370        67
24.380        27
24.390        27
24.400        53
24.410         0
24.420        93
24.430        13
24.440        13
24.450        13
24.460        53
24.470        67
24.480        27
24.490        53
24.500        27
24.510        40
24.520        13
24.530        27
24.540        27
24.550        40
24.560        40
24.570        13
24.580        27
24.590        53
24.600        13
24.610        53
24.620        13
24.630        27
24.640        53
24.650        67
24.660        53
24.670        27
24.680        13
24.690        53
24.700        27
24.710        27
24.720        40
24.730        27
24.740        53
24.750        27
24.760        27
24.770         0
24.780        27
24.790        27
24.800        53
24.810        27
24.820         0
24.830       120
24.840        27
24.850        67
24.860        27
24.870        53
24.880        67
24.890        40
24.900        40
24.910        53
24.920         0
24.930        40
24.940        27
24.950        27
24.960        67
24.970        40
24.980        40
24.990        13
25.000        13
25.010        67
25.020        53
25.030        27
25.040        67
25.050        27
25.060        40
25.070         0
25.080        40
25.090        27
25.100        27
25.110        40
25.120        40
25.130        40
25.140        27
25.150        53
25.160        13
25.170        27
25.180        27
25.190        13
25.200        40
25.210         0
25.220        27
25.230        13
25.240        40
25.250        27
25.260        53
25.270        40
25.280         0
25.290        40
25.300        80
25.310        40
25.320        53
25.330        13
25.340        13
25.350         0
25.360        40
25.370        13
25.380        53
25.390        13
25.400        67
25.410        13
25.420        40
25.430        80
25.440        53
25.450        53
25.460        27
25.470        13
25.480         0
25.490        53
25.500        67
25.510        53
25.520        40
25.530        53
25.540        40
25.550        80
25.560        40
25.570        53
25.580        27
25.590        27
25.600        93
25.610        53
25.620        53
25.630        67
25.640        40
25.650        40
25.660        53
25.670        40
25.680        27
25.690        67
25.700        40
25.710        27
25.720        13
25.730        40
25.740        53
25.750        67
25.760        27
25.770        27
25.780        27
25.790        53
25.800        53
25.810        40
25.820        27
25.830        93
25.840        53
25.850        13
25.860        93
25.870        27
25.880        40
25.890        80
25.900       133
25.910        13
25.920         0
25.930        53
25.940        53
25.950        27
25.960        40
25.970        13
25.980        40
25.990        27
26.000        67
26.010        27
26.020        27
26.030        13
26.040        53
26.050        53
26.060        27
26.070         0
26.080        13
26.090        13
26.100        27
26.110        27
26.120        27
26.130        40
26.140         0
26.150        13
26.160        13
26.170        40
26.180        13
26.190        13
26.200        40
26.210        40
26.220        27
26.230        13
26.240         0
26.250        27
26.260        67
26.270        40
26.280        13
26.290         0
26.300        27
26.310        53
26.320        40
26.330        40
26.340        27
26.350        53
26.360        13
26.370        40
26.380         0
26.390        13
26.400         0
26.410        80
26.420        27
26.430        27
26.440        13
26.450        80
26.460        13
26.470        27
26.480        13
26.490        27
26.500        27
26.510        40
26.520        80
26.530        13
26.540        40
26.550        13
26.560        27
26.570         0
26.580         0
26.590        27
26.600        27
26.610        40
26.620        40
26.630         0
26.640        27
26.650        67
26.660        13
26.670        40
26.680        27
26.690         0
26.700         0
26.710         0
26.720        13
26.730        67
26.740        40
26.750        40
26.760        27
26.770        27
26.780        13
26.790        93
26.800        13
26.810        53
26.820        53
26.830        67
26.840         0
26.850        27
26.860        67
26.870        40
26.880        27
26.890        40
26.900        53
26.910        13
26.920        53
26.930        40
26.940        13
26.950        40
26.960        27
26.970         0
26.980        53
26.990         0
27.000        27
27.010        13
27.020         0
27.030         0
27.040        13
27.050        40
27.060        27
27.070        40
27.080        40
27.090        53
27.100        40
27.110        13
27.120        27
27.130        27
27.140        67
27.150        53
27.160        40
27.170        27
27.180        53
27.190        40
27.200        40
27.210         0
27.220        40
27.230        27
27.240        40
27.250        67
27.260        13
27.270        27
27.280        13
27.290         0
27.300        40
27.310        53
27.320        27
27.330         0
27.340        40
27.350        27
27.360        40
27.370        13
27.380        13
27.390        40
27.400        13
27.410        27
27.420         0
27.430        27
27.440        13
27.450         0
27.460        27
27.470        27
27.480        13
27.490        40
27.500        13
27.510        27
27.520        27
27.530        13
27.540        13
27.550        27
27.560        27
27.570        13
27.580        53
27.590        40
27.600         0
27.610         0
27.620         0
27.630         0
27.640         0
27.650        13
27.660        40
27.670         0
27.680        27
27.690         0
27.700         0
27.710        40
27.720        13
27.730        27
27.740        13
27.750        93
27.760        13
27.770        27
27.780        13
27.790        13
27.800        53
27.810        13
27.820        27
27.830        53
27.840        13
27.850        40
27.860        67
27.870        67
27.880        13
27.890        27
27.900        13
27.910        27
27.920         0
27.930        53
27.940        53
27.950        27
27.960        40
27.970        27
27.980        53
27.990        27
28.000         0
28.010        13
28.020        67
28.030         0
28.040        53
28.050        80
28.060        27
28.070        67
28.080         0
28.090        40
28.100         0
28.110         0
28.120        27
28.130        13
28.140        27
28.150         0
28.160        40
28.170        40
28.180        40
28.190        13
28.200        27
28.210        13
28.220        40
28.230        27
28.240        13
28.250        27
28.260        13
28.270        27
28.280         0
28.290        13
28.300        13
28.310         0
28.320        27
28.330        13
28.340        13
28.350        13
28.360        27
28.370        40
28.380        27
28.390        40
28.400        93
28.410         0
28.420        13
28.430        27
28.440         0
28.450        40
28.460        27
28.470        13
28.480        13
28.490        13
28.500        13
28.510        67
28.520        40
28.530        27
28.540        40
28.550        27
28.560        40
28.570        67
28.580        27
28.590        67
28.600        27
28.610        53
28.620        27
28.630        40
28.640        27
28.650         0
28.660        13
28.670        40
28.680        27
28.690        27
28.700        27
28.710        53
28.720        27
28.730        27
28.740         0
28.750        53
28.760        40
28.770        13
28.780        27
28.790         0
28.800         0
28.810        27
28.820        40
28.830        27
28.840        27
28.850        67
28.860        27
28.870        27
28.880        13
28.890        27
28.900        27
28.910         0
28.920        40
28.930        13
28.940        13
28.950         0
28.960        13
28.970        13
28.980        40
28.990        67
29.000        27
29.010        27
29.020        27
29.030        13
29.040        40
29.050        80
29.060        40
29.070        53
29.080        67
29.090        40
29.100        53
29.110        53
29.120        53
29.130        67
29.140        53
29.150        67
29.160         0
29.170        40
29.180        67
29.190        80
29.200        13
29.210        67
29.220        53
29.230        53
29.240        93
29.250        40
29.260        27
29.270        53
29.280        27
29.290        13
29.300        40
29.310        53
29.320        93
29.330        67
29.340        40
29.350       133
29.360        67
29.370        27
29.380        67
29.390        53
29.400        93
29.410        80
29.420        53
29.430        53
29.440        27
29.450        13
29.460        40
29.470       107
29.480        67
29.490        53
29.500        40
29.510        53
29.520       120
29.530        80
29.540        53
29.550        40
29.560       107
29.570        40
29.580        80
29.590       120
29.600        53
29.610        13
29.620        53
29.630        13
29.640        93
29.650        27
29.660        53
29.670        13
29.680       147
29.690        53
29.700        13
29.710        67
29.720        93
29.730        40
29.740        27
29.750        27
29.760        27
29.770        27
29.780        40
29.790        53
29.800        13
29.810        53
29.820         0
29.830        40
29.840        13
29.850        27
29.860        13
29.870        53
29.880        40
29.890        53
29.900         0
29.910         0
29.920        13
29.930        27
29.940        40
29.950         0
29.960        67
29.970        40
29.980         0
29.990        40
30.000         0
30.010        13
30.020        13
30.030        13
30.040        13
30.050        13
30.060         0
30.070        13
30.080        13
30.090        40
30.100        27
30.110        13
30.120        27
30.130        27
30.140        13
30.150        13
30.160        27
30.170        13
30.180        13
30.190        27
30.200         0
30.210        40
30.220        27
30.230        40
30.240         0
30.250        40
30.260         0
30.270        13
30.280        27
30.290        13
30.300        13
30.310        13
30.320        27
30.330        27
30.340         0
30.350        13
30.360        27
30.370        27
30.380        40
30.390        27
30.400        27
30.410        27
30.420        27
30.430        53
30.440        27
30.450        13
30.460        40
30.470        27
30.480        13
30.490        40
30.500        40
30.510        80
30.520        53
30.530         0
30.540        80
30.550        40
30.560        13
30.570        80
30.580        13
30.590        40
30.600         0
30.610        13
30.620        13
30.630        40
30.640        13
30.650        13
30.660         0
30.670        40
30.680        27
30.690         0
30.700         0
30.710         0
30.720        27
30.730        27
30.740        27
30.750        13
30.760        53
30.770        13
30.780        27
30.790        40
30.800         0
30.810        13
30.820         0
30.830         0
30.840         0
30.850        27
30.860        27
30.870        13
30.880         0
30.890        27
30.900        13
30.910        40
30.920        27
30.930        13
30.940        40
30.950        40
30.960        53
30.970        53
30.980        53
30.990        40
31.000        13
31.010        13
31.020        27
31.030        40
31.040        13
31.050        27
31.060        13
31.070         0
31.080        13
31.090        13
31.100         0
31.110        13
31.120        13
31.130        13
31.140        13
31.150        40
31.160         0
31.170        13
31.180        13
31.190        27
31.200         0
31.210        40
31.220        13
31.230        53
31.240        13
31.250        40
31.260        13
31.270        40
31.280        40
31.290        27
31.300        40
31.310        40
31.320        27
31.330        53
31.340         0
31.350        53
31.360        40
31.370         0
31.380        53
31.390        40
31.400        27
31.410        67
31.420        13
31.430        13
31.440        27
31.450        13
31.460        40
31.470         0
31.480        27
31.490        27
31.500        27
31.510        40
31.520        40
31.530        53
31.540        27
31.550        13
31.560         0
31.570        27
31.580        27
31.590        27
31.600        27
31.610        53
31.620        13
31.630        13
31.640        27
31.650        13
31.660        67
31.670        13
31.680        13
31.690        13
31.700        13
31.710        40
31.720         0
31.730        53
31.740        40
31.750        13
31.760        27
31.770        13
31.780         0
31.790         0
31.800        40
31.810         0
31.820        27
31.830        13
31.840        40
31.850        40
31.860         0
31.870        40
31.880        27
31.890        27
31.900        53
31.910         0
31.920        80
31.930         0
31.940        27
31.950        27
31.960        27
31.970        13
31.980        13
31.990        27
32.000        13
32.010        40
32.020        27
32.030         0
32.040        27
32.050        13
32.060        53
32.070        13
32.080        13
32.090        13
32.100        27
32.110        27
32.120        40
32.130        53
32.140        67
32.150        27
32.160         0
32.170        13
32.180        27
32.190        80
32.200        80
32.210        80
32.220        40
32.230        53
32.240        27
32.250        53
32.260        40
32.270        13
32.280         0
32.290        27
32.300        13
32.310         0
32.320        40
32.330        13
32.340         0
32.350        27
32.360        27
32.370        40
32.380        27
32.390        27
32.400         0
32.410         0
32.420        27
32.430         0
32.440        53
32.450         0
32.460        13
32.470        13
32.480        53
32.490        13
32.500        13
32.510        27
32.520        27
32.530         0
32.540        13
32.550         0
32.560        13
32.570        13
32.580        13
32.590        40
32.600        27
32.610        13
32.620        13
32.630        40
32.640        13
32.650        40
32.660        40
32.670        53
32.680        40
32.690        13
32.700       107
32.710        27
32.720        27
32.730        40
32.740        13
32.750         0
32.760        53
32.770        53
32.780        27
32.790         0
32.800        13
32.810        53
32.820        13
32.830        27
32.840        80
32.850        13
32.860         0
32.870        40
32.880        27
32.890        13
32.900        67
32.910        40
32.920        53
32.930        53
32.940        27
32.950        40
32.960        27
32.970        40
32.980        13
32.990        13
33.000         0
33.010        27
33.020        13
33.030        40
33.040         0
33.050        27
33.060        13
33.070         0
33.080        27
33.090         0
33.100        13
33.110        27
33.120         0
33.130        13
33.140        13
33.150        53
33.160        13
33.170        27
33.180        27
33.190        40
33.200        27
33.210         0
33.220        27
33.230        40
33.240        27
33.250        13
33.260         0
33.270        13
33.280        13
33.290        27
33.300         0
33.310         0
33.320        27
33.330         0
33.340        27
33.350         0
33.360        27
33.370        13
33.380        13
33.390        27
33.400        27
33.410        27
33.420         0
33.430        40
33.440        27
33.450        27
33.460        13
33.470        13
33.480        13
33.490         0
33.500         0
33.510        13
33.520         0
33.530        13
33.540        13
33.550        67
33.560        13
33.570        40
33.580        27
33.590        13
33.600         0
33.610        27
33.620         0
33.630         0
33.640        40
33.650        27
33.660         0
33.670        13
33.680        13
33.690        13
33.700        27
33.710        27
33.720         0
33.730        13
33.740        27
33.750        27
33.760         0
33.770        13
33.780        13
33.790        13
33.800        13
33.810        27
33.820         0
33.830        27
33.840        13
33.850         0
33.860        13
33.870        13
33.880         0
33.890        40
33.900        13
33.910        13
33.920         0
33.930        13
33.940        13
33.950         0
33.960         0
33.970        13
33.980        27
33.990        27
34.000        27
34.010        27
34.020         0
34.030        40
34.040         0
34.050        13
34.060        13
34.070         0
34.080        27
34.090        13
34.100        27
34.110        13
34.120        27
34.130        27
34.140        13
34.150        13
34.160        13
34.170         0
34.180        27
34.190         0
34.200        13
34.210        13
34.220        27
34.230        27
34.240        13
34.250        53
34.260        13
34.270         0
34.280        27
34.290        13
34.300         0
34.310        27
34.320        27
34.330        13
34.340        27
34.350        27
34.360        40
34.370        13
34.380        27
34.390        40
34.400        40
34.410        13
34.420        53
34.430        13
34.440         0
34.450         0
34.460        13
34.470         0
34.480        13
34.490        13
34.500        40
34.510        67
34.520        67
34.530        40
34.540        13
34.550        27
34.560        53
34.570        40
34.580         0
34.590        13
34.600        40
34.610        27
34.620        27
34.630        13
34.640         0
34.650        27
34.660        40
34.670        27
34.680         0
34.690        40
34.700        40
34.710        40
34.720        40
34.730        27
34.740        13
34.750        13
34.760        13
34.770        40
34.780        13
34.790        53
34.800        40
34.810        40
34.820        13
34.830         0
34.840        27
34.850        27
34.860        27
34.870        40
34.880        13
34.890        13
34.900        27
34.910        13
34.920        40
34.930        27
34.940         0
34.950         0
34.960        53
34.970        40
34.980        40
34.990         0
35.000        13
35.010        13
35.020        13
35.030         0
35.040        27
35.050         0
35.060        40
35.070        53
35.080        13
35.090        13
35.100        27
35.110        13
35.120        67
35.130        13
35.140        27
35.150        40
35.160        40
35.170        13
35.180         0
35.190         0
35.200        13
35.210         0
35.220        27
35.230         0
35.240         0
35.250        27
35.260        27
35.270         0
35.280        27
35.290        27
35.300        27
35.310        13
35.320        27
35.330        13
35.340        13
35.350         0
35.360        13
35.370        13
35.380        27
35.390        13
35.400        27
35.410        27
35.420         0
35.430        40
35.440        27
35.450        27
35.460        13
35.470        27
35.480        13
35.490        13
35.500        27
35.510        27
35.520         0
35.530        40
35.540        13
35.550        27
35.560        40
35.570        27
35.580        13
35.590        53
35.600        27
35.610        27
35.620         0
35.630         0
35.640        13
35.650        13
35.660        40
35.670        13
35.680        40
35.690         0
35.700         0
35.710        13
35.720        27
35.730        13
35.740        13
35.750         0
35.760        13
35.770        53
35.780        27
35.790        13
35.800        13
35.810        67
35.820         0
35.830        27
35.840        13
35.850        27
35.860        27
35.870        27
35.880        67
35.890        13
35.900        13
35.910        13
35.920        13
35.930         0
35.940         0
35.950        13
35.960        80
35.970        13
35.980        13
35.990        40
36.000        53
36.010        40
36.020        27
36.030        53
36.040        27
36.050        40
36.060        13
36.070        40
36.080        27
36.090         0
36.100        13
36.110        13
36.120        40
36.130        27
36.140        40
36.150        27
36.160        53
36.170        40
36.180         0
36.190        13
36.200        13
36.210        27
36.220        27
36.230        13
36.240        27
36.250         0
36.260        40
36.270        13
36.280        40
36.290        27
36.300         0
36.310        13
36.320        27
36.330        13
36.340        13
36.350         0
36.360        13
36.370        53
36.380        13
36.390         0
36.400        13
36.410         0
36.420        27
36.430         0
36.440         0
36.450         0
36.460        27
36.470         0
36.480        13
36.490        13
36.500        13
36.510        53
36.520        27
36.530        40
36.540        27
36.550        13
36.560        13
36.570        40
36.580        13
36.590        13
36.600        27
36.610        13
36.620        27
36.630         0
36.640        13
36.650        13
36.660         0
36.670        13
36.680        27
36.690        27
36.700        27
36.710         0
36.720         0
36.730         0
36.740        40
36.750         0
36.760        13
36.770        13
36.780        13
36.790        53
36.800        13
36.810        13
36.820         0
36.830        27
36.840         0
36.850        40
36.860        13
36.870        53
36.880         0
36.890         0
36.900         0
36.910         0
36.920         0
36.930        13
36.940        13
36.950         0
36.960        13
36.970        27
36.980        13
36.990        13
37.000        27
37.010         0
37.020         0
37.030        13
37.040         0
37.050        40
37.060         0
37.070         0
37.080        27
37.090        27
37.100        13
37.110         0
37.120        13
37.130        13
37.140         0
37.150         0
37.160        40
37.170         0
37.180        67
37.190        27
37.200         0
37.210        27
37.220        27
37.230         0
37.240        13
37.250        13
37.260         0
37.270        13
37.280        27
37.290         0
37.300        13
37.310        13
37.320        13
37.330         0
37.340        13
37.350         0
37.360        67
37.370        40
37.380        13
37.390        27
37.400        27
37.410        27
37.420        27
37.430        40
37.440        27
37.450         0
37.460        40
37.470        27
37.480         0
37.490        53
37.500        13
37.510         0
37.520         0
37.530        13
37.540        40
37.550        27
37.560        13
37.570        13
37.580        27
37.590         0
37.600         0
37.610        13
37.620        13
37.630        13
37.640         0
37.650         0
37.660        13
37.670        13
37.680         0
37.690        13
37.700        40
37.710        13
37.720        27
37.730        13
37.740         0
37.750        27
37.760        13
37.770        13
37.780        13
37.790        40
37.800         0
37.810        27
37.820        27
37.830        53
37.840         0
37.850        13
37.860        13
37.870        13
37.880        13
37.890        13
37.900        13
37.910        40
37.920         0
37.930         0
37.940        53
37.950         0
37.960         0
37.970        13
37.980        13
37.990         0
38.000        27
38.010        13
38.020         0
38.030         0
38.040        27
38.050         0
38.060        27
38.070        13
38.080        53
38.090        13
38.100         0
38.110        13
38.120        13
38.130        13
38.140        13
38.150        53
38.160         0
38.170        13
38.180        27
38.190        27
38.200         0
38.210        13
38.220         0
38.230        13
38.240        13
38.250         0
38.260         0
38.270        13
38.280        53
38.290        13
38.300        13
38.310        13
38.320        27
38.330        27
38.340         0
38.350         0
38.360        27
38.370        13
38.380         0
38.390        27
38.400        53
38.410        27
38.420        13
38.430        53
38.440        40
38.450        27
38.460        27
38.470        13
38.480        40
38.490        40
38.500        67
38.510        27
38.520        27
38.530        53
38.540         0
38.550        53
38.560        27
38.570        27
38.580         0
38.590        13
38.600        40
38.610        53
38.620        40
38.630        27
38.640        27
38.650        13
38.660         0
38.670        40
38.680        40
38.690        27
38.700        40
38.710        13
38.720        13
38.730        27
38.740         0
38.750         0
38.760        53
38.770        13
38.780        13
38.790        27
38.800        40
38.810        40
38.820        13
38.830        27
38.840        13
38.850        27
38.860        13
38.870         0
38.880        27
38.890        27
38.900        13
38.910        40
38.920        13
38.930        53
38.940         0
38.950        13
38.960        13
38.970        27
38.980        67
38.990        27
39.000        27
39.010         0
39.020         0
39.030        67
39.040        13
39.050         0
39.060        13
39.070         0
39.080        27
39.090        53
39.100         0
39.110        27
39.120        27
39.130        13
39.140        13
39.150        27
39.160        53
39.170        27
39.180        13
39.190        13
39.200         0
39.210         0
39.220        13
39.230        27
39.240        40
39.250        27
39.260        53
39.270        13
39.280        67
39.290        67
39.300        67
39.310        13
39.320        40
39.330        13
39.340        13
39.350        13
39.360        40
39.370        27
39.380        40
39.390        53
39.400        13
39.410        53
39.420        13
39.430        67
39.440        27
39.450        40
39.460        27
39.470        53
39.480        27
39.490         0
39.500        27
39.510        27
39.520        53
39.530         0
39.540        13
39.550        27
39.560         0
39.570        27
39.580        27
39.590         0
39.600        40
39.610        40
39.620         0
39.630        13
39.640         0
39.650        53
39.660        40
39.670        53
39.680        27
39.690        13
39.700         0
39.710        13
39.720        27
39.730         0
39.740        13
39.750         0
39.760        40
39.770         0
39.780        13
39.790        13
39.800        13
39.810        13
39.820         0
39.830        27
39.840        13
39.850         0
39.860        13
39.870        13
39.880        27
39.890         0
39.900        13
39.910        13
39.920        53
39.930         0
39.940         0
39.950        13
39.960        40
39.970        27
39.980         0
39.990        13
40.000         0
40.010        27
40.020        27
40.030        27
40.040         0
40.050        27
40.060        13
40.070        13
40.080        27
40.090         0
40.100        27
40.110         0
40.120        13
40.130        13
40.140        53
40.150        13
40.160        40
40.170        27
40.180        13
40.190        27
40.200        40
40.210        27
40.220        13
40.230         0
40.240        67
40.250        13
40.260        13
40.270        27
40.280        13
40.290        13
40.300        40
40.310        53
40.320        13
40.330        27
40.340         0
40.350        40
40.360        13
40.370        40
40.380        40
40.390        27
40.400        27
40.410         0
40.420        13
40.430        40
40.440        13
40.450        13
40.460        13
40.470        13
40.480        40
40.490        13
40.500         0
40.510        13
40.520        53
40.530        13
40.540         0
40.550        13
40.560        27
40.570        53
40.580        40
40.590         0
40.600        13
40.610         0
40.620        13
40.630         0
40.640         0
40.650         0
40.660        13
40.670        53
40.680         0
40.690        40
40.700        13
40.710        40
40.720        27
40.730        27
40.740        27
40.750        13
40.760         0
40.770        27
40.780        40
40.790        27
40.800         0
40.810        13
40.820        27
40.830        40
40.840         0
40.850         0
40.860         0
40.870        13
40.880        13
40.890        27
40.900        67
40.910         0
40.920        13
40.930        27
40.940        67
40.950        13
40.960        27
40.970        53
40.980        13
40.990         0
41.000        27
41.010         0
41.020        27
41.030        13
41.040        13
41.050        40
41.060        13
41.070         0
41.080         0
41.090         0
41.100        13
41.110        53
41.120         0
41.130        40
41.140        13
41.150        40
41.160        27
41.170         0
41.180        13
41.190        13
41.200         0
41.210         0
41.220        13
41.230        13
41.240        13
41.250        27
41.260        40
41.270         0
41.280        13
41.290        13
41.300         0
41.310         0
41.320        13
41.330        13
41.340        27
41.350         0
41.360        27
41.370        13
41.380        27
41.390        13
41.400        40
41.410         0
41.420        27
41.430         0
41.440        13
41.450         0
41.460         0
41.470         0
41.480        13
41.490         0
41.500         0
41.510        40
41.520        13
41.530         0
41.540         0
41.550        40
41.560        13
41.570        40
41.580         0
41.590         0
41.600        13
41.610        13
41.620         0
41.630        27
41.640        13
41.650        27
41.660        13
41.670        27
41.680        27
41.690        67
41.700        40
41.710        27
41.720        13
41.730         0
41.740         0
41.750         0
41.760         0
41.770        13
41.780         0
41.790        13
41.800        13
41.810        40
41.820         0
41.830        13
41.840        27
41.850        13
41.860         0
41.870         0
41.880        27
41.890        27
41.900        13
41.910        27
41.920        27
41.930        40
41.940        13
41.950        13
41.960         0
41.970        27
41.980        27
41.990        27
42.000        13
42.010         0
42.020        67
42.030        13
42.040        13
42.050        13
42.060        27
42.070        27
42.080        27
42.090        13
42.100        13
42.110        13
42.120        27
42.130         0
42.140        40
42.150        27
42.160         0
42.170        40
42.180        13
42.190        13
42.200         0
42.210        13
42.220         0
42.230        67
42.240        27
42.250        27
42.260        27
42.270        27
42.280        27
42.290        13
42.300         0
42.310        13
42.320         0
42.330        13
42.340        53
42.350        27
42.360        13
42.370        40
42.380        40
42.390         0
42.400        27
42.410        40
42.420        40
42.430        13
42.440         0
42.450         0
42.460        27
42.470        27
42.480        27
42.490        13
42.500        13
42.510        40
42.520        40
42.530        13
42.540         0
42.550        27
42.560         0
42.570        13
42.580        13
42.590        13
42.600        40
42.610        13
42.620        13
42.630        13
42.640        13
42.650         0
42.660        13
42.670        13
42.680        27
42.690         0
42.700         0
42.710        53
42.720        27
42.730        13
42.740        40
42.750        13
42.760        40
42.770         0
42.780        13
42.790        40
42.800        13
42.810        27
42.820        27
42.830         0
42.840        27
42.850        27
42.860        13
42.870        53
42.880         0
42.890        27
42.900        13
42.910        13
42.920        13
42.930        27
42.940        27
42.950        13
42.960        40
42.970         0
42.980        13
42.990        27
43.000        53
43.010        13
43.020         0
43.030        27
43.040        13
43.050        27
43.060         0
43.070        67
43.080        27
43.090        27
43.100        80
43.110        27
43.120        40
43.130        27
43.140        40
43.150        13
43.160        13
43.170        53
43.180        13
43.190        13
43.200        53
43.210        13
43.220        27
43.230        40
43.240        13
43.250        67
43.260         0
43.270        40
43.280        27
43.290         0
43.300        13
43.310        27
43.320        27
43.330        40
43.340        40
43.350        13
43.360        27
43.370        67
43.380        13
43.390        13
43.400        27
43.410        40
43.420        13
43.430         0
43.440         0
43.450        53
43.460        53
43.470         0
43.480        13
43.490        27
43.500        13
43.510         0
43.520        13
43.530        27
43.540        13
43.550        53
43.560        13
43.570        27
43.580        40
43.590        27
43.600         0
43.610        27
43.620         0
43.630        13
43.640        13
43.650         0
43.660        13
43.670        40
43.680        13
43.690        13
43.700        13
43.710        13
43.720         0
43.730         0
43.740         0
43.750        40
43.760        27
43.770         0
43.780        13
43.790         0
43.800        27
43.810         0
43.820        13
43.830        53
43.840         0
43.850        67
43.860        13
43.870        13
43.880        13
43.890        40
43.900        13
43.910         0
43.920        13
43.930         0
43.940         0
43.950        13
43.960         0
43.970         0
43.980        13
43.990        53
44.000        27
44.010        13
44.020         0
44.030        13
44.040         0
44.050        13
44.060        40
44.070        13
44.080        13
44.090        13
44.100        27
44.110        53
44.120         0
44.130        27
44.140        27
44.150        13
44.160        27
44.170        13
44.180        13
44.190        27
44.200         0
44.210        40
44.220         0
44.230         0
44.240        27
44.250        13
44.260        40
44.270         0
44.280        40
44.290        27
44.300        13
44.310        27
44.320        13
44.330        40
44.340        40
44.350        27
44.360        13
44.370        27
44.380        53
44.390        27
44.400        27
44.410        27
44.420        27
44.430        13
44.440        13
44.450        27
44.460         0
44.470         0
44.480         0
44.490        27
44.500        13
44.510        53
44.520        13
44.530        27
44.540        13
44.550         0
44.560        67
44.570        53
44.580        27
44.590         0
44.600        13
44.610        13
44.620        13
44.630        27
44.640         0
44.650        13
44.660        27
44.670        27
44.680        27
44.690        40
44.700        13
44.710        13
44.720        13
44.730        13
44.740         0
44.750        27
44.760        53
44.770        27
44.780        27
44.790        13
44.800         0
44.810        13
44.820        27
44.830        13
44.840        27
44.850        13
44.860        27
44.870        13
44.880        13
44.890        13
44.900         0
44.910        13
44.920        13
44.930        13
44.940        13
44.950        13
44.960        53
44.970        53
44.980        27
44.990        40
45.000        67
45.010        53
45.020        27
45.030        13
45.040        27
45.050        40
45.060        53
45.070        13
45.080         0
45.090        27
45.100        27
45.110        27
45.120        13
45.130        40
45.140        13
45.150        13
45.160        27
45.170         0
45.180        27
45.190        27
45.200        27
45.210        13
45.220        13
45.230        27
45.240        53
45.250         0
45.260        27
45.270        27
45.280        27
45.290         0
45.300        27
45.310        13
45.320        13
45.330        53
45.340        40
45.350        13
45.360        13
45.370        13
45.380        13
45.390        40
45.400        27
45.410        53
45.420         0
45.430         0
45.440        13
45.450         0
45.460        13
45.470         0
45.480         0
45.490        13
45.500        13
45.510         0
45.520        53
45.530        40
45.540        27
45.550        13
45.560        27
45.570        13
45.580        40
45.590        27
45.600         0
45.610        40
45.620        40
45.630        27
45.640        27
45.650        40
45.660        27
45.670        13
45.680        80
45.690        27
45.700         0
45.710        13
45.720        40
45.730        40
45.740        40
45.750         0
45.760         0
45.770         0
45.780         0
45.790        40
45.800        40
45.810         0
45.820        40
45.830         0
45.840         0
45.850        80
45.860         0
45.870        13
45.880        27
45.890        13
45.900        27
45.910        40
45.920        27
45.930        13
45.940        40
45.950        27
45.960        27
45.970        53
45.980        27
45.990        27
46.000        93
46.010        27
46.020        27
46.030        13
46.040        27
46.050        93
46.060        80
46.070        27
46.080        40
46.090        67
46.100        93
46.110       107
46.120        53
46.130        93
46.140        53
46.150        53
46.160        93
46.170        13
46.180       133
46.190       133
46.200       120
46.210       120
46.220       107
46.230       173
46.240       173
46.250       133
46.260       133
46.270       173
46.280       160
46.290       120
46.300       200
46.310       253
46.320       227
46.330       253
46.340       307
46.350       333
46.360       347
46.370       347
46.380       293
46.390       400
46.400       333
46.410       307
46.420       200
46.430       253
46.440       360
46.450       267
46.460       227
46.470       147
46.480       267
46.490       240
46.500       200
46.510       187
46.520       187
46.530       173
46.540       107
46.550       147
46.560       107
46.570       213
46.580        80
46.590       107
46.600        93
46.610        67
46.620         0
46.630        80
46.640        53
46.650        93
46.660        40
46.670        67
46.680        27
46.690        53
46.700        40
46.710        40
46.720        40
46.730        40
46.740        80
46.750        53
46.760        53
46.770        13
46.780        13
46.790        53
46.800        67
46.810        13
46.820        93
46.830        27
46.840        53
46.850        67
46.860       120
46.870        80
46.880       133
46.890       133
46.900       133
46.910       133
46.920        93
46.930       147
46.940       133
46.950        53
46.960        80
46.970        40
46.980        53
46.990        67
47.000       120
47.010       107
47.020        67
47.030        80
47.040        80
47.050        40
47.060        67
47.070        13
47.080        67
47.090       133
47.100        67
47.110        80
47.120        53
47.130         0
47.140        53
47.150        40
47.160        67
47.170        40
47.180        53
47.190        67
47.200        27
47.210        67
47.220        27
47.230        67
47.240        40
47.250        13
47.260         0
47.270        40
47.280        27
47.290        53
47.300        67
47.310        13
47.320        27
47.330        27
47.340       107
47.350        27
47.360        53
47.370         0
47.380        53
47.390        40
47.400        67
47.410        27
47.420        13
47.430        27
47.440        27
47.450        27
47.460        13
47.470        53
47.480        13
47.490        40
47.500        13
47.510        27
47.520        13
47.530        53
47.540        27
47.550         0
47.560        27
47.570        13
47.580        53
47.590        13
47.600        27
47.610        67
47.620        53
47.630        13
47.640        53
47.650        27
47.660        27
47.670        53
47.680        27
47.690        40
47.700        40
47.710        13
47.720        40
47.730        67
47.740        67
47.750        13
47.760        27
47.770        13
47.780        13
47.790        27
47.800        13
47.810         0
47.820         0
47.830        13
47.840        53
47.850        53
47.860        13
47.870        27
47.880        13
47.890        53
47.900        13
47.910         0
47.920        27
47.930        40
47.940        13
47.950         0
47.960        27
47.970        13
47.980         0
47.990        40
48.000        13
48.010         0
48.020        27
48.030        13
48.040        13
48.050        13
48.060         0
48.070        13
48.080        67
48.090        27
48.100         0
48.110         0
48.120        13
48.130        53
48.140        40
48.150        13
48.160        13
48.170         0
48.180         0
48.190        27
48.200        13
48.210        27
48.220        27
48.230        13
48.240        40
48.250        27
48.260         0
48.270         0
48.280        53
48.290        27
48.300        27
48.310        13
48.320        13
48.330        27
48.340        27
48.350        13
48.360         0
48.370        13
48.380        67
48.390        67
48.400        40
48.410        40
48.420        27
48.430        40
48.440        40
48.450        40
48.460        53
48.470        27
48.480        27
48.490        27
48.500         0
48.510        40
48.520         0
48.530        27
48.540        27
48.550        27
48.560        27
48.570        13
48.580        13
48.590        13
48.600        80
48.610         0
48.620         0
48.630        40
48.640        80
48.650         0
48.660        40
48.670        40
48.680        13
48.690         0
48.700        13
48.710        13
48.720        40
48.730        13
48.740        27
48.750         0
48.760        13
48.770        27
48.780        27
48.790        13
48.800        40
48.810        27
48.820        13
48.830        27
48.840        27
48.850        40
48.860        40
48.870         0
48.880        27
48.890         0
48.900        53
48.910        13
48.920        13
48.930         0
48.940        27
48.950        53
48.960        40
48.970         0
48.980        27
48.990        53
49.000        27
49.010        13
49.020         0
49.030        27
49.040        27
49.050        27
49.060         0
49.070        40
49.080        13
49.090        13
49.100        13
49.110        27
49.120        53
49.130        27
49.140        40
49.150        27
49.160         0
49.170        27
49.180        40
49.190         0
49.200         0
49.210        27
49.220        40
49.230        27
49.240        40
49.250        13
49.260        13
49.270        27
49.280        13
49.290        40
49.300        13
49.310        13
49.320        13
49.330        40
49.340         0
49.350        40
49.360        27
49.370        27
49.380        13
49.390        27
49.400        27
49.410        13
49.420        13
49.430         0
49.440        13
49.450        40
49.460         0
49.470        13
49.480         0
49.490         0
49.500         0
49.510        13
49.520        27
49.530         0
49.540        13
49.550         0
49.560        27
49.570        13
49.580        13
49.590        13
49.600        13
49.610        13
49.620        13
49.630         0
49.640        40
49.650         0
49.660        13
49.670        53
49.680        13
49.690        13
49.700         0
49.710        27
49.720        53
49.730        13
49.740        27
49.750         0
49.760        13
49.770        13
49.780        40
49.790        27
49.800        13
49.810        13
49.820        40
49.830        13
49.840        13
49.850        13
49.860        40
49.870        40
49.880        27
49.890        27
49.900        27
49.910        13
49.920        27
49.930        27
49.940        27
49.950        13
49.960         0
49.970        27
49.980        27
49.990        40
50.000        27
50.010        27
50.020        80
50.030        27
50.040        27
50.050        53
50.060        13
50.070        53
50.080        40
50.090        80
50.100         0
50.110         0
50.120        13
50.130        13
50.140        13
50.150         0
50.160        27
50.170        13
50.180        40
50.190        27
50.200        13
50.210        40
50.220        53
50.230        40
50.240        40
50.250        67
50.260        13
50.270        13
50.280        27
50.290        40
50.300        27
50.310        27
50.320        27
50.330        40
50.340        53
50.350        67
50.360        13
50.370        13
50.380         0
50.390        13
50.400        27
50.410        67
50.420        27
50.430        40
50.440        13
50.450        40
50.460        40
50.470        13
50.480        27
50.490        13
50.500        27
50.510        40
50.520        40
50.530        53
50.540         0
50.550        40
50.560        13
50.570         0
50.580        27
50.590        13
50.600         0
50.610        13
50.620        27
50.630         0
50.640        13
50.650        13
50.660         0
50.670        27
50.680         0
50.690        27
50.700        13
50.710        40
50.720         0
50.730        13
50.740        53
50.750        13
50.760        40
50.770         0
50.780        13
50.790        13
50.800         0
50.810        13
50.820        27
50.830        40
50.840        27
50.850        27
50.860        13
50.870        13
50.880        27
50.890         0
50.900        27
50.910        13
50.920         0
50.930        40
50.940        27
50.950        27
50.960        27
50.970        13
50.980        40
50.990        53
51.000        27
51.010         0
51.020        40
51.030         0
51.040        13
51.050        67
51.060        67
51.070        13
51.080        13
51.090        53
51.100        27
51.110        80
51.120        27
51.130        13
51.140         0
51.150        27
51.160        27
51.170        13
51.180        13
51.190        80
51.200        27
51.210         0
51.220        40
51.230        13
51.240        40
51.250        67
51.260        13
51.270        53
51.280         0
51.290        27
51.300         0
51.310        27
51.320        13
51.330        67
51.340        40
51.350        13
51.360        13
51.370        13
51.380         0
51.390        53
51.400        40
51.410         0
51.420        27
51.430         0
51.440        27
51.450        13
51.460        53
51.470        27
51.480        67
51.490        13
51.500        40
51.510        40
51.520         0
51.530        53
51.540        27
51.550        53
51.560        27
51.570        40
51.580        40
51.590        40
51.600        13
51.610         0
51.620        67
51.630        40
51.640         0
51.650        67
51.660        53
51.670         0
51.680        67
51.690        27
51.700        13
51.710        40
51.720        53
51.730        13
51.740        67
51.750         0
51.760        40
51.770        40
51.780        27
51.790        27
51.800        53
51.810        13
51.820        27
51.830        13
51.840        27
51.850        53
51.860        27
51.870        13
51.880        13
51.890        40
51.900        53
51.910        53
51.920        27
51.930        80
51.940        13
51.950        67
51.960        93
51.970        53
51.980        40
51.990        27
52.000        27
52.010        27
52.020        53
52.030        67
52.040        40
52.050        40
52.060        53
52.070        67
52.080        27
52.090        53
52.100        67
52.110        13
52.120        53
52.130        53
52.140        40
52.150        80
52.160        27
52.170        53
52.180        67
52.190        40
52.200        27
52.210        53
52.220        40
52.230        13
52.240        27
52.250        67
52.260        40
52.270        27
52.280        40
52.290        53
52.300         0
52.310        27
52.320        67
52.330        27
52.340        27
52.350        13
52.360        53
52.370        27
52.380        27
52.390        27
52.400        27
52.410        13
52.420        53
52.430        13
52.440        40
52.450        53
52.460        40
52.470        40
52.480        40
52.490        13
52.500        13
52.510        27
52.520       120
52.530       107
52.540       107
52.550        80
52.560        93
52.570        80
52.580       133
52.590        93
52.600       133
52.610        53
52.620        53
52.630       120
52.640        40
52.650        80
52.660        40
52.670        80
52.680        40
52.690        67
52.700        53
52.710        80
52.720        53
52.730        40
52.740        53
52.750        53
52.760        40
52.770        27
52.780        53
52.790        27
52.800        40
52.810        27
52.820        13
52.830        40
52.840        53
52.850        13
52.860        53
52.870        80
52.880        67
52.890         0
52.900         0
52.910        40
52.920        40
52.930        13
52.940        80
52.950        40
52.960        53
52.970        27
52.980        53
52.990        53
53.000        80
53.010        53
53.020        40
53.030        53
53.040        67
53.050        40
53.060        40
53.070        80
53.080        67
53.090        13
53.100        27
53.110        13
53.120        13
53.130        13
53.140        53
53.150        40
53.160        27
53.170        67
53.180        40
53.190         0
53.200        13
53.210        40
53.220         0
53.230        40
53.240        13
53.250        67
53.260        13
53.270        53
53.280        40
53.290        13
53.300        13
53.310        27
53.320        53
53.330        27
53.340        13
53.350         0
53.360        13
53.370        53
53.380        53
53.390        40
53.400         0
53.410        53
53.420        40
53.430        27
53.440        40
53.450        40
53.460        27
53.470         0
53.480        27
53.490         0
53.500         0
53.510        27
53.520        13
53.530        53
53.540        27
53.550        27
53.560        40
53.570         0
53.580        53
53.590        13
53.600        67
53.610        13
53.620        27
53.630        27
53.640        27
53.650        27
53.660        53
53.670        67
53.680         0
53.690        13
53.700        13
53.710        27
53.720        67
53.730        40
53.740        27
53.750        27
53.760        53
53.770        13
53.780        13
53.790        13
53.800        27
53.810        27
53.820         0
53.830        13
53.840         0
53.850         0
53.860         0
53.870        40
53.880        13
53.890        27
53.900        40
53.910        53
53.920        13
53.930        27
53.940        27
53.950        40
53.960         0
53.970        27
53.980        13
53.990        40
54.000        27
54.010        27
54.020        13
54.030        27
54.040        13
54.050        40
54.060        53
54.070        13
54.080        13
54.090        40
54.100        13
54.110         0
54.120        27
54.130        13
54.140        13
54.150        13
54.160        13
54.170        27
54.180         0
54.190         0
54.200        27
54.210        80
54.220        40
54.230        13
54.240        27
54.250        13
54.260        27
54.270        40
54.280        27
54.290        13
54.300        27
54.310        40
54.320         0
54.330         0
54.340        13
54.350         0
54.360        27
54.370        27
54.380        40
54.390         0
54.400         0
54.410        27
54.420        13
54.430         0
54.440        13
54.450        40
54.460        13
54.470         0
54.480        27
54.490        27
54.500         0
54.510        27
54.520        40
54.530        13
54.540        13
54.550        13
54.560        13
54.570        27
54.580        27
54.590        27
54.600        40
54.610         0
54.620        27
54.630        40
54.640        27
54.650         0
54.660         0
54.670        27
54.680        13
54.690        40
54.700        27
54.710        13
54.720        13
54.730        67
54.740        27
54.750        13
54.760        53
54.770        13
54.780         0
54.790         0
54.800         0
54.810        27
54.820        13
54.830         0
54.840        13
54.850        13
54.860        27
54.870         0
54.880        27
54.890         0
54.900        27
54.910        13
54.920        13
54.930        27
54.940        27
54.950        27
54.960         0
54.970         0
54.980        27
54.990        27
55.000         0
55.010        53
55.020        13
55.030        27
55.040        13
55.050        27
55.060        27
55.070        27
55.080        27
55.090        27
55.100        53
55.110        13
55.120        13
55.130        40
55.140        13
55.150         0
55.160        40
55.170        27
55.180        27
55.190         0
55.200        13
55.210        13
55.220        13
55.230        27
55.240         0
55.250        27
55.260        13
55.270        13
55.280        40
55.290        67
55.300        40
55.310        53
55.320        13
55.330        13
55.340        40
55.350        40
55.360        13
55.370        13
55.380         0
55.390        13
55.400        13
55.410        27
55.420        27
55.430        27
55.440         0
55.450         0
55.460        40
55.470         0
55.480        40
55.490        13
55.500        13
55.510         0
55.520        13
55.530        13
55.540        40
55.550        40
55.560        27
55.570        27
55.580         0
55.590        27
55.600        13
55.610        27
55.620         0
55.630        53
55.640         0
55.650         0
55.660        13
55.670        27
55.680        40
55.690        13
55.700        13
55.710        13
55.720        13
55.730        27
55.740        13
55.750        13
55.760        40
55.770        13
55.780        53
55.790        13
55.800        13
55.810        40
55.820        13
55.830        13
55.840        27
55.850        40
55.860        13
55.870        13
55.880        27
55.890        40
55.900         0
55.910        27
55.920        27
55.930        13
55.940        13
55.950        27
55.960         0
55.970        40
55.980        27
55.990        27
56.000        27
56.010        27
56.020        53
56.030        13
56.040        27
56.050        13
56.060        13
56.070         0
56.080        13
56.090        13
56.100        13
56.110        53
56.120        27
56.130        13
56.140        40
56.150        53
56.160        27
56.170         0
56.180        27
56.190         0
56.200        53
56.210         0
56.220         0
56.230        13
56.240        27
56.250        27
56.260         0
56.270        13
56.280        13
56.290        27
56.300        27
56.310        27
56.320        13
56.330         0
56.340         0
56.350        13
56.360        40
56.370        13
56.380         0
56.390         0
56.400        13
56.410        27
56.420         0
56.430        13
56.440        40
56.450        27
56.460        40
56.470        27
56.480        27
56.490        40
56.500        13
56.510        27
56.520         0
56.530        27
56.540        27
56.550        27
56.560        27
56.570        13
56.580        40
56.590         0
56.600         0
56.610         0
56.620        27
56.630        13
56.640        13
56.650        13
56.660         0
56.670        13
56.680         0
56.690        13
56.700         0
56.710        13
56.720         0
56.730        27
56.740         0
56.750        13
56.760        13
56.770         0
56.780        13
56.790        13
56.800        40
56.810        13
56.820        40
56.830         0
56.840        27
56.850        67
56.860        13
56.870        13
56.880        13
56.890        13
56.900        13
56.910        27
56.920        13
56.930         0
56.940         0
56.950        27
56.960         0
56.970         0
56.980         0
56.990        27
57.000        27
57.010        13
57.020         0
57.030        13
57.040        27
57.050         0
57.060        27
57.070        13
57.080         0
57.090        13
57.100        27
57.110         0
57.120        13
57.130         0
57.140        13
57.150        27
57.160        13
57.170         0
57.180        13
57.190        27
57.200         0
57.210         0
57.220         0
57.230         0
57.240         0
57.250        40
57.260         0
57.270        27
57.280        40
57.290        13
57.300        13
57.310        53
57.320         0
57.330        27
57.340        27
57.350        27
57.360         0
57.370         0
57.380        40
57.390        27
57.400        27
57.410        27
57.420        40
57.430        53
57.440        40
57.450        40
57.460        40
57.470        27
57.480        13
57.490        27
57.500        13
57.510        13
57.520        13
57.530         0
57.540        53
57.550        40
57.560         0
57.570        13
57.580         0
57.590        13
57.600        13
57.610         0
57.620        13
57.630        27
57.640        27
57.650         0
57.660        13
57.670         0
57.680         0
57.690         0
57.700        27
57.710        27
57.720         0
57.730        40
57.740        53
57.750        13
57.760        27
57.770        27
57.780        53
57.790        13
57.800        13
57.810         0
57.820         0
57.830        27
57.840        13
57.850         0
57.860        13
57.870        13
57.880         0
57.890         0
57.900        13
57.910         0
57.920        13
57.930        13
57.940         0
57.950        27
57.960         0
57.970        27
57.980         0
57.990        40
58.000         0
58.010        27
58.020         0
58.030         0
58.040         0
58.050         0
58.060        27
58.070        13
58.080        13
58.090         0
58.100        13
58.110        13
58.120         0
58.130        13
58.140        53
58.150        13
58.160         0
58.170         0
58.180         0
58.190        13
58.200        27
58.210        13
58.220        53
58.230        27
58.240        40
58.250        13
58.260        13
58.270        13
58.280        53
58.290        27
58.300        27
58.310        40
58.320        27
58.330         0
58.340        13
58.350        13
58.360        27
58.370         0
58.380        13
58.390         0
58.400        27
58.410        27
58.420        40
58.430        27
58.440        13
58.450        13
58.460        13
58.470        13
58.480        40
58.490        40
58.500        27
58.510        27
58.520         0
58.530        40
58.540         0
58.550        13
58.560        13
58.570        53
58.580        13
58.590        13
58.600         0
58.610         0
58.620         0
58.630        40
58.640         0
58.650        13
58.660         0
58.670        13
58.680        27
58.690        13
58.700         0
58.710        27
58.720        13
58.730        13
58.740        13
58.750        13
58.760        53
58.770        13
58.780        53
58.790        27
58.800        27
58.810        13
58.820        13
58.830         0
58.840        27
58.850        40
58.860         0
58.870         0
58.880        27
58.890        27
58.900         0
58.910         0
58.920        27
58.930         0
58.940         0
58.950        27
58.960         0
58.970        27
58.980        27
58.990        13
59.000        13
59.010        13
59.020         0
59.030        13
59.040        13
59.050        27
59.060         0
59.070        27
59.080        13
59.090         0
59.100        27
59.110        13
59.120         0
59.130        13
59.140         0
59.150         0
59.160        27
59.170         0
59.180        13
59.190         0
59.200        27
59.210        13
59.220        27
59.230        27
59.240         0
59.250         0
59.260         0
59.270        27
59.280        13
59.290        27
59.300        13
59.310        13
59.320        13
59.330        13
59.340         0
59.350        13
59.360         0
59.370        13
59.380         0
59.390         0
59.400         0
59.410         0
59.420         0
59.430        27
59.440        27
59.450        13
59.460        13
59.470         0
59.480         0
59.490        27
59.500        40
59.510        13
59.520        13
59.530        27
59.540        40
59.550        13
59.560        27
59.570        27
59.580        27
59.590        13
59.600         0
59.610         0
59.620        13
59.630        13
59.640        27
59.650         0
59.660        27
59.670         0
59.680         0
59.690        27
59.700         0
59.710        13
59.720        13
59.730         0
59.740         0
59.750         0
59.760        13
59.770        13
59.780         0
59.790         0
59.800        27
59.810        27
59.820        27
59.830        27
59.840         0
59.850         0
59.860        13
59.870        13
59.880        13
59.890         0
59.900         0
59.910        53
59.920        13
59.930        27
59.940        13
59.950        13
59.960         0
59.970        27
59.980         0
59.990        40
60.000         0
