20.000        20
20.010        40
20.020        80
20.030        27
20.040        13
20.050        27
20.060        40
20.070        47
20.080         7
20.090        40
20.100        53
20.110        53
20.120        13
20.130        20
20.140        40
20.150        27
20.160        27
20.170        33
20.180        60
20.190        80
20.200        47
20.210        33
20.220        47
20.230        60
20.240        40
20.250        33
20.260        33
20.270        33
20.280        33
20.290        27
20.300        33
20.310        53
20.320        40
20.330        33
20.340        47
20.350        33
20.360        53
20.370        53
20.380        13
20.390        47
20.400        47
20.410        53
20.420        20
20.430        53
20.440        33
20.450        27
20.460        27
20.470        27
20.480        20
20.490        33
20.500        60
20.510        47
20.520        80
20.530        40
20.540        47
20.550        47
20.560        53
20.570        47
20.580        13
20.590        27
20.600        33
20.610        20
20.620        13
20.630        13
20.640        33
20.650        40
20.660        53
20.670        33
20.680        93
20.690        33
20.700        33
20.710        27
20.720        33
20.730        27
20.740        33
20.750        67
20.760        33
20.770        33
20.780        33
20.790        33
20.800        53
20.810        33
20.820        67
20.830        13
20.840        27
20.850        33
20.860        33
20.870        67
20.880        13
20.890        33
20.900        47
20.910        27
20.920        13
20.930        40
20.940        60
20.950        33
20.960        33
20.970        20
20.980        47
20.990        67
21.000        20
21.010        20
21.020        47
21.030        33
21.040        40
21.050        40
21.060        40
21.070        60
21.080        27
21.090        47
21.100        33
21.110        13
21.120        47
21.130        27
21.140        33
21.150        27
21.160        67
21.170        47
21.180        73
21.190        40
21.200        27
21.210        40
21.220        47
21.230        40
21.240        60
21.250        67
21.260        47
21.270        27
21.280        47
21.290        40
21.300        33
21.310        40
21.320        20
21.330        20
21.340        33
21.350        60
21.360        47
21.370        47
21.380        33
21.390        33
21.400        60
21.410        40
21.420        27
21.430        20
21.440         7
21.450        40
21.460        40
21.470        20
21.480        20
21.490        40
21.500        33
21.510        33
21.520        27
21.530        47
21.540        27
21.550        27
21.560        67
21.570        27
21.580        40
21.590        60
21.600        40
21.610        73
21.620        20
21.630        33
21.640        27
21.650        20
21.660        40
21.670        33
21.680        27
21.690        87
21.700        40
21.710        33
21.720        47
21.730        13
21.740        20
21.750        20
21.760        27
21.770        33
21.780        33
21.790        53
21.800        53
21.810        20
21.820        53
21.830        40
21.840        40
21.850        27
21.860        33
21.870        33
21.880        13
21.890        87
21.900        13
21.910        40
21.920        40
21.930        27
21.940        33
21.950        27
21.960        40
21.970        27
21.980        27
21.990        13
22.000         7
22.010        73
22.020        73
22.030        27
22.040         7
22.050        33
22.060        40
22.070        27
22.080        47
22.090        47
22.100         7
22.110        33
22.120        47
22.130        40
22.140        40
22.150        53
22.160        20
22.170        27
22.180        33
22.190        40
22.200        27
22.210        27
22.220        40
22.230        53
22.240        33
22.250        67
22.260        27
22.270        20
22.280        53
22.290        67
22.300        47
22.310        47
22.320        20
22.330        67
22.340        53
22.350        27
22.360        47
22.370        27
22.380        47
22.390        20
22.400        13
22.410        47
22.420        47
22.430        27
22.440        80
22.450        20
22.460        60
22.470        47
22.480        33
22.490        33
22.500        60
22.510        60
22.520        73
22.530        53
22.540        47
22.550        80
22.560        67
22.570        80
22.580        87
22.590        67
22.600        73
22.610        47
22.620       127
22.630        47
22.640        40
22.650        87
22.660        87
22.670        60
22.680        93
22.690        53
22.700        87
22.710        73
22.720        60
22.730        80
22.740        40
22.750        87
22.760        60
22.770        87
22.780         0
22.790        53
22.800        53
22.810        67
22.820        67
22.830        53
22.840        33
22.850        60
22.860        20
22.870        13
22.880        60
22.890        67
22.900        60
22.910        60
22.920        67
22.930        80
22.940        47
22.950        33
22.960        47
22.970        53
22.980        47
22.990        20
23.000        33
23.010        27
23.020        60
23.030        40
23.040        67
23.050        40
23.060        20
23.070        40
23.080        53
23.090        40
23.100        40
23.110        40
23.120        13
23.130        33
23.140        20
23.150        40
23.160        47
23.170        33
23.180        33
23.190        33
23.200        33
23.210        27
23.220        20
23.230        27
23.240        33
23.250        20
23.260        27
23.270        33
23.280        33
23.290        40
23.300        20
23.310        33
23.320        13
23.330        33
23.340        13
23.350        27
23.360        60
23.370        40
23.380        27
23.390        33
23.400        27
23.410        27
23.420        53
23.430        40
23.440        33
23.450        20
23.460        13
23.470        20
23.480        67
23.490        27
23.500        27
23.510        27
23.520        40
23.530        33
23.540        20
23.550        53
23.560        47
23.570        27
23.580        20
23.590        47
23.600        53
23.610        47
23.620        27
23.630        40
23.640        20
23.650        20
23.660        53
23.670        27
23.680        27
23.690        27
23.700        20
23.710        53
23.720        20
23.730        27
23.740        47
23.750        13
23.760        40
23.770        53
23.780        53
23.790        40
23.800        27
23.810        47
23.820        60
23.830        53
23.840        93
23.850        27
23.860         7
23.870        47
23.880        53
23.890        40
23.900        27
23.910        40
23.920        20
23.930         0
23.940        33
23.950        33
23.960        20
23.970         7
23.980        47
23.990        20
24.000        33
24.010        47
24.020        27
24.030        13
24.040        27
24.050        27
24.060        60
24.070        13
24.080        20
24.090        33
24.100        27
24.110        53
24.120        20
24.130        13
24.140        53
24.150        47
24.160        33
24.170        27
24.180        40
24.190        13
24.200        40
24.210         0
24.220        47
24.230        13
24.240        47
24.250        13
24.260        33
24.270        27
24.280        13
24.290        33
24.300        47
24.310         0
24.320        73
24.330        20
24.340        27
24.350        20
24.360        47
24.370        40
24.380        33
24.390         7
24.400        33
24.410        53
24.420        27
24.430        27
24.440         7
24.450        33
24.460        53
24.470        27
24.480        27
24.490        27
24.500        27
24.510        33
24.520        33
24.530        40
24.540        33
24.550        40
24.560        20
24.570        33
24.580        27
24.590        33
24.600        33
24.610        40
24.620        33
24.630        27
24.640        33
24.650        53
24.660        27
24.670        47
24.680        40
24.690        27
24.700        20
24.710        27
24.720        33
24.730        27
24.740        33
24.750        20
24.760        20
24.770        27
24.780        40
24.790        40
24.800        53
24.810        27
24.820         0
24.830        27
24.840        27
24.850        20
24.860        27
24.870        27
24.880        67
24.890        47
24.900        33
24.910        40
24.920        40
24.930        13
24.940        40
24.950        40
24.960        33
24.970        20
24.980        13
24.990        20
25.000        27
25.010        13
25.020        27
25.030        13
25.040        27
25.050        33
25.060         7
25.070         7
25.080        20
25.090        53
25.100        27
25.110        27
25.120        33
25.130        27
25.140        40
25.150        27
25.160        67
25.170        47
25.180        27
25.190        20
25.200        20
25.210        40
25.220        33
25.230        20
25.240        33
25.250        27
25.260        27
25.270        27
25.280        13
25.290        33
25.300        20
25.310        20
25.320        13
25.330        33
25.340        60
25.350        13
25.360        13
25.370        47
25.380        40
25.390        33
25.400        13
25.410        60
25.420        13
25.430        40
25.440        53
25.450        33
25.460        87
25.470        47
25.480        67
25.490        53
25.500        20
25.510        20
25.520        47
25.530        53
25.540        13
25.550        47
25.560        47
25.570        53
25.580        20
25.590       107
25.600        93
25.610        73
25.620        47
25.630        67
25.640        67
25.650        40
25.660        40
25.670        80
25.680        40
25.690        73
25.700        67
25.710        47
25.720        53
25.730        87
25.740        67
25.750        60
25.760        40
25.770        27
25.780        73
25.790        53
25.800        73
25.810        47
25.820        53
25.830        40
25.840        53
25.850        33
25.860        60
25.870        53
25.880        33
25.890        60
25.900        33
25.910        53
25.920        40
25.930         7
25.940        20
25.950        27
25.960        20
25.970        27
25.980        20
25.990        40
26.000        40
26.010        27
26.020        33
26.030        13
26.040        60
26.050         7
26.060        53
26.070        40
26.080        33
26.090        20
26.100         7
26.110        20
26.120        20
26.130        20
26.140        20
26.150        33
26.160        13
26.170        33
26.180        27
26.190        13
26.200        67
26.210        27
26.220        27
26.230        13
26.240        47
26.250        27
26.260        20
26.270        13
26.280         7
26.290        33
26.300        13
26.310        20
26.320        53
26.330        27
26.340        53
26.350        33
26.360        40
26.370        20
26.380        53
26.390         0
26.400        40
26.410        13
26.420        40
26.430        33
26.440        53
26.450        80
26.460        27
26.470        40
26.480        40
26.490        47
26.500        53
26.510        47
26.520        67
26.530        60
26.540        67
26.550        53
26.560        80
26.570        53
26.580        53
26.590        93
26.600        87
26.610       120
26.620        53
26.630       107
26.640        67
26.650        93
26.660        87
26.670        93
26.680        80
26.690        73
26.700        73
26.710        60
26.720        87
26.730        60
26.740        87
26.750        73
26.760        73
26.770        87
26.780        73
26.790        60
26.800        60
26.810        20
26.820        60
26.830        67
26.840        73
26.850        53
26.860        53
26.870        53
26.880        33
26.890        40
26.900        27
26.910        40
26.920        27
26.930        53
26.940        27
26.950        27
26.960        13
26.970        20
26.980        33
26.990        20
27.000        20
27.010        27
27.020        40
27.030        33
27.040        20
27.050        33
27.060        20
27.070        20
27.080        60
27.090        40
27.100        47
27.110         7
27.120        53
27.130         7
27.140        40
27.150        20
27.160        13
27.170        27
27.180        27
27.190        13
27.200        40
27.210        40
27.220        40
27.230        33
27.240        47
27.250        47
27.260        40
27.270        33
27.280        40
27.290         0
27.300        47
27.310        40
27.320        20
27.330        33
27.340        20
27.350        27
27.360         7
27.370        40
27.380        20
27.390        33
27.400        20
27.410         7
27.420        27
27.430        13
27.440        27
27.450        27
27.460        20
27.470        27
27.480        20
27.490        33
27.500        27
27.510         7
27.520        47
27.530         7
27.540        60
27.550        20
27.560        33
27.570        27
27.580        27
27.590        13
27.600        20
27.610        40
27.620        27
27.630        33
27.640         7
27.650        20
27.660        13
27.670        47
27.680        27
27.690        27
27.700        27
27.710        20
27.720        13
27.730        33
27.740        60
27.750        27
27.760        27
27.770        13
27.780        33
27.790        53
27.800        47
27.810        27
27.820        27
27.830        27
27.840        27
27.850        27
27.860        20
27.870        27
27.880        27
27.890        20
27.900        13
27.910        33
27.920        13
27.930        20
27.940        33
27.950        13
27.960        20
27.970        47
27.980        33
27.990        27
28.000        20
28.010        40
28.020        40
28.030        53
28.040        33
28.050        27
28.060        27
28.070        47
28.080        13
28.090        27
28.100        47
28.110        27
28.120         0
28.130        27
28.140        20
28.150        33
28.160        33
28.170        27
28.180        40
28.190        20
28.200         7
28.210        13
28.220        47
28.230         7
28.240        27
28.250        40
28.260        33
28.270        20
28.280        20
28.290        33
28.300        40
28.310        20
28.320        20
28.330        20
28.340        40
28.350        20
28.360         7
28.370        33
28.380        27
28.390        13
28.400        53
28.410        33
28.420        33
28.430        33
28.440        27
28.450        40
28.460        13
28.470        27
28.480         7
28.490        27
28.500        27
28.510        20
28.520        47
28.530        20
28.540        47
28.550        40
28.560        53
28.570        13
28.580        27
28.590        40
28.600        27
28.610        27
28.620        13
28.630        27
28.640        20
28.650        27
28.660        33
28.670        47
28.680        47
28.690        20
28.700        13
28.710        33
28.720        13
28.730        33
28.740        20
28.750        20
28.760        27
28.770        40
28.780        47
28.790        20
28.800        27
28.810        47
28.820        33
28.830        40
28.840        93
28.850        40
28.860        73
28.870        53
28.880        40
28.890        27
28.900        53
28.910        60
28.920        53
28.930        53
28.940        67
28.950        80
28.960        40
28.970        80
28.980        60
28.990        60
29.000        87
29.010        67
29.020       107
29.030        67
29.040        47
29.050        73
29.060       120
29.070       120
29.080       107
29.090        67
29.100       160
29.110       147
29.120       100
29.130        67
29.140       120
29.150       107
29.160       127
29.170       113
29.180        80
29.190        80
29.200       120
29.210        80
29.220        60
29.230       107
29.240        47
29.250        80
29.260        40
29.270        67
29.280        27
29.290        67
29.300        53
29.310        40
29.320        33
29.330        60
29.340        73
29.350        60
29.360        53
29.370        40
29.380        53
29.390        53
29.400        93
29.410        40
29.420        80
29.430        87
29.440       120
29.450        60
29.460       113
29.470        73
29.480        93
29.490       107
29.500        60
29.510        87
29.520        60
29.530       127
29.540        93
29.550       120
29.560        60
29.570       127
29.580        73
29.590       113
29.600        60
29.610       127
29.620       100
29.630        53
29.640        67
29.650        53
29.660        60
29.670        53
29.680        40
29.690        33
29.700        40
29.710        13
29.720        13
29.730        27
29.740        27
29.750         0
29.760         7
29.770         0
29.780        13
29.790        27
29.800        40
29.810        60
29.820        27
29.830        33
29.840         0
29.850        13
29.860        33
29.870        13
29.880         7
29.890        60
29.900        27
29.910        33
29.920        27
29.930        13
29.940        33
29.950        20
29.960        27
29.970        33
29.980        20
29.990        13
30.000        40
30.010        27
30.020        47
30.030        33
30.040        13
30.050        13
30.060        27
30.070        40
30.080         7
30.090        13
30.100        20
30.110        20
30.120        13
30.130        20
30.140        33
30.150        40
30.160        47
30.170        20
30.180        20
30.190        27
30.200        20
30.210         0
30.220        47
30.230        20
30.240        20
30.250         7
30.260        13
30.270        40
30.280        20
30.290        33
30.300        47
30.310        27
30.320        20
30.330        33
30.340        33
30.350        53
30.360        27
30.370        27
30.380        27
30.390        80
30.400        47
30.410        33
30.420        47
30.430        60
30.440        33
30.450        13
30.460        13
30.470        47
30.480        47
30.490         0
30.500        27
30.510        47
30.520        27
30.530        33
30.540        33
30.550        53
30.560        27
30.570        53
30.580        13
30.590        13
30.600        13
30.610        13
30.620        40
30.630         7
30.640        40
30.650        13
30.660        33
30.670        40
30.680        20
30.690        27
30.700        47
30.710        40
30.720        13
30.730        20
30.740        27
30.750        33
30.760        33
30.770        27
30.780         0
30.790        47
30.800        13
30.810        27
30.820        40
30.830        20
30.840        33
30.850        20
30.860        53
30.870        13
30.880         7
30.890        27
30.900        20
30.910        20
30.920        13
30.930         7
30.940        20
30.950        40
30.960         7
30.970        13
30.980        20
30.990        40
31.000        33
31.010        13
31.020        27
31.030        47
31.040        33
31.050        13
31.060        33
31.070        13
31.080        33
31.090        40
31.100        27
31.110        33
31.120        13
31.130        33
31.140        27
31.150        40
31.160        33
31.170         7
31.180        13
31.190        33
31.200        27
31.210        20
31.220        40
31.230        47
31.240        33
31.250        27
31.260        40
31.270        20
31.280        40
31.290        20
31.300         7
31.310         7
31.320        33
31.330         7
31.340        27
31.350        13
31.360        33
31.370         0
31.380        20
31.390         7
31.400         7
31.410        47
31.420        47
31.430        20
31.440        33
31.450        13
31.460         7
31.470        27
31.480        20
31.490        13
31.500        27
31.510        33
31.520         7
31.530        40
31.540        53
31.550        20
31.560        27
31.570        13
31.580        40
31.590        53
31.600        40
31.610        20
31.620        13
31.630        27
31.640        20
31.650        40
31.660        27
31.670        13
31.680         7
31.690        13
31.700        33
31.710        20
31.720        20
31.730        13
31.740        40
31.750        20
31.760        33
31.770         0
31.780        47
31.790        33
31.800        33
31.810         7
31.820        20
31.830        27
31.840        13
31.850        33
31.860        27
31.870        40
31.880        47
31.890        13
31.900        20
31.910        20
31.920        40
31.930        33
31.940        47
31.950        80
31.960        67
31.970        47
31.980        53
31.990        40
32.000        20
32.010        33
32.020        47
32.030        53
32.040        13
32.050        40
32.060        40
32.070        33
32.080        40
32.090        60
32.100        47
32.110        40
32.120        33
32.130        27
32.140        47
32.150        67
32.160        73
32.170        47
32.180        53
32.190        20
32.200        40
32.210        27
32.220        20
32.230        40
32.240        27
32.250        33
32.260        13
32.270        27
32.280        60
32.290        13
32.300        27
32.310        47
32.320        27
32.330        33
32.340         7
32.350        40
32.360         7
32.370        13
32.380        60
32.390        20
32.400        20
32.410        20
32.420         7
32.430         7
32.440        13
32.450        20
32.460        53
32.470        13
32.480        27
32.490        27
32.500        20
32.510        33
32.520        33
32.530        40
32.540        40
32.550        47
32.560        67
32.570        47
32.580        47
32.590        33
32.600        53
32.610        53
32.620        53
32.630        53
32.640        40
32.650        40
32.660        80
32.670        53
32.680        73
32.690        87
32.700        47
32.710        33
32.720        67
32.730        67
32.740        87
32.750        93
32.760        60
32.770       107
32.780        53
32.790        47
32.800        40
32.810        53
32.820        53
32.830        33
32.840        80
32.850        87
32.860        53
32.870        53
32.880        47
32.890        60
32.900        33
32.910        27
32.920        27
32.930        27
32.940        20
32.950        33
32.960        33
32.970        53
32.980         0
32.990        40
33.000        33
33.010         7
33.020        40
33.030        53
33.040        40
33.050        33
33.060        13
33.070        60
33.080         7
33.090        33
33.100        13
33.110        40
33.120        27
33.130        33
33.140        20
33.150        20
33.160        13
33.170        40
33.180        27
33.190        40
33.200         7
33.210         7
33.220        20
33.230        27
33.240        13
33.250        40
33.260        13
33.270        20
33.280         7
33.290        27
33.300        27
33.310        33
33.320        20
33.330        13
33.340        20
33.350        33
33.360        47
33.370        33
33.380        20
33.390        27
33.400        20
33.410        33
33.420        20
33.430        27
33.440        13
33.450        40
33.460        13
33.470        47
33.480         0
33.490        13
33.500        20
33.510        33
33.520         7
33.530        13
33.540        27
33.550        27
33.560         7
33.570        20
33.580        13
33.590         7
33.600        33
33.610        20
33.620        27
33.630        13
33.640        13
33.650        27
33.660        20
33.670        33
33.680         7
33.690        33
33.700         0
33.710        13
33.720         7
33.730        20
33.740        47
33.750        27
33.760         7
33.770         7
33.780        13
33.790        13
33.800        27
33.810        13
33.820        27
33.830        27
33.840        33
33.850         7
33.860        27
33.870        27
33.880        13
33.890        13
33.900        27
33.910        27
33.920        13
33.930        40
33.940        87
33.950         7
33.960        67
33.970        33
33.980        40
33.990         7
34.000         7
34.010        27
34.020         7
34.030        27
34.040        33
34.050        20
34.060         7
34.070        33
34.080        20
34.090         7
34.100        20
34.110        27
34.120        27
34.130        27
34.140        20
34.150        27
34.160        27
34.170         7
34.180        20
34.190         7
34.200        20
34.210        13
34.220        27
34.230        13
34.240        40
34.250        13
34.260        13
34.270        27
34.280        13
34.290        27
34.300        13
34.310        27
34.320        13
34.330        13
34.340        27
34.350        33
34.360         7
34.370        13
34.380         0
34.390         7
34.400         0
34.410        20
34.420        13
34.430        13
34.440        40
34.450        33
34.460        13
34.470        13
34.480        20
34.490        27
34.500        33
34.510        20
34.520        33
34.530        13
34.540        13
34.550         7
34.560        20
34.570        40
34.580        20
34.590        47
34.600        20
34.610         7
34.620        13
34.630        47
34.640        27
34.650        53
34.660        20
34.670        47
34.680        33
34.690        53
34.700        40
34.710        67
34.720        33
34.730        20
34.740        27
34.750        13
34.760        53
34.770        80
34.780        27
34.790        27
34.800         7
34.810        33
34.820         7
34.830        13
34.840        13
34.850        47
34.860        20
34.870        13
34.880        47
34.890        40
34.900         7
34.910        20
34.920        47
34.930        40
34.940        13
34.950        20
34.960        20
34.970         7
34.980        33
34.990        13
35.000        20
35.010        40
35.020        20
35.030        13
35.040        40
35.050        47
35.060        13
35.070         7
35.080        13
35.090        13
35.100        27
35.110         7
35.120        13
35.130        13
35.140        13
35.150        13
35.160        20
35.170        40
35.180        13
35.190         7
35.200         0
35.210        33
35.220         7
35.230        20
35.240         7
35.250        13
35.260        40
35.270        47
35.280        20
35.290        20
35.300        27
35.310        20
35.320         7
35.330        13
35.340         7
35.350         7
35.360         7
35.370        33
35.380        33
35.390        27
35.400        33
35.410        13
35.420        20
35.430        20
35.440         7
35.450        20
35.460         7
35.470         0
35.480        20
35.490        13
35.500        13
35.510        33
35.520        20
35.530         7
35.540         7
35.550        33
35.560        20
35.570        27
35.580        20
35.590        33
35.600        20
35.610        13
35.620         7
35.630        20
35.640        33
35.650        20
35.660         7
35.670         7
35.680        13
35.690        27
35.700        33
35.710        47
35.720         7
35.730        20
35.740        13
35.750        27
35.760        40
35.770        27
35.780         0
35.790         7
35.800        13
35.810        13
35.820        13
35.830        47
35.840        40
35.850        20
35.860        27
35.870        27
35.880         7
35.890        20
35.900        13
35.910        27
35.920        27
35.930        13
35.940        13
35.950        20
35.960        20
35.970        13
35.980        13
35.990         7
36.000        20
36.010        13
36.020         7
36.030        53
36.040         7
36.050        20
36.060        13
36.070        20
36.080         7
36.090        13
36.100         7
36.110        13
36.120        40
36.130        13
36.140        27
36.150        27
36.160        13
36.170        47
36.180        33
36.190        20
36.200        47
36.210        13
36.220        13
36.230        13
36.240        20
36.250        20
36.260        33
36.270        27
36.280         0
36.290        33
36.300        27
36.310        27
36.320        13
36.330        20
36.340        13
36.350        20
36.360        33
36.370        13
36.380        53
36.390        33
36.400        27
36.410        33
36.420         7
36.430        20
36.440        33
36.450        27
36.460        20
36.470        33
36.480        20
36.490        20
36.500        27
36.510        27
36.520        27
36.530        20
36.540        53
36.550        27
36.560         7
36.570        33
36.580        20
36.590        27
36.600        13
36.610        27
36.620         0
36.630        13
36.640        13
36.650        27
36.660        20
36.670        20
36.680        13
36.690         7
36.700        40
36.710        27
36.720         7
36.730        13
36.740         7
36.750        13
36.760        13
36.770        20
36.780        33
36.790        27
36.800        33
36.810        13
36.820         7
36.830        13
36.840        27
36.850        13
36.860        27
36.870        27
36.880        13
36.890        20
36.900         7
36.910        13
36.920        33
36.930        13
36.940        13
36.950        33
36.960         0
36.970        27
36.980        27
36.990         7
37.000        27
37.010        20
37.020        13
37.030        13
37.040        13
37.050        27
37.060        27
37.070        13
37.080        20
37.090        27
37.100        27
37.110        20
37.120        13
37.130        13
37.140        13
37.150        20
37.160        20
37.170        33
37.180        33
37.190         7
37.200         7
37.210         7
37.220        27
37.230        27
37.240        20
37.250         7
37.260         7
37.270         7
37.280        13
37.290         7
37.300        20
37.310        13
37.320        13
37.330        33
37.340         0
37.350        40
37.360        20
37.370        27
37.380         7
37.390        20
37.400        27
37.410        27
37.420        13
37.430         7
37.440        13
37.450         7
37.460        33
37.470        33
37.480         0
37.490        33
37.500        27
37.510        20
37.520        20
37.530        33
37.540        13
37.550        27
37.560        47
37.570        13
37.580         7
37.590         7
37.600        27
37.610        13
37.620         0
37.630        13
37.640        33
37.650         0
37.660        20
37.670        20
37.680         7
37.690        20
37.700        13
37.710         7
37.720         7
37.730         7
37.740         7
37.750        27
37.760         0
37.770         7
37.780        40
37.790         0
37.800        20
37.810         7
37.820        13
37.830        40
37.840        13
37.850        27
37.860        33
37.870        27
37.880        20
37.890        40
37.900         7
37.910         7
37.920        13
37.930         7
37.940        20
37.950         7
37.960        20
37.970        13
37.980         7
37.990        13
38.000        27
38.010        13
38.020        20
38.030        20
38.040        27
38.050        33
38.060        13
38.070        33
38.080         0
38.090        13
38.100        13
38.110        13
38.120         7
38.130        20
38.140        20
38.150        20
38.160        33
38.170        33
38.180         0
38.190         0
38.200        33
38.210        13
38.220        27
38.230        33
38.240         0
38.250        27
38.260        20
38.270        20
38.280        40
38.290        20
38.300        13
38.310        20
38.320        20
38.330         7
38.340        27
38.350        13
38.360        33
38.370        20
38.380         7
38.390        20
38.400        33
38.410        27
38.420         0
38.430        27
38.440        40
38.450        20
38.460        20
38.470        13
38.480        40
38.490        20
38.500        27
38.510        20
38.520        13
38.530        13
38.540        33
38.550         7
38.560        13
38.570         0
38.580        13
38.590        20
38.600        20
38.610        13
38.620        40
38.630        47
38.640        33
38.650         0
38.660        13
38.670        33
38.680        40
38.690        20
38.700         0
38.710        13
38.720        27
38.730        20
38.740        20
38.750        40
38.760        20
38.770        13
38.780        20
38.790        13
38.800        53
38.810        27
38.820        33
38.830        47
38.840        20
38.850        13
38.860        20
38.870        20
38.880        33
38.890        33
38.900        20
38.910        20
38.920        47
38.930        13
38.940        20
38.950        13
38.960        27
38.970        33
38.980        47
38.990        40
39.000        27
39.010        40
39.020        27
39.030         7
39.040        33
39.050        40
39.060        13
39.070        13
39.080         7
39.090        33
39.100        13
39.110         0
39.120        33
39.130         7
39.140         0
39.150        47
39.160        27
39.170        20
39.180        27
39.190        27
39.200        47
39.210        20
39.220        20
39.230        13
39.240        27
39.250        13
39.260         7
39.270        33
39.280        33
39.290         0
39.300        20
39.310        33
39.320        13
39.330         7
39.340        27
39.350        20
39.360         7
39.370         0
39.380        20
39.390         7
39.400        27
39.410        20
39.420        20
39.430         7
39.440        27
39.450        20
39.460        13
39.470        47
39.480        27
39.490         7
39.500        13
39.510        27
39.520        27
39.530        33
39.540        13
39.550        47
39.560         0
39.570         7
39.580        47
39.590        13
39.600        13
39.610        27
39.620        20
39.630        13
39.640        13
39.650         7
39.660         7
39.670         7
39.680        27
39.690        13
39.700         7
39.710         7
39.720         0
39.730        47
39.740        27
39.750        13
39.760        13
39.770        27
39.780         0
39.790        20
39.800         0
39.810         0
39.820         0
39.830        20
39.840        13
39.850        27
39.860         7
39.870        20
39.880        27
39.890        13
39.900        20
39.910        13
39.920         7
39.930         7
39.940        13
39.950        20
39.960         0
39.970        13
39.980         0
39.990         7
40.000        33
40.010        27
40.020        13
40.030        20
40.040        13
40.050        27
40.060        27
40.070         7
40.080        20
40.090        13
40.100        53
40.110         7
40.120        27
40.130        20
40.140        40
40.150        20
40.160        33
40.170        27
40.180        40
40.190        27
40.200        27
40.210        40
40.220        27
40.230        13
40.240        27
40.250         7
40.260        60
40.270        20
40.280         7
40.290         7
40.300        27
40.310        20
40.320        20
40.330         7
40.340         0
40.350        60
40.360        33
40.370        33
40.380         7
40.390        20
40.400        20
40.410        20
40.420        27
40.430        27
40.440        40
40.450        13
40.460        47
40.470        20
40.480        27
40.490        27
40.500         7
40.510         7
40.520        13
40.530        20
40.540        13
40.550        13
40.560        13
40.570        27
40.580        20
40.590        40
40.600        33
40.610        27
40.620        20
40.630        13
40.640        27
40.650        27
40.660        33
40.670        13
40.680        20
40.690        13
40.700        13
40.710         7
40.720        13
40.730         7
40.740        20
40.750         7
40.760         0
40.770         0
40.780        13
40.790        27
40.800        13
40.810        20
40.820        33
40.830         7
40.840         7
40.850        47
40.860        20
40.870        33
40.880         7
40.890        33
40.900        27
40.910         7
40.920        33
40.930        27
40.940        13
40.950        20
40.960        27
40.970        20
40.980         7
40.990        60
41.000        13
41.010        13
41.020        27
41.030        33
41.040        20
41.050        13
41.060        20
41.070        27
41.080        20
41.090        40
41.100        20
41.110        27
41.120        13
41.130         7
41.140        40
41.150        13
41.160        13
41.170        47
41.180        20
41.190        27
41.200        27
41.210        27
41.220         0
41.230        13
41.240        20
41.250        33
41.260        40
41.270        33
41.280         7
41.290         0
41.300        13
41.310        13
41.320        27
41.330        20
41.340        33
41.350        20
41.360        13
41.370         7
41.380         7
41.390        13
41.400        33
41.410         7
41.420        20
41.430        13
41.440        27
41.450        13
41.460         7
41.470        27
41.480        13
41.490        20
41.500        27
41.510        27
41.520         7
41.530         7
41.540        27
41.550        13
41.560        13
41.570        27
41.580        33
41.590         0
41.600        20
41.610        13
41.620         7
41.630        33
41.640         7
41.650        53
41.660         7
41.670        20
41.680        13
41.690        33
41.700         0
41.710        13
41.720        40
41.730         7
41.740        20
41.750        13
41.760         7
41.770         0
41.780         7
41.790        20
41.800         0
41.810        27
41.820         7
41.830        27
41.840        20
41.850        27
41.860        27
41.870        20
41.880         7
41.890        40
41.900        27
41.910        27
41.920        20
41.930         7
41.940         7
41.950        33
41.960        13
41.970        13
41.980        27
41.990        13
42.000        13
42.010        20
42.020        20
42.030        20
42.040        20
42.050        13
42.060        20
42.070        27
42.080         7
42.090        20
42.100        20
42.110        27
42.120        47
42.130        27
42.140        33
42.150        20
42.160        13
42.170        27
42.180        40
42.190        20
42.200        60
42.210        20
42.220        20
42.230        40
42.240        40
42.250        60
42.260        40
42.270        20
42.280        13
42.290        40
42.300        27
42.310        27
42.320        13
42.330        20
42.340        33
42.350        40
42.360        13
42.370        20
42.380         0
42.390        20
42.400        20
42.410        27
42.420         7
42.430        27
42.440         0
42.450        20
42.460        40
42.470        20
42.480        20
42.490        20
42.500        13
42.510        20
42.520         7
42.530        13
42.540        13
42.550        13
42.560        27
42.570        27
42.580        20
42.590        53
42.600        13
42.610        20
42.620        13
42.630         0
42.640        13
42.650        13
42.660        27
42.670        20
42.680        33
42.690        33
42.700         0
42.710        27
42.720        13
42.730        27
42.740        20
42.750        27
42.760        27
42.770        33
42.780        47
42.790        27
42.800        20
42.810        13
42.820         7
42.830        27
42.840         7
42.850        20
42.860        20
42.870        20
42.880        20
42.890        27
42.900        27
42.910         0
42.920        20
42.930        13
42.940        20
42.950        33
42.960         7
42.970        27
42.980        33
42.990        20
43.000        13
43.010        33
43.020        27
43.030         7
43.040        20
43.050        20
43.060         7
43.070        33
43.080        47
43.090        47
43.100        20
43.110         7
43.120        13
43.130        13
43.140        33
43.150         7
43.160        20
43.170        33
43.180        20
43.190        27
43.200         7
43.210        13
43.220        33
43.230        13
43.240        33
43.250         7
43.260        27
43.270        20
43.280        27
43.290        13
43.300        27
43.310         7
43.320         0
43.330        73
43.340         7
43.350         7
43.360        13
43.370        20
43.380        33
43.390        47
43.400        13
43.410        27
43.420        60
43.430        13
43.440        40
43.450         7
43.460        20
43.470        27
43.480        27
43.490        13
43.500        20
43.510        33
43.520        27
43.530        20
43.540        20
43.550        13
43.560         7
43.570        27
43.580        13
43.590        47
43.600         7
43.610        13
43.620        13
43.630        40
43.640        13
43.650        33
43.660        13
43.670        13
43.680        40
43.690        40
43.700         7
43.710         7
43.720        13
43.730        47
43.740         0
43.750         7
43.760         7
43.770        13
43.780         0
43.790        13
43.800         7
43.810         0
43.820        27
43.830         7
43.840        47
43.850         0
43.860        33
43.870         7
43.880        27
43.890        13
43.900        13
43.910        20
43.920        13
43.930        47
43.940        20
43.950        20
43.960        40
43.970         0
43.980        40
43.990        20
44.000         7
44.010         7
44.020        20
44.030        13
44.040         7
44.050         7
44.060        33
44.070         7
44.080        13
44.090        20
44.100        13
44.110        47
44.120        13
44.130        20
44.140        20
44.150        47
44.160        20
44.170        20
44.180        40
44.190         7
44.200        20
44.210        20
44.220        47
44.230        33
44.240        13
44.250        33
44.260        20
44.270        47
44.280        40
44.290        27
44.300         7
44.310        20
44.320        27
44.330         7
44.340        27
44.350        13
44.360         7
44.370         7
44.380        40
44.390        27
44.400        73
44.410        20
44.420        13
44.430        27
44.440        27
44.450        20
44.460        20
44.470        13
44.480        33
44.490        27
44.500        20
44.510        33
44.520        33
44.530        53
44.540        27
44.550        20
44.560        20
44.570        27
44.580        27
44.590        40
44.600        13
44.610        40
44.620        47
44.630        20
44.640        33
44.650         7
44.660        33
44.670        27
44.680        20
44.690        27
44.700        20
44.710        33
44.720        40
44.730        33
44.740        33
44.750        27
44.760        27
44.770        27
44.780        27
44.790        33
44.800        27
44.810        27
44.820        27
44.830         7
44.840        33
44.850        20
44.860         0
44.870        13
44.880        40
44.890        27
44.900        20
44.910        27
44.920        47
44.930         7
44.940        20
44.950         0
44.960        20
44.970        20
44.980        40
44.990        20
45.000        13
45.010        27
45.020        47
45.030        20
45.040        13
45.050        27
45.060        33
45.070        20
45.080        13
45.090         0
45.100        20
45.110        13
45.120        27
45.130        20
45.140        27
45.150        13
45.160        13
45.170         7
45.180        40
45.190        20
45.200        13
45.210         7
45.220        20
45.230         7
45.240        20
45.250        13
45.260        20
45.270        27
45.280        27
45.290        13
45.300        13
45.310        33
45.320        13
45.330        40
45.340        40
45.350         7
45.360        33
45.370        27
45.380         0
45.390        33
45.400        20
45.410         0
45.420        13
45.430        33
45.440        20
45.450        47
45.460         7
45.470        47
45.480        13
45.490        13
45.500        20
45.510         7
45.520        13
45.530        13
45.540        13
45.550        27
45.560        13
45.570        40
45.580        33
45.590        20
45.600        27
45.610        33
45.620        13
45.630        20
45.640        13
45.650        27
45.660        47
45.670        33
45.680        13
45.690        40
45.700        27
45.710        27
45.720        20
45.730        13
45.740        27
45.750        40
45.760        40
45.770        33
45.780        13
45.790        40
45.800        47
45.810        33
45.820        47
45.830        53
45.840        20
45.850        27
45.860        20
45.870        33
45.880         0
45.890        60
45.900        40
45.910        20
45.920        47
45.930        60
45.940        27
45.950        33
45.960        47
45.970        20
45.980        67
45.990        40
46.000        53
46.010        33
46.020        13
46.030        53
46.040        33
46.050         7
46.060        40
46.070        80
46.080        53
46.090        73
46.100        53
46.110        67
46.120       107
46.130        53
46.140        73
46.150        53
46.160        60
46.170       100
46.180       100
46.190        87
46.200        67
46.210        60
46.220        67
46.230        60
46.240        67
46.250       100
46.260        53
46.270       120
46.280        47
46.290        60
46.300        93
46.310        87
46.320        80
46.330        67
46.340        80
46.350        80
46.360        93
46.370       100
46.380        33
46.390        73
46.400        47
46.410        53
46.420        40
46.430        60
46.440        67
46.450        47
46.460        67
46.470        40
46.480        60
46.490        33
46.500        53
46.510        47
46.520        53
46.530        27
46.540        13
46.550        27
46.560        60
46.570        40
46.580        20
46.590        40
46.600        20
46.610        13
46.620        13
46.630        60
46.640        33
46.650        27
46.660        13
46.670        20
46.680        27
46.690        40
46.700        27
46.710         0
46.720        27
46.730        53
46.740        40
46.750        33
46.760        33
46.770        33
46.780        27
46.790        20
46.800        40
46.810        20
46.820        27
46.830        20
46.840        33
46.850        27
46.860        20
46.870         7
46.880        20
46.890        13
46.900        20
46.910        13
46.920        53
46.930        13
46.940        13
46.950        40
46.960        13
46.970        53
46.980        13
46.990        20
47.000        13
47.010         7
47.020        33
47.030        33
47.040        13
47.050        27
47.060         0
47.070        40
47.080         7
47.090        60
47.100        13
47.110        20
47.120        20
47.130        20
47.140         7
47.150        20
47.160        27
47.170        27
47.180        47
47.190        33
47.200        33
47.210        20
47.220        40
47.230        13
47.240        33
47.250         7
47.260         7
47.270        13
47.280         7
47.290        27
47.300        13
47.310        20
47.320        33
47.330        13
47.340        47
47.350        33
47.360        40
47.370        33
47.380        27
47.390        40
47.400        13
47.410        13
47.420        47
47.430         7
47.440        13
47.450        27
47.460         7
47.470        20
47.480        33
47.490        13
47.500        20
47.510        13
47.520         7
47.530        33
47.540        27
47.550        13
47.560        33
47.570        60
47.580         7
47.590        27
47.600        33
47.610        40
47.620        20
47.630        27
47.640         0
47.650        13
47.660        40
47.670        27
47.680        13
47.690         7
47.700        33
47.710        33
47.720        20
47.730        13
47.740        20
47.750        33
47.760        20
47.770        20
47.780        33
47.790        13
47.800        27
47.810        20
47.820         7
47.830        13
47.840        20
47.850        33
47.860        20
47.870        20
47.880         7
47.890        20
47.900        20
47.910        40
47.920         0
47.930        13
47.940        27
47.950        20
47.960        13
47.970        27
47.980        27
47.990        13
48.000        13
48.010        20
48.020         7
48.030        20
48.040        27
48.050        13
48.060        27
48.070         7
48.080        27
48.090        13
48.100        40
48.110        33
48.120        20
48.130        40
48.140        13
48.150        20
48.160        27
48.170        20
48.180        33
48.190        27
48.200        53
48.210        27
48.220         7
48.230        27
48.240        40
48.250        13
48.260        13
48.270        13
48.280        20
48.290         0
48.300        40
48.310        27
48.320        47
48.330        47
48.340         7
48.350        20
48.360        27
48.370         7
48.380        20
48.390        40
48.400        20
48.410         0
48.420        27
48.430        20
48.440        33
48.450        20
48.460        13
48.470        33
48.480        27
48.490         7
48.500        20
48.510        40
48.520        27
48.530        33
48.540        33
48.550        13
48.560        27
48.570        13
48.580        13
48.590        13
48.600        13
48.610        13
48.620        20
48.630        40
48.640        27
48.650        27
48.660        33
48.670        13
48.680        27
48.690        13
48.700        13
48.710        20
48.720        47
48.730        27
48.740         7
48.750        27
48.760        33
48.770        33
48.780        40
48.790        13
48.800        27
48.810        20
48.820        20
48.830        13
48.840        20
48.850        60
48.860        13
48.870         7
48.880        20
48.890        53
48.900        40
48.910         7
48.920        33
48.930        40
48.940        33
48.950        33
48.960        33
48.970        20
48.980        40
48.990         0
49.000        20
49.010        13
49.020        20
49.030        33
49.040        33
49.050        40
49.060        40
49.070        33
49.080        13
49.090        47
49.100        20
49.110         7
49.120        53
49.130        47
49.140        60
49.150        13
49.160        20
49.170        20
49.180        13
49.190        20
49.200         7
49.210        20
49.220        40
49.230        20
49.240        33
49.250        13
49.260        33
49.270        40
49.280        47
49.290         7
49.300        40
49.310        13
49.320        27
49.330        13
49.340        27
49.350        20
49.360        20
49.370        40
49.380        27
49.390        20
49.400        13
49.410        40
49.420        20
49.430        13
49.440        13
49.450        27
49.460         0
49.470        20
49.480        13
49.490         0
49.500        27
49.510        20
49.520        33
49.530        20
49.540        47
49.550        13
49.560        13
49.570        47
49.580        27
49.590        13
49.600        27
49.610        27
49.620        20
49.630        33
49.640        60
49.650        27
49.660        33
49.670        20
49.680        60
49.690        33
49.700        13
49.710        13
49.720        20
49.730        27
49.740        27
49.750        13
49.760        33
49.770        27
49.780        47
49.790        40
49.800        67
49.810        33
49.820        33
49.830        27
49.840        40
49.850        27
49.860        20
49.870        33
49.880        60
49.890        33
49.900        33
49.910        53
49.920        60
49.930        40
49.940        40
49.950        73
49.960        40
49.970        67
49.980        47
49.990        40
50.000        47
50.010        60
50.020        27
50.030        40
50.040        47
50.050        47
50.060        47
50.070        93
50.080        67
50.090        27
50.100        27
50.110        20
50.120        60
50.130        20
50.140        40
50.150        33
50.160        93
50.170        20
50.180        53
50.190        47
50.200        20
50.210        47
50.220        40
50.230        40
50.240        33
50.250        73
50.260        20
50.270        33
50.280        53
50.290        33
50.300        27
50.310        33
50.320        47
50.330        33
50.340        67
50.350        13
50.360        27
50.370        33
50.380        20
50.390        20
50.400        33
50.410        27
50.420        33
50.430        13
50.440        13
50.450        53
50.460        40
50.470        47
50.480        33
50.490         7
50.500        20
50.510        53
50.520        33
50.530        27
50.540        60
50.550        13
50.560        20
50.570        20
50.580        27
50.590        20
50.600        27
50.610        47
50.620         0
50.630        13
50.640        40
50.650        47
50.660         7
50.670        47
50.680        20
50.690        27
50.700        27
50.710        13
50.720        13
50.730        20
50.740        27
50.750        47
50.760        20
50.770        47
50.780        13
50.790        27
50.800        33
50.810         0
50.820        20
50.830         0
50.840        40
50.850        27
50.860        33
50.870        47
50.880        13
50.890         7
50.900        27
50.910        40
50.920        53
50.930        13
50.940         7
50.950        20
50.960        33
50.970         7
50.980        20
50.990         7
51.000        20
51.010        27
51.020        20
51.030         7
51.040        27
51.050        33
51.060        27
51.070        33
51.080        20
51.090        33
51.100        13
51.110        33
51.120         0
51.130         7
51.140        27
51.150        33
51.160        33
51.170        27
51.180        20
51.190        13
51.200        33
51.210        20
51.220        40
51.230        47
51.240        27
51.250        27
51.260        20
51.270        27
51.280        27
51.290        27
51.300        20
51.310        20
51.320        53
51.330        27
51.340        33
51.350        40
51.360        27
51.370        20
51.380         7
51.390        47
51.400        20
51.410        13
51.420        27
51.430        67
51.440        27
51.450        53
51.460        60
51.470        27
51.480        27
51.490        33
51.500        27
51.510        27
51.520        40
51.530        33
51.540        20
51.550        53
51.560        40
51.570        53
51.580        33
51.590        20
51.600        27
51.610        47
51.620        20
51.630        33
51.640        53
51.650        20
51.660        40
51.670        53
51.680        27
51.690        53
51.700        40
51.710        20
51.720        13
51.730        20
51.740        53
51.750        33
51.760        13
51.770        53
51.780        33
51.790        27
51.800        47
51.810        27
51.820        20
51.830        20
51.840        40
51.850        27
51.860        40
51.870        33
51.880        20
51.890        53
51.900        27
51.910        47
51.920        53
51.930        27
51.940        67
51.950        33
51.960        40
51.970        27
51.980        40
51.990        53
52.000         7
52.010        47
52.020        53
52.030        47
52.040        53
52.050        13
52.060        40
52.070        13
52.080        13
52.090        20
52.100        40
52.110        13
52.120        33
52.130        27
52.140        33
52.150        53
52.160        20
52.170         7
52.180        40
52.190        27
52.200        40
52.210        27
52.220        40
52.230        20
52.240        60
52.250        47
52.260        27
52.270        27
52.280        27
52.290        33
52.300        40
52.310        33
52.320        53
52.330        33
52.340        20
52.350        53
52.360        33
52.370        33
52.380        33
52.390        27
52.400        27
52.410        40
52.420        47
52.430        20
52.440        20
52.450        27
52.460        60
52.470        40
52.480        40
52.490        27
52.500        47
52.510        60
52.520        67
52.530        67
52.540        73
52.550       100
52.560        53
52.570        27
52.580       153
52.590       100
52.600        47
52.610        60
52.620        53
52.630        87
52.640        53
52.650        67
52.660        47
52.670        60
52.680        47
52.690        53
52.700        60
52.710        53
52.720        40
52.730        40
52.740        67
52.750        73
52.760        47
52.770        27
52.780        67
52.790        60
52.800        67
52.810        20
52.820        33
52.830        60
52.840         7
52.850        13
52.860        47
52.870        20
52.880        27
52.890        60
52.900        27
52.910        33
52.920        40
52.930        40
52.940        33
52.950        40
52.960        53
52.970        20
52.980        40
52.990        33
53.000        33
53.010        40
53.020        27
53.030        53
53.040        20
53.050        13
53.060        47
53.070        20
53.080        20
53.090        27
53.100        27
53.110        20
53.120        20
53.130         7
53.140         7
53.150        27
53.160        27
53.170        27
53.180        20
53.190        33
53.200        27
53.210        20
53.220        40
53.230        20
53.240        47
53.250        20
53.260        20
53.270        20
53.280         7
53.290        27
53.300        27
53.310        47
53.320         7
53.330        27
53.340        13
53.350         7
53.360        20
53.370        27
53.380        20
53.390        27
53.400        20
53.410        20
53.420        20
53.430        47
53.440        27
53.450        27
53.460        13
53.470        20
53.480        33
53.490        27
53.500        33
53.510        20
53.520        20
53.530        27
53.540        33
53.550        27
53.560        20
53.570         7
53.580        33
53.590        27
53.600        60
53.610         7
53.620        40
53.630         7
53.640        27
53.650        47
53.660        13
53.670        27
53.680        20
53.690         7
53.700        13
53.710         0
53.720        20
53.730        20
53.740        20
53.750        13
53.760        40
53.770        13
53.780        33
53.790        20
53.800        33
53.810        27
53.820        20
53.830        27
53.840        20
53.850        20
53.860        20
53.870         7
53.880        20
53.890        20
53.900         7
53.910        27
53.920        20
53.930        33
53.940        40
53.950        27
53.960        20
53.970         7
53.980        13
53.990        13
54.000        13
54.010        13
54.020        27
54.030        27
54.040         7
54.050         0
54.060        27
54.070        27
54.080        27
54.090        13
54.100        13
54.110         7
54.120        40
54.130        20
54.140        20
54.150        27
54.160        33
54.170         7
54.180        27
54.190        27
54.200         7
54.210        20
54.220        27
54.230        33
54.240        13
54.250        13
54.260        20
54.270        13
54.280        20
54.290        27
54.300        27
54.310        20
54.320        13
54.330        27
54.340        33
54.350        13
54.360        20
54.370        33
54.380        13
54.390         7
54.400        13
54.410        20
54.420         7
54.430        27
54.440        13
54.450        13
54.460        13
54.470        13
54.480        33
54.490         7
54.500        20
54.510        33
54.520        47
54.530         0
54.540         0
54.550         0
54.560        13
54.570         7
54.580        13
54.590        20
54.600         0
54.610        33
54.620        40
54.630        20
54.640        33
54.650        13
54.660        13
54.670        20
54.680        20
54.690        53
54.700         7
54.710         0
54.720         0
54.730        47
54.740        40
54.750         7
54.760        20
54.770        40
54.780         7
54.790        33
54.800         7
54.810        27
54.820         0
54.830        33
54.840        27
54.850        13
54.860        40
54.870        27
54.880        27
54.890         7
54.900         7
54.910        33
54.920        27
54.930        13
54.940         7
54.950        27
54.960        13
54.970         7
54.980        33
54.990         7
55.000        13
55.010        13
55.020        20
55.030         7
55.040         7
55.050        13
55.060        20
55.070         7
55.080        20
55.090         7
55.100        13
55.110        40
55.120        27
55.130        20
55.140        20
55.150        20
55.160        20
55.170        13
55.180        40
55.190         0
55.200        13
55.210        27
55.220        13
55.230         0
55.240        47
55.250        27
55.260        13
55.270        40
55.280        20
55.290        13
55.300        13
55.310        13
55.320        20
55.330        13
55.340         7
55.350        27
55.360        13
55.370        27
55.380        13
55.390         7
55.400        20
55.410        27
55.420        13
55.430        47
55.440        27
55.450        13
55.460        27
55.470        40
55.480         7
55.490        13
55.500        13
55.510         7
55.520         7
55.530        13
55.540        20
55.550        13
55.560        27
55.570        20
55.580        20
55.590        13
55.600        13
55.610        20
55.620        27
55.630        13
55.640        13
55.650         7
55.660        33
55.670        40
55.680        27
55.690        13
55.700         0
55.710        20
55.720        47
55.730        33
55.740        33
55.750        13
55.760        20
55.770        20
55.780         0
55.790        40
55.800        13
55.810        13
55.820         7
55.830         7
55.840        27
55.850        13
55.860         7
55.870        20
55.880        13
55.890        40
55.900         7
55.910        13
55.920        13
55.930        27
55.940        27
55.950        20
55.960         7
55.970        27
55.980        40
55.990        13
56.000        20
56.010        13
56.020        13
56.030         7
56.040        20
56.050        13
56.060        40
56.070         7
56.080         7
56.090        47
56.100        20
56.110        27
56.120        27
56.130         0
56.140        20
56.150        27
56.160        33
56.170        13
56.180        13
56.190        27
56.200        13
56.210        40
56.220        33
56.230        20
56.240        13
56.250         7
56.260        40
56.270         0
56.280        13
56.290        13
56.300        20
56.310        20
56.320        20
56.330         7
56.340        27
56.350        27
56.360         7
56.370        33
56.380        20
56.390        27
56.400        27
56.410        27
56.420         0
56.430        13
56.440        33
56.450        27
56.460         0
56.470        33
56.480         0
56.490        40
56.500        13
56.510        27
56.520        40
56.530        13
56.540        40
56.550        27
56.560         0
56.570        40
56.580         0
56.590         0
56.600         7
56.610         7
56.620        40
56.630        20
56.640        13
56.650         7
56.660         0
56.670        13
56.680         7
56.690        20
56.700         7
56.710        27
56.720        27
56.730         7
56.740        20
56.750         7
56.760         7
56.770        27
56.780        13
56.790        20
56.800        20
56.810        13
56.820        20
56.830        13
56.840         7
56.850        33
56.860         0
56.870        13
56.880        27
56.890         7
56.900        20
56.910        13
56.920        13
56.930        13
56.940        13
56.950        13
56.960         0
56.970        33
56.980        33
56.990         7
57.000        20
57.010         7
57.020        20
57.030        13
57.040        27
57.050         0
57.060         7
57.070        13
57.080        13
57.090        20
57.100        40
57.110        47
57.120        40
57.130         0
57.140         7
57.150        20
57.160        13
57.170        20
57.180        13
57.190        13
57.200        13
57.210        40
57.220        27
57.230        13
57.240        13
57.250        20
57.260        33
57.270        13
57.280        13
57.290        33
57.300        27
57.310        47
57.320        13
57.330        27
57.340        13
57.350        20
57.360        20
57.370        13
57.380        13
57.390        20
57.400        20
57.410        27
57.420        27
57.430        33
57.440         0
57.450        33
57.460        27
57.470         7
57.480        20
57.490        13
57.500        40
57.510        13
57.520         7
57.530        13
57.540        27
57.550        27
57.560         7
57.570        20
57.580        20
57.590        20
57.600        20
57.610        13
57.620         7
57.630        40
57.640        13
57.650        20
57.660         7
57.670        20
57.680        20
57.690        27
57.700        33
57.710         7
57.720        20
57.730        60
57.740        33
57.750        20
57.760        13
57.770         7
57.780         7
57.790        33
57.800        20
57.810        13
57.820        20
57.830        20
57.840         0
57.850        13
57.860         7
57.870        40
57.880         0
57.890        27
57.900        53
57.910         7
57.920        13
57.930        27
57.940         7
57.950         7
57.960         7
57.970        20
57.980        13
57.990         0
58.000        13
58.010        27
58.020        13
58.030        13
58.040        20
58.050        20
58.060         7
58.070        20
58.080        20
58.090        13
58.100        20
58.110        27
58.120         7
58.130        13
58.140        33
58.150         7
58.160         7
58.170        20
58.180        33
58.190        13
58.200        13
58.210        20
58.220        20
58.230         7
58.240        20
58.250        33
58.260        13
58.270        20
58.280        20
58.290        27
58.300         7
58.310         7
58.320        20
58.330        27
58.340         0
58.350        27
58.360         7
58.370        13
58.380        20
58.390        13
58.400        13
58.410        13
58.420        33
58.430         7
58.440        20
58.450        33
58.460        13
58.470         0
58.480        13
58.490         0
58.500        40
58.510        13
58.520        20
58.530         7
58.540        13
58.550        20
58.560        27
58.570         7
58.580        33
58.590         7
58.600        40
58.610        20
58.620         7
58.630        27
58.640         0
58.650        13
58.660        20
58.670        27
58.680         0
58.690        20
58.700        27
58.710        20
58.720        13
58.730         7
58.740         0
58.750         7
58.760        13
58.770        13
58.780        13
58.790         7
58.800         0
58.810         7
58.820        27
58.830        27
58.840         7
58.850        13
58.860         0
58.870         0
58.880        20
58.890        13
58.900        13
58.910         0
58.920         0
58.930         7
58.940        13
58.950        20
58.960         0
58.970         7
58.980        20
58.990        13
59.000        20
59.010        13
59.020        27
59.030        27
59.040         0
59.050        20
59.060         7
59.070        13
59.080         7
59.090         7
59.100        40
59.110         7
59.120         7
59.130         0
59.140        13
59.150        13
59.160        20
59.170         7
59.180        13
59.190        13
59.200        13
59.210        20
59.220         7
59.230         7
59.240        13
59.250        13
59.260        33
59.270        13
59.280         0
59.290        27
59.300        13
59.310         7
59.320        33
59.330         7
59.340        27
59.350        27
59.360        20
59.370        27
59.380        33
59.390        13
59.400        13
59.410        27
59.420         7
59.430        27
59.440         7
59.450         7
59.460        27
59.470        20
59.480        13
59.490         7
59.500        13
59.510        20
59.520        40
59.530        40
59.540         7
59.550        13
59.560        13
59.570        13
59.580         0
59.590        20
59.600        27
59.610        27
59.620        13
59.630        27
59.640         7
59.650        13
59.660         7
59.670        20
59.680         7
59.690        27
59.700        40
59.710        20
59.720        13
59.730        13
59.740         7
59.750        20
59.760        13
59.770        20
59.780        20
59.790         7
59.800        13
59.810        27
59.820        27
59.830         7
59.840        40
59.850        33
59.860        20
59.870        13
59.880        13
59.890        20
59.900        20
59.910        13
59.920         7
59.930         0
59.940        20
59.950        13
59.960        20
59.970         0
59.980        27
59.990         7
60.000         7
