20.000        27
20.010        40
20.020        27
20.030        53
20.040        27
20.050        47
20.060        60
20.070        27
20.080        53
20.090        60
20.100        53
20.110        60
20.120        33
20.130        47
20.140        20
20.150        33
20.160        53
20.170        27
20.180        33
20.190        13
20.200        47
20.210        27
20.220        27
20.230        27
20.240        33
20.250        13
20.260        40
20.270        40
20.280        47
20.290        47
20.300        20
20.310        47
20.320        20
20.330        27
20.340        33
20.350        60
20.360        67
20.370        40
20.380        33
20.390        20
20.400        33
20.410        33
20.420        60
20.430        33
20.440        13
20.450        47
20.460        47
20.470        47
20.480        20
20.490        20
20.500        47
20.510        73
20.520        67
20.530        80
20.540        40
20.550        13
20.560         7
20.570        47
20.580        67
20.590        20
20.600        47
20.610        47
20.620        13
20.630        67
20.640        47
20.650        27
20.660        40
20.670        40
20.680        27
20.690        40
20.700        53
20.710        27
20.720        20
20.730        40
20.740        53
20.750        53
20.760        20
20.770        53
20.780        33
20.790        33
20.800        67
20.810        40
20.820        33
20.830        13
20.840        60
20.850        73
20.860        73
20.870        40
20.880        67
20.890        13
20.900        20
20.910        40
20.920        40
20.930        87
20.940        27
20.950        53
20.960        27
20.970        27
20.980        73
20.990        33
21.000        40
21.010        33
21.020        20
21.030        47
21.040        33
21.050        20
21.060        33
21.070        33
21.080        27
21.090        33
21.100        40
21.110        27
21.120        33
21.130        47
21.140        27
21.150        20
21.160        20
21.170        47
21.180        27
21.190        53
21.200        47
21.210        67
21.220        53
21.230        40
21.240        47
21.250        33
21.260        33
21.270        27
21.280        53
21.290        47
21.300        27
21.310        20
21.320        20
21.330        40
21.340         7
21.350        33
21.360        27
21.370        27
21.380        27
21.390        20
21.400        40
21.410        20
21.420        27
21.430        20
21.440        13
21.450        67
21.460        20
21.470        33
21.480        20
21.490        33
21.500        33
21.510        53
21.520        27
21.530        33
21.540        33
21.550        40
21.560        33
21.570        47
21.580        40
21.590        40
21.600        53
21.610        67
21.620        27
21.630        27
21.640        27
21.650        53
21.660        20
21.670        20
21.680        27
21.690        27
21.700        47
21.710        20
21.720        47
21.730        13
21.740        33
21.750        27
21.760        33
21.770        20
21.780        27
21.790        20
21.800         7
21.810        33
21.820        33
21.830        73
21.840        47
21.850        60
21.860        13
21.870        53
21.880        13
21.890        20
21.900        47
21.910        27
21.920        27
21.930        20
21.940        40
21.950        47
21.960        27
21.970        33
21.980        33
21.990        33
22.000        33
22.010        20
22.020        27
22.030        40
22.040        27
22.050        53
22.060        60
22.070        53
22.080        33
22.090        20
22.100        53
22.110        27
22.120        47
22.130        67
22.140        53
22.150        33
22.160        47
22.170        40
22.180        27
22.190        13
22.200        27
22.210        20
22.220        20
22.230        40
22.240        33
22.250        33
22.260        27
22.270        33
22.280        47
22.290        27
22.300        67
22.310        27
22.320        20
22.330        40
22.340        67
22.350        60
22.360        40
22.370        47
22.380        33
22.390        27
22.400        27
22.410        33
22.420        33
22.430        40
22.440        60
22.450        73
22.460        80
22.470        80
22.480        40
22.490        80
22.500        80
22.510       107
22.520        67
22.530        80
22.540        53
22.550       127
22.560        87
22.570       147
22.580       180
22.590       120
22.600       213
22.610       160
22.620       220
22.630       227
22.640       253
22.650       267
22.660       280
22.670       340
22.680       353
22.690       327
22.700       340
22.710       313
22.720       433
22.730       300
22.740       426
22.750       300
22.760       307
22.770       193
22.780       240
22.790       133
22.800       133
22.810        93
22.820       100
22.830       133
22.840        47
22.850       127
22.860        80
22.870        73
22.880        87
22.890        73
22.900       140
22.910       140
22.920       107
22.930       140
22.940       100
22.950       127
22.960       187
22.970       187
22.980       187
22.990       120
23.000       100
23.010       147
23.020       133
23.030       107
23.040        87
23.050       100
23.060        93
23.070        40
23.080        93
23.090        67
23.100        60
23.110       113
23.120        60
23.130        73
23.140        60
23.150        60
23.160        73
23.170        73
23.180        40
23.190        20
23.200        20
23.210        13
23.220        27
23.230        40
23.240        20
23.250        13
23.260        20
23.270        60
23.280        60
23.290        40
23.300        13
23.310        40
23.320        47
23.330        27
23.340        67
23.350        53
23.360        27
23.370        20
23.380        33
23.390        33
23.400        33
23.410        40
23.420         7
23.430        33
23.440        27
23.450        33
23.460        47
23.470        47
23.480        60
23.490        20
23.500        27
23.510        13
23.520        33
23.530        20
23.540        53
23.550        33
23.560        47
23.570        33
23.580        13
23.590        33
23.600        60
23.610        27
23.620        13
23.630        20
23.640        33
23.650        33
23.660        60
23.670         7
23.680         7
23.690        27
23.700        33
23.710         7
23.720        40
23.730        53
23.740        33
23.750        27
23.760        53
23.770        13
23.780        27
23.790        20
23.800        33
23.810        20
23.820        33
23.830        33
23.840        47
23.850        47
23.860        40
23.870        47
23.880        67
23.890        27
23.900        40
23.910        20
23.920        47
23.930        33
23.940        27
23.950        40
23.960        33
23.970        40
23.980        20
23.990        33
24.000        60
24.010        20
24.020        33
24.030         7
24.040        20
24.050        13
24.060        40
24.070        60
24.080        47
24.090        33
24.100        33
24.110        33
24.120        40
24.130        47
24.140        20
24.150        33
24.160        27
24.170        40
24.180        27
24.190        20
24.200        27
24.210        33
24.220        20
24.230        60
24.240        27
24.250         7
24.260        60
24.270        13
24.280        13
24.290        13
24.300        13
24.310        20
24.320        20
24.330        40
24.340        13
24.350        27
24.360        20
24.370        47
24.380        40
24.390        20
24.400        67
24.410        27
24.420        40
24.430        20
24.440        20
24.450        47
24.460        40
24.470        20
24.480        40
24.490        40
24.500        33
24.510        27
24.520        47
24.530        27
24.540         7
24.550        47
24.560        33
24.570        20
24.580        33
24.590        40
24.600        20
24.610        20
24.620        27
24.630        33
24.640         0
24.650         7
24.660        20
24.670        20
24.680         7
24.690        27
24.700        47
24.710        20
24.720        47
24.730        33
24.740         7
24.750        53
24.760        40
24.770        33
24.780        33
24.790        73
24.800        13
24.810        33
24.820        33
24.830        40
24.840        20
24.850        27
24.860        47
24.870        40
24.880        20
24.890        27
24.900        13
24.910        27
24.920        13
24.930        20
24.940        20
24.950        27
24.960        33
24.970        27
24.980        40
24.990        40
25.000        47
25.010        20
25.020        20
25.030        33
25.040        33
25.050        33
25.060        33
25.070        53
25.080        20
25.090        13
25.100        27
25.110        20
25.120        20
25.130        27
25.140         7
25.150        27
25.160        20
25.170        33
25.180        13
25.190        27
25.200        27
25.210        27
25.220        33
25.230        33
25.240        13
25.250        27
25.260        20
25.270        33
25.280        20
25.290        13
25.300        13
25.310         7
25.320        40
25.330        47
25.340        27
25.350        20
25.360        20
25.370        40
25.380        20
25.390        47
25.400        27
25.410        27
25.420        47
25.430        47
25.440        13
25.450        13
25.460        47
25.470        27
25.480        20
25.490        13
25.500        13
25.510         7
25.520        47
25.530        33
25.540        80
25.550        47
25.560        60
25.570        40
25.580        40
25.590        87
25.600        47
25.610        93
25.620        53
25.630        20
25.640        87
25.650        27
25.660        80
25.670        27
25.680        47
25.690        60
25.700        47
25.710        27
25.720        60
25.730        53
25.740        27
25.750        27
25.760        67
25.770        73
25.780        67
25.790        73
25.800        67
25.810        73
25.820        60
25.830        60
25.840        47
25.850        33
25.860        40
25.870        27
25.880        47
25.890        33
25.900        40
25.910        27
25.920        40
25.930         7
25.940        33
25.950        47
25.960        40
25.970        40
25.980        47
25.990        33
26.000        13
26.010        27
26.020        33
26.030        20
26.040        20
26.050        27
26.060        13
26.070        20
26.080        33
26.090        20
26.100        33
26.110        20
26.120        33
26.130        40
26.140        47
26.150        27
26.160        60
26.170        40
26.180        47
26.190        33
26.200        20
26.210        27
26.220        27
26.230        67
26.240        27
26.250        60
26.260        53
26.270        27
26.280         7
26.290        40
26.300        27
26.310        20
26.320        20
26.330        27
26.340        27
26.350        33
26.360        40
26.370        20
26.380        40
26.390        20
26.400         0
26.410        13
26.420        27
26.430        60
26.440        27
26.450        20
26.460        27
26.470        40
26.480         7
26.490        33
26.500         7
26.510        60
26.520        47
26.530        20
26.540        33
26.550        20
26.560        20
26.570        33
26.580        27
26.590        20
26.600        13
26.610        40
26.620         7
26.630        33
26.640        60
26.650        20
26.660        13
26.670        27
26.680         7
26.690        27
26.700        33
26.710         7
26.720        20
26.730        27
26.740        27
26.750        20
26.760        20
26.770        13
26.780        27
26.790        20
26.800        20
26.810        47
26.820        27
26.830        13
26.840        27
26.850        27
26.860        27
26.870        33
26.880        13
26.890        27
26.900        40
26.910        27
26.920        20
26.930        53
26.940        40
26.950         7
26.960        40
26.970        13
26.980        27
26.990        27
27.000        40
27.010        20
27.020        40
27.030         7
27.040        33
27.050         0
27.060        33
27.070        20
27.080        33
27.090        13
27.100        27
27.110         7
27.120        13
27.130        20
27.140        20
27.150        20
27.160        27
27.170        27
27.180         0
27.190        20
27.200        13
27.210        13
27.220        13
27.230        27
27.240        53
27.250        13
27.260        27
27.270        20
27.280        27
27.290         7
27.300        33
27.310        20
27.320        20
27.330         7
27.340        13
27.350        20
27.360        20
27.370        27
27.380        13
27.390        27
27.400        27
27.410        13
27.420        33
27.430        47
27.440        27
27.450        13
27.460        40
27.470         7
27.480        20
27.490        33
27.500        60
27.510         7
27.520        20
27.530        53
27.540        33
27.550        40
27.560         7
27.570        27
27.580         7
27.590        60
27.600        40
27.610        33
27.620        20
27.630        33
27.640        40
27.650        27
27.660         0
27.670        13
27.680        27
27.690        27
27.700        27
27.710        40
27.720        13
27.730         7
27.740        20
27.750         0
27.760        27
27.770        13
27.780        20
27.790        20
27.800        13
27.810        40
27.820        20
27.830        47
27.840        33
27.850        20
27.860        27
27.870        40
27.880        27
27.890        13
27.900        40
27.910        33
27.920        33
27.930        13
27.940        40
27.950        13
27.960        33
27.970        40
27.980        13
27.990        27
28.000         0
28.010        53
28.020        27
28.030         7
28.040        27
28.050         0
28.060        40
28.070        27
28.080        27
28.090        13
28.100        13
28.110        47
28.120        20
28.130         7
28.140        20
28.150        33
28.160        47
28.170        13
28.180        67
28.190        27
28.200        33
28.210        13
28.220        40
28.230        27
28.240        27
28.250        53
28.260        40
28.270        53
28.280        27
28.290        40
28.300        40
28.310        40
28.320        40
28.330        27
28.340        40
28.350        53
28.360        13
28.370        40
28.380        20
28.390        27
28.400        27
28.410        20
28.420        47
28.430        47
28.440        13
28.450        60
28.460        13
28.470        20
28.480        20
28.490        33
28.500         0
28.510        33
28.520        20
28.530        27
28.540        47
28.550        13
28.560        13
28.570        27
28.580        13
28.590        27
28.600        27
28.610        27
28.620        13
28.630        20
28.640        47
28.650        20
28.660        20
28.670        40
28.680        20
28.690        33
28.700        33
28.710        20
28.720        27
28.730        20
28.740        27
28.750        40
28.760        20
28.770        27
28.780        40
28.790        20
28.800        27
28.810        27
28.820        27
28.830        20
28.840        27
28.850        13
28.860        13
28.870        33
28.880        27
28.890        27
28.900        20
28.910        33
28.920        13
28.930        40
28.940        20
28.950         7
28.960        20
28.970        27
28.980        33
28.990        53
29.000        33
29.010        40
29.020        33
29.030        47
29.040        40
29.050        13
29.060        33
29.070        33
29.080        40
29.090        60
29.100        33
29.110        33
29.120        53
29.130        53
29.140        27
29.150        47
29.160        47
29.170        60
29.180        33
29.190        33
29.200        27
29.210        60
29.220        47
29.230        33
29.240        33
29.250        13
29.260        47
29.270        40
29.280        33
29.290        13
29.300        27
29.310        20
29.320        27
29.330         7
29.340        13
29.350        13
29.360        40
29.370        27
29.380        13
29.390        27
29.400        47
29.410        13
29.420        13
29.430        60
29.440        13
29.450        33
29.460        47
29.470        33
29.480        60
29.490        60
29.500        47
29.510        80
29.520        47
29.530        73
29.540        73
29.550        87
29.560        87
29.570        60
29.580        60
29.590       153
29.600        60
29.610        67
29.620        20
29.630        73
29.640        80
29.650       100
29.660        47
29.670        60
29.680        73
29.690        20
29.700        33
29.710        20
29.720        53
29.730        20
29.740        33
29.750        27
29.760        33
29.770         7
29.780        33
29.790        33
29.800        33
29.810        13
29.820        27
29.830        33
29.840        13
29.850        13
29.860        47
29.870        20
29.880        13
29.890        20
29.900        33
29.910         0
29.920         7
29.930        13
29.940        47
29.950        20
29.960         7
29.970        20
29.980         7
29.990        27
30.000        47
30.010        20
30.020        13
30.030        33
30.040         7
30.050        13
30.060        33
30.070        13
30.080        33
30.090        27
30.100        33
30.110        20
30.120        33
30.130        27
30.140        53
30.150        27
30.160        13
30.170        13
30.180        20
30.190         7
30.200        20
30.210        20
30.220        40
30.230         7
30.240        13
30.250        20
30.260         7
30.270        20
30.280        13
30.290        33
30.300        13
30.310        40
30.320        20
30.330        13
30.340        27
30.350        20
30.360        27
30.370         7
30.380         0
30.390        33
30.400        27
30.410        53
30.420        13
30.430         7
30.440        60
30.450        13
30.460        27
30.470        33
30.480        33
30.490        33
30.500        13
30.510        20
30.520        27
30.530         0
30.540        13
30.550        27
30.560        20
30.570        27
30.580        20
30.590        20
30.600        13
30.610        20
30.620        20
30.630        33
30.640        20
30.650        27
30.660        20
30.670        33
30.680         7
30.690        27
30.700         7
30.710        33
30.720        47
30.730        47
30.740        20
30.750        20
30.760        13
30.770        13
30.780         0
30.790        33
30.800        13
30.810        13
30.820        47
30.830        27
30.840        27
30.850        27
30.860        27
30.870        20
30.880        20
30.890         7
30.900        13
30.910        40
30.920        27
30.930        27
30.940        27
30.950        20
30.960        33
30.970        20
30.980        33
30.990        27
31.000        33
31.010        33
31.020         7
31.030        53
31.040         0
31.050        13
31.060        27
31.070        20
31.080        33
31.090         0
31.100        20
31.110         7
31.120        27
31.130        27
31.140        33
31.150        13
31.160         7
31.170        40
31.180        47
31.190        20
31.200        20
31.210        20
31.220        33
31.230        60
31.240        20
31.250        67
31.260        27
31.270        20
31.280        20
31.290        27
31.300        47
31.310         7
31.320        87
31.330        27
31.340        20
31.350        27
31.360        40
31.370        40
31.380        33
31.390        47
31.400        20
31.410        20
31.420        47
31.430        13
31.440        40
31.450        27
31.460        33
31.470        33
31.480         7
31.490        40
31.500        20
31.510        47
31.520        40
31.530        27
31.540        20
31.550         7
31.560        20
31.570        13
31.580        27
31.590        27
31.600        27
31.610        13
31.620        27
31.630        40
31.640         7
31.650        27
31.660        53
31.670        13
31.680         0
31.690         7
31.700        53
31.710        20
31.720        33
31.730        13
31.740         7
31.750        20
31.760        27
31.770        27
31.780        13
31.790        13
31.800        27
31.810         7
31.820        13
31.830         0
31.840        27
31.850        20
31.860        13
31.870        13
31.880        20
31.890        13
31.900         0
31.910         7
31.920         7
31.930        47
31.940        13
31.950        27
31.960        13
31.970        13
31.980        27
31.990        27
32.000        13
32.010        33
32.020        20
32.030        27
32.040        27
32.050        33
32.060        27
32.070        27
32.080        13
32.090        27
32.100        40
32.110        33
32.120        40
32.130        20
32.140        60
32.150        20
32.160        47
32.170        27
32.180        20
32.190        40
32.200        67
32.210        33
32.220        33
32.230        53
32.240        20
32.250        27
32.260        27
32.270         7
32.280        40
32.290        27
32.300        13
32.310        27
32.320        33
32.330        20
32.340        27
32.350        13
32.360        33
32.370        13
32.380        33
32.390        27
32.400        33
32.410        13
32.420        13
32.430        20
32.440         0
32.450         0
32.460        47
32.470        27
32.480         7
32.490        20
32.500        47
32.510        33
32.520        40
32.530        20
32.540        27
32.550        53
32.560         7
32.570        27
32.580        33
32.590        13
32.600        20
32.610        20
32.620        20
32.630        13
32.640        27
32.650        27
32.660        20
32.670        40
32.680        13
32.690        47
32.700        27
32.710        20
32.720        33
32.730        33
32.740        27
32.750        20
32.760        33
32.770        40
32.780        13
32.790        27
32.800        40
32.810        20
32.820        20
32.830        33
32.840         7
32.850        20
32.860        20
32.870         7
32.880        20
32.890        27
32.900        13
32.910        20
32.920        27
32.930        27
32.940        27
32.950        13
32.960        33
32.970        27
32.980        27
32.990        47
33.000        27
33.010        33
33.020         7
33.030         7
33.040         7
33.050        13
33.060         7
33.070         7
33.080        53
33.090         0
33.100         7
33.110        33
33.120        20
33.130         7
33.140        20
33.150        20
33.160         7
33.170        20
33.180        53
33.190        20
33.200        13
33.210        27
33.220         7
33.230         7
33.240        27
33.250         7
33.260        20
33.270         7
33.280         0
33.290        47
33.300        13
33.310        27
33.320        27
33.330        13
33.340        40
33.350        13
33.360        20
33.370        13
33.380        13
33.390        13
33.400        13
33.410        33
33.420        27
33.430         0
33.440        27
33.450         0
33.460        20
33.470        20
33.480         7
33.490        20
33.500         0
33.510        20
33.520        27
33.530         7
33.540        47
33.550        20
33.560         7
33.570        20
33.580        13
33.590        20
33.600         7
33.610        13
33.620        33
33.630        27
33.640        13
33.650         0
33.660        27
33.670        20
33.680         0
33.690        13
33.700        27
33.710        20
33.720        20
33.730        33
33.740        13
33.750         7
33.760        20
33.770        20
33.780         0
33.790        13
33.800        20
33.810        27
33.820        20
33.830        27
33.840         0
33.850        27
33.860         7
33.870        20
33.880        13
33.890        20
33.900         7
33.910        20
33.920        13
33.930        13
33.940        13
33.950        20
33.960         0
33.970        20
33.980         7
33.990        20
34.000        13
34.010        27
34.020        20
34.030        13
34.040         7
34.050        27
34.060        27
34.070         0
34.080        13
34.090        20
34.100        13
34.110        20
34.120        13
34.130        20
34.140         7
34.150        33
34.160        13
34.170        13
34.180        40
34.190        33
34.200        20
34.210        13
34.220        13
34.230        20
34.240        20
34.250        40
34.260        20
34.270         0
34.280        20
34.290        20
34.300        13
34.310         7
34.320        13
34.330        20
34.340        20
34.350        33
34.360        13
34.370        13
34.380        20
34.390        27
34.400         0
34.410        13
34.420        13
34.430        33
34.440        33
34.450        20
34.460        20
34.470        20
34.480         7
34.490         7
34.500         7
34.510        13
34.520        20
34.530        40
34.540        33
34.550        33
34.560        13
34.570        40
34.580        20
34.590        13
34.600        27
34.610         7
34.620        13
34.630         7
34.640        20
34.650        33
34.660        13
34.670         7
34.680        47
34.690         7
34.700        33
34.710        40
34.720         7
34.730        27
34.740         0
34.750         7
34.760        33
34.770        40
34.780        20
34.790        20
34.800        27
34.810         7
34.820         7
34.830        27
34.840        20
34.850         0
34.860        53
34.870         0
34.880         7
34.890         7
34.900        27
34.910         7
34.920        13
34.930        27
34.940        33
34.950        40
34.960         0
34.970        20
34.980        13
34.990        33
35.000        13
35.010        27
35.020        20
35.030        20
35.040        13
35.050        27
35.060        13
35.070        13
35.080        20
35.090        13
35.100        20
35.110        13
35.120         7
35.130        40
35.140        27
35.150        40
35.160        20
35.170        20
35.180        20
35.190        27
35.200        20
35.210         7
35.220         0
35.230        33
35.240         7
35.250        40
35.260        13
35.270         7
35.280        13
35.290        20
35.300        33
35.310        20
35.320        20
35.330         7
35.340        20
35.350        20
35.360        13
35.370        20
35.380        20
35.390        20
35.400         7
35.410        27
35.420        13
35.430        13
35.440        33
35.450        20
35.460        13
35.470        20
35.480         7
35.490         7
35.500         0
35.510         7
35.520        20
35.530         7
35.540        27
35.550        27
35.560         7
35.570         7
35.580        20
35.590         7
35.600        13
35.610        13
35.620        20
35.630        27
35.640        27
35.650        27
35.660        13
35.670        20
35.680        20
35.690         7
35.700         7
35.710        47
35.720         7
35.730        20
35.740        27
35.750        40
35.760        20
35.770        13
35.780        13
35.790        27
35.800        27
35.810        20
35.820         0
35.830        20
35.840        20
35.850        27
35.860        20
35.870         7
35.880         7
35.890        13
35.900         7
35.910         0
35.920        13
35.930        13
35.940        13
35.950        20
35.960        40
35.970        13
35.980        20
35.990         7
36.000        33
36.010        13
36.020        13
36.030        47
36.040         7
36.050        13
36.060         7
36.070        20
36.080        27
36.090        33
36.100         7
36.110         0
36.120         7
36.130        13
36.140        20
36.150        20
36.160        20
36.170         7
36.180        13
36.190         7
36.200        27
36.210        20
36.220        27
36.230        13
36.240        20
36.250         7
36.260        27
36.270        27
36.280        20
36.290        13
36.300        13
36.310         0
36.320        20
36.330        13
36.340        13
36.350        13
36.360         7
36.370         7
36.380        27
36.390        20
36.400        13
36.410         7
36.420        40
36.430         7
36.440        47
36.450         7
36.460        33
36.470        20
36.480         7
36.490         7
36.500         7
36.510        13
36.520         7
36.530         7
36.540         7
36.550        27
36.560        13
36.570        47
36.580        13
36.590        13
36.600        13
36.610        13
36.620        20
36.630         7
36.640        13
36.650        20
36.660        47
36.670        20
36.680        27
36.690        40
36.700        20
36.710         0
36.720        13
36.730        33
36.740         7
36.750         7
36.760        27
36.770        13
36.780        13
36.790         0
36.800        27
36.810        13
36.820        27
36.830        13
36.840         7
36.850         7
36.860        33
36.870        13
36.880         0
36.890        33
36.900        20
36.910        20
36.920         7
36.930        33
36.940         7
36.950        13
36.960        27
36.970        13
36.980        13
36.990        20
37.000        33
37.010        13
37.020        47
37.030         0
37.040         0
37.050         7
37.060        20
37.070        13
37.080        13
37.090        20
37.100        13
37.110         7
37.120        20
37.130        27
37.140         0
37.150         0
37.160         7
37.170        27
37.180        27
37.190         7
37.200        13
37.210        33
37.220        20
37.230         7
37.240        13
37.250        20
37.260        13
37.270        20
37.280         7
37.290         7
37.300        27
37.310         7
37.320         7
37.330        27
37.340        13
37.350        20
37.360        20
37.370        13
37.380         7
37.390         0
37.400         7
37.410         0
37.420        13
37.430         7
37.440         7
37.450         7
37.460        20
37.470        13
37.480         7
37.490        20
37.500        13
37.510        20
37.520         7
37.530         7
37.540        13
37.550         0
37.560        27
37.570        20
37.580        20
37.590        20
37.600        20
37.610        20
37.620         0
37.630        27
37.640        20
37.650        27
37.660        20
37.670         7
37.680        13
37.690        13
37.700        20
37.710        33
37.720         7
37.730        27
37.740        13
37.750        13
37.760        13
37.770        13
37.780        13
37.790        20
37.800         7
37.810        20
37.820         7
37.830        40
37.840        13
37.850        20
37.860        20
37.870        13
37.880        20
37.890         0
37.900        13
37.910        27
37.920        27
37.930        33
37.940        13
37.950        20
37.960        13
37.970        27
37.980        13
37.990         7
38.000        27
38.010         7
38.020        33
38.030        40
38.040        27
38.050        20
38.060         7
38.070        13
38.080        13
38.090         7
38.100        33
38.110        20
38.120        27
38.130        27
38.140        33
38.150        20
38.160        33
38.170        20
38.180         7
38.190        13
38.200        20
38.210        13
38.220        33
38.230        13
38.240        13
38.250         7
38.260         7
38.270        20
38.280        13
38.290        20
38.300        60
38.310        20
38.320         0
38.330        20
38.340        13
38.350         0
38.360        27
38.370         7
38.380        20
38.390         7
38.400        20
38.410         7
38.420         0
38.430        13
38.440        13
38.450        40
38.460         0
38.470        13
38.480         7
38.490        27
38.500         7
38.510        13
38.520        13
38.530        13
38.540        20
38.550        13
38.560        20
38.570         7
38.580        47
38.590        13
38.600        20
38.610         7
38.620        20
38.630        13
38.640        40
38.650        20
38.660        40
38.670         7
38.680         7
38.690         7
38.700         7
38.710        27
38.720        27
38.730        13
38.740        20
38.750        13
38.760        27
38.770        20
38.780         7
38.790        27
38.800        27
38.810        13
38.820        27
38.830        13
38.840         7
38.850         7
38.860        40
38.870         0
38.880        27
38.890         7
38.900        27
38.910         7
38.920        13
38.930         7
38.940         7
38.950        27
38.960        20
38.970         0
38.980         7
38.990        20
39.000        13
39.010        27
39.020        27
39.030        13
39.040         7
39.050        13
39.060        20
39.070        13
39.080         7
39.090        27
39.100         7
39.110        13
39.120        27
39.130         0
39.140        33
39.150         7
39.160        13
39.170        33
39.180        27
39.190        20
39.200         7
39.210         7
39.220         0
39.230        13
39.240        27
39.250        20
39.260        20
39.270        13
39.280         7
39.290        27
39.300        27
39.310        20
39.320         7
39.330        27
39.340        20
39.350        20
39.360         0
39.370         7
39.380         7
39.390        20
39.400         7
39.410         0
39.420        27
39.430        13
39.440        20
39.450         0
39.460        27
39.470        13
39.480        33
39.490        33
39.500        13
39.510        27
39.520        20
39.530         7
39.540        13
39.550        20
39.560        40
39.570        13
39.580        13
39.590         0
39.600        33
39.610         7
39.620         7
39.630         7
39.640        20
39.650        20
39.660        20
39.670        20
39.680        13
39.690        20
39.700        20
39.710         7
39.720        13
39.730        13
39.740        13
39.750         7
39.760         7
39.770        40
39.780         0
39.790         7
39.800        13
39.810         0
39.820        27
39.830         0
39.840         7
39.850         7
39.860         0
39.870        20
39.880         7
39.890        60
39.900        13
39.910         7
39.920         0
39.930        13
39.940         7
39.950        20
39.960        27
39.970        27
39.980        13
39.990         7
40.000        27
40.010        20
40.020        13
40.030        13
40.040        27
40.050        33
40.060        20
40.070         7
40.080        33
40.090         7
40.100         0
40.110        27
40.120        20
40.130        20
40.140        40
40.150        20
40.160        13
40.170        20
40.180         7
40.190         7
40.200        20
40.210        20
40.220        27
40.230        20
40.240        13
40.250        33
40.260        13
40.270        20
40.280         7
40.290         0
40.300        13
40.310         0
40.320        20
40.330         7
40.340        13
40.350        27
40.360        13
40.370        13
40.380        33
40.390         7
40.400        40
40.410         7
40.420         7
40.430        20
40.440        20
40.450         7
40.460         7
40.470         0
40.480        20
40.490        20
40.500        20
40.510         7
40.520        27
40.530        27
40.540         7
40.550        20
40.560        40
40.570         7
40.580        40
40.590         7
40.600        27
40.610        13
40.620        33
40.630        20
40.640        40
40.650        20
40.660        33
40.670        13
40.680        27
40.690        33
40.700        33
40.710        13
40.720        27
40.730        13
40.740        27
40.750         7
40.760        33
40.770         0
40.780         7
40.790         7
40.800        27
40.810         0
40.820        13
40.830        13
40.840        33
40.850         0
40.860         0
40.870        27
40.880        27
40.890         7
40.900        27
40.910         7
40.920        13
40.930        13
40.940         7
40.950        13
40.960         7
40.970         7
40.980         7
40.990        13
41.000        20
41.010        33
41.020        40
41.030        20
41.040        13
41.050        13
41.060        13
41.070         0
41.080        20
41.090         7
41.100        20
41.110         7
41.120         0
41.130        27
41.140        13
41.150        20
41.160        20
41.170        13
41.180        13
41.190        20
41.200         7
41.210         7
41.220         7
41.230        20
41.240        13
41.250        20
41.260        20
41.270        27
41.280         0
41.290        47
41.300        20
41.310        27
41.320        13
41.330         0
41.340        13
41.350        27
41.360        13
41.370        20
41.380         7
41.390        13
41.400        20
41.410        20
41.420        13
41.430        20
41.440        20
41.450        27
41.460        33
41.470         7
41.480        27
41.490        13
41.500         7
41.510        13
41.520         7
41.530        33
41.540        33
41.550        27
41.560        20
41.570        13
41.580        20
41.590        13
41.600        20
41.610        13
41.620        20
41.630        20
41.640        27
41.650         7
41.660        20
41.670        13
41.680         7
41.690        13
41.700         0
41.710        20
41.720        33
41.730        33
41.740        20
41.750        53
41.760        13
41.770        13
41.780         7
41.790        20
41.800        20
41.810         7
41.820        13
41.830        27
41.840        27
41.850         0
41.860        53
41.870        20
41.880         7
41.890         7
41.900         0
41.910        13
41.920        20
41.930         7
41.940         7
41.950        20
41.960        20
41.970        20
41.980        40
41.990        60
42.000         7
42.010         0
42.020        20
42.030         0
42.040        33
42.050        40
42.060        27
42.070        13
42.080         7
42.090        47
42.100        33
42.110         7
42.120        33
42.130        20
42.140         7
42.150        27
42.160        40
42.170        20
42.180        13
42.190        20
42.200        20
42.210        33
42.220        27
42.230         7
42.240         7
42.250         7
42.260        13
42.270        13
42.280        20
42.290        20
42.300        20
42.310        13
42.320        13
42.330        33
42.340        27
42.350        27
42.360        20
42.370        60
42.380        33
42.390        13
42.400        20
42.410        40
42.420        20
42.430        20
42.440         7
42.450        20
42.460        13
42.470         7
42.480         0
42.490        20
42.500        13
42.510        27
42.520        40
42.530        20
42.540        13
42.550        20
42.560        20
42.570        27
42.580         0
42.590        20
42.600        27
42.610        13
42.620        20
42.630        60
42.640        20
42.650         7
42.660        13
42.670        13
42.680         7
42.690        33
42.700         7
42.710        20
42.720        33
42.730        13
42.740         7
42.750         7
42.760        13
42.770        20
42.780        20
42.790        13
42.800         7
42.810        33
42.820        20
42.830         7
42.840        33
42.850        27
42.860        20
42.870         0
42.880        20
42.890         7
42.900        20
42.910         7
42.920         7
42.930        27
42.940        27
42.950        40
42.960        40
42.970        20
42.980        33
42.990        27
43.000        13
43.010        27
43.020        13
43.030        20
43.040        20
43.050        20
43.060         0
43.070         7
43.080        27
43.090        27
43.100        20
43.110        13
43.120        33
43.130        13
43.140        20
43.150        13
43.160         7
43.170        13
43.180        33
43.190        13
43.200        27
43.210        20
43.220        13
43.230         7
43.240        20
43.250         7
43.260        20
43.270        27
43.280        13
43.290        13
43.300         7
43.310        13
43.320         0
43.330         0
43.340         7
43.350        27
43.360        33
43.370        13
43.380        20
43.390        27
43.400        13
43.410        20
43.420        20
43.430        13
43.440         7
43.450        13
43.460        13
43.470        13
43.480        20
43.490        33
43.500        20
43.510        27
43.520         7
43.530        13
43.540        20
43.550        27
43.560        33
43.570        13
43.580        27
43.590         7
43.600        27
43.610        27
43.620        20
43.630         7
43.640        20
43.650        33
43.660        27
43.670         0
43.680        20
43.690        13
43.700         7
43.710         7
43.720        20
43.730        13
43.740        40
43.750        13
43.760         7
43.770        13
43.780        27
43.790        27
43.800        27
43.810         7
43.820         7
43.830        40
43.840         7
43.850        27
43.860         7
43.870        13
43.880        27
43.890        13
43.900        13
43.910        20
43.920        33
43.930        33
43.940        27
43.950         0
43.960        13
43.970        20
43.980         7
43.990         0
44.000        20
44.010        20
44.020        33
44.030         0
44.040         0
44.050         0
44.060        33
44.070        13
44.080        13
44.090        27
44.100        33
44.110        13
44.120        33
44.130        13
44.140        20
44.150        20
44.160        13
44.170        20
44.180        27
44.190        13
44.200        13
44.210        27
44.220         7
44.230        27
44.240        13
44.250        33
44.260         7
44.270         7
44.280        20
44.290        20
44.300        13
44.310        20
44.320        27
44.330        13
44.340        27
44.350         7
44.360        33
44.370         7
44.380        13
44.390        33
44.400         0
44.410        13
44.420        27
44.430         7
44.440        20
44.450        13
44.460        33
44.470        20
44.480         7
44.490        27
44.500        20
44.510        13
44.520        13
44.530        27
44.540        20
44.550        13
44.560        27
44.570        47
44.580         7
44.590         7
44.600        60
44.610         7
44.620        33
44.630        53
44.640         7
44.650         7
44.660        20
44.670        20
44.680        20
44.690         0
44.700        20
44.710         7
44.720        13
44.730        40
44.740        33
44.750        13
44.760        33
44.770        27
44.780        27
44.790        33
44.800        20
44.810         7
44.820        27
44.830        13
44.840        33
44.850        27
44.860         7
44.870         7
44.880        27
44.890        20
44.900        20
44.910         0
44.920        13
44.930         7
44.940         0
44.950         7
44.960        40
44.970        53
44.980        13
44.990        33
45.000         0
45.010         7
45.020        13
45.030        13
45.040        33
45.050        13
45.060        20
45.070        33
45.080        27
45.090        20
45.100         0
45.110         7
45.120         7
45.130         7
45.140        20
45.150        20
45.160        27
45.170        33
45.180        13
45.190         0
45.200        13
45.210        27
45.220         7
45.230        53
45.240        13
45.250         0
45.260        13
45.270        20
45.280        40
45.290        20
45.300        13
45.310         7
45.320        20
45.330        33
45.340        33
45.350        13
45.360        13
45.370        20
45.380        33
45.390        33
45.400        27
45.410        27
45.420         0
45.430        27
45.440         7
45.450        13
45.460        13
45.470         0
45.480         7
45.490        13
45.500        33
45.510        13
45.520         7
45.530         0
45.540        33
45.550        20
45.560        27
45.570        27
45.580        27
45.590        20
45.600         7
45.610        13
45.620        27
45.630        20
45.640        27
45.650        27
45.660        13
45.670        40
45.680        33
45.690        13
45.700        27
45.710        20
45.720        20
45.730         0
45.740        27
45.750        40
45.760        33
45.770         7
45.780        27
45.790        20
45.800        20
45.810        40
45.820        27
45.830        33
45.840        33
45.850        27
45.860        13
45.870         0
45.880        27
45.890        33
45.900        20
45.910        33
45.920        27
45.930        53
45.940        47
45.950        20
45.960        27
45.970        13
45.980        40
45.990        33
46.000        53
46.010        60
46.020        27
46.030        53
46.040        27
46.050        80
46.060        67
46.070        53
46.080        60
46.090        80
46.100        67
46.110        40
46.120       107
46.130        87
46.140        47
46.150       100
46.160        87
46.170        60
46.180       100
46.190       113
46.200       147
46.210       127
46.220       153
46.230       213
46.240       173
46.250       220
46.260       287
46.270       293
46.280       340
46.290       233
46.300       340
46.310       260
46.320       380
46.330       407
46.340       466
46.350       340
46.360       340
46.370       407
46.380       307
46.390       353
46.400       347
46.410       353
46.420       260
46.430       247
46.440       347
46.450       260
46.460       273
46.470       240
46.480       267
46.490       240
46.500       173
46.510       200
46.520       213
46.530       147
46.540       140
46.550       153
46.560       173
46.570       153
46.580        87
46.590       100
46.600        80
46.610        47
46.620        40
46.630        53
46.640        87
46.650        87
46.660        60
46.670       107
46.680        47
46.690        20
46.700        27
46.710        60
46.720        40
46.730        73
46.740        60
46.750        53
46.760        47
46.770        40
46.780        73
46.790        73
46.800        73
46.810        53
46.820       100
46.830       133
46.840        87
46.850       107
46.860        87
46.870       113
46.880        80
46.890        67
46.900        60
46.910        93
46.920       133
46.930        47
46.940        60
46.950       107
46.960       113
46.970        87
46.980        93
46.990       113
47.000        67
47.010        87
47.020        80
47.030        47
47.040        93
47.050        27
47.060        60
47.070        27
47.080        60
47.090        80
47.100        47
47.110        80
47.120        53
47.130        67
47.140        40
47.150        53
47.160        33
47.170        67
47.180        27
47.190        27
47.200        67
47.210        27
47.220        33
47.230        27
47.240        67
47.250        47
47.260        13
47.270        13
47.280        27
47.290        33
47.300        27
47.310        40
47.320        27
47.330        27
47.340        20
47.350        13
47.360        27
47.370        13
47.380        13
47.390        20
47.400        33
47.410        20
47.420         7
47.430        20
47.440         7
47.450        40
47.460        33
47.470        40
47.480        13
47.490         7
47.500        27
47.510        20
47.520        20
47.530         0
47.540        20
47.550        33
47.560        13
47.570        33
47.580        13
47.590        20
47.600        13
47.610        47
47.620        27
47.630        13
47.640        40
47.650        13
47.660        20
47.670        20
47.680        13
47.690        40
47.700         7
47.710        20
47.720        13
47.730        27
47.740         0
47.750        20
47.760         7
47.770        27
47.780         7
47.790        20
47.800        20
47.810        13
47.820        13
47.830        33
47.840        47
47.850        20
47.860        13
47.870        20
47.880        13
47.890        20
47.900         7
47.910        20
47.920        20
47.930        13
47.940         7
47.950         7
47.960         0
47.970        33
47.980         7
47.990        20
48.000        20
48.010        20
48.020         0
48.030        20
48.040        13
48.050        40
48.060        27
48.070         0
48.080        13
48.090        20
48.100        20
48.110         7
48.120        13
48.130        13
48.140        33
48.150        20
48.160        33
48.170        20
48.180        13
48.190         0
48.200         0
48.210        33
48.220         0
48.230        20
48.240        20
48.250        27
48.260        13
48.270        20
48.280        20
48.290         7
48.300        13
48.310        13
48.320        20
48.330        27
48.340        20
48.350        13
48.360         7
48.370        33
48.380        40
48.390         7
48.400        13
48.410        13
48.420         7
48.430        20
48.440         7
48.450        13
48.460        20
48.470        40
48.480         0
48.490        13
48.500        20
48.510        33
48.520        13
48.530         0
48.540        13
48.550        13
48.560        20
48.570        20
48.580        13
48.590        20
48.600        13
48.610         7
48.620        13
48.630        27
48.640        20
48.650        13
48.660        20
48.670         7
48.680        13
48.690        47
48.700        20
48.710        13
48.720        27
48.730        13
48.740        20
48.750        27
48.760        40
48.770         0
48.780         7
48.790        20
48.800        13
48.810        13
48.820        20
48.830        20
48.840         0
48.850        27
48.860        27
48.870        40
48.880        27
48.890        20
48.900        13
48.910        40
48.920        13
48.930        40
48.940         7
48.950        13
48.960        13
48.970        33
48.980        40
48.990         7
49.000        20
49.010        40
49.020        20
49.030        27
49.040         7
49.050        13
49.060        13
49.070        40
49.080        47
49.090        20
49.100        20
49.110        27
49.120        27
49.130        33
49.140        13
49.150         0
49.160        33
49.170         7
49.180        20
49.190        13
49.200        20
49.210         7
49.220         7
49.230         7
49.240        40
49.250        27
49.260        27
49.270         7
49.280        13
49.290        27
49.300         7
49.310         0
49.320        40
49.330        20
49.340        20
49.350        13
49.360         0
49.370        27
49.380         7
49.390        13
49.400        27
49.410        20
49.420        33
49.430        27
49.440        27
49.450        13
49.460        20
49.470         7
49.480        20
49.490         0
49.500        20
49.510        20
49.520         0
49.530        33
49.540        27
49.550        27
49.560         7
49.570        33
49.580        20
49.590        27
49.600        27
49.610        20
49.620         7
49.630         7
49.640        20
49.650        13
49.660        20
49.670        13
49.680         7
49.690         7
49.700        13
49.710        20
49.720         7
49.730        20
49.740         0
49.750        20
49.760        53
49.770        20
49.780        27
49.790        33
49.800         0
49.810        33
49.820        13
49.830        33
49.840        27
49.850        33
49.860        33
49.870        20
49.880        27
49.890         7
49.900        27
49.910        27
49.920         7
49.930        27
49.940        40
49.950        33
49.960        33
49.970        33
49.980        40
49.990        27
50.000        13
50.010        47
50.020        20
50.030        40
50.040        53
50.050         7
50.060        27
50.070        20
50.080         7
50.090         7
50.100        47
50.110        20
50.120        47
50.130        47
50.140        20
50.150         7
50.160        40
50.170         0
50.180        20
50.190         7
50.200        20
50.210        40
50.220        27
50.230        27
50.240        33
50.250        13
50.260        20
50.270        13
50.280        20
50.290        13
50.300        13
50.310        20
50.320        40
50.330        13
50.340        27
50.350        13
50.360        40
50.370        13
50.380        40
50.390        40
50.400        27
50.410        20
50.420         7
50.430        40
50.440         7
50.450        20
50.460        13
50.470        20
50.480        20
50.490        33
50.500         7
50.510        13
50.520        13
50.530        13
50.540        13
50.550         0
50.560        20
50.570        20
50.580        27
50.590        20
50.600        33
50.610        13
50.620        13
50.630        13
50.640        13
50.650        20
50.660        20
50.670        20
50.680        20
50.690         0
50.700        20
50.710        20
50.720        20
50.730        27
50.740         7
50.750        27
50.760        27
50.770         7
50.780        20
50.790        40
50.800         7
50.810        33
50.820        13
50.830        20
50.840        13
50.850        20
50.860        13
50.870        20
50.880         7
50.890        20
50.900        33
50.910        40
50.920        47
50.930        33
50.940        33
50.950        13
50.960        40
50.970        20
50.980         0
50.990        27
51.000        40
51.010        13
51.020        40
51.030        47
51.040        20
51.050        27
51.060         7
51.070        27
51.080         7
51.090        33
51.100        20
51.110        27
51.120        20
51.130        20
51.140         7
51.150        47
51.160        27
51.170        13
51.180        13
51.190        13
51.200        40
51.210        40
51.220        13
51.230        13
51.240        33
51.250        20
51.260        33
51.270        13
51.280         7
51.290        33
51.300        20
51.310        33
51.320        47
51.330        53
51.340        33
51.350        20
51.360        20
51.370        33
51.380        33
51.390        33
51.400        33
51.410        20
51.420        33
51.430        33
51.440        13
51.450        53
51.460        13
51.470        20
51.480        20
51.490        27
51.500        27
51.510        20
51.520        20
51.530        27
51.540        20
51.550        60
51.560        47
51.570        27
51.580        33
51.590        53
51.600        33
51.610         7
51.620        33
51.630        20
51.640         7
51.650        27
51.660        53
51.670        33
51.680        33
51.690        20
51.700        13
51.710        60
51.720        33
51.730        40
51.740        20
51.750        53
51.760        27
51.770        27
51.780        27
51.790        20
51.800        27
51.810        27
51.820        20
51.830        40
51.840        20
51.850        33
51.860        47
51.870        33
51.880        27
51.890        33
51.900        47
51.910        47
51.920        47
51.930        40
51.940        33
51.950        33
51.960        40
51.970        40
51.980        60
51.990         0
52.000        33
52.010        53
52.020        27
52.030        47
52.040        33
52.050        20
52.060        73
52.070        27
52.080        40
52.090        40
52.100        40
52.110        60
52.120        47
52.130        53
52.140        60
52.150        20
52.160        53
52.170        27
52.180        53
52.190        60
52.200        53
52.210        33
52.220        33
52.230        47
52.240        47
52.250        27
52.260        53
52.270        80
52.280        53
52.290        33
52.300        53
52.310        27
52.320        40
52.330        47
52.340        80
52.350        27
52.360        67
52.370        40
52.380        53
52.390        60
52.400        33
52.410        53
52.420        80
52.430        73
52.440        73
52.450        73
52.460       140
52.470        73
52.480        93
52.490       140
52.500       113
52.510       207
52.520       173
52.530       273
52.540       267
52.550       227
52.560       260
52.570       220
52.580       247
52.590       247
52.600       227
52.610       273
52.620       300
52.630       287
52.640       260
52.650       367
52.660       446
52.670       446
52.680       360
52.690       333
52.700       293
52.710       213
52.720       273
52.730       173
52.740       147
52.750       127
52.760       173
52.770       233
52.780       187
52.790       193
52.800       147
52.810       227
52.820       187
52.830       113
52.840       120
52.850       113
52.860        67
52.870        40
52.880       120
52.890        47
52.900        33
52.910        40
52.920        40
52.930        87
52.940        60
52.950        67
52.960        47
52.970        47
52.980        27
52.990        47
53.000        27
53.010        33
53.020        40
53.030        13
53.040        20
53.050        33
53.060        87
53.070        67
53.080        60
53.090        27
53.100        40
53.110        53
53.120        40
53.130        33
53.140        33
53.150        40
53.160        47
53.170        47
53.180        27
53.190        33
53.200        33
53.210        33
53.220        27
53.230        27
53.240        40
53.250        33
53.260        13
53.270        33
53.280        13
53.290        13
53.300        33
53.310        13
53.320        13
53.330        40
53.340        47
53.350        33
53.360        20
53.370        20
53.380        33
53.390        60
53.400        33
53.410        13
53.420        33
53.430        20
53.440        27
53.450        33
53.460        40
53.470        40
53.480        27
53.490         7
53.500        33
53.510        40
53.520        20
53.530        20
53.540         7
53.550         7
53.560        13
53.570        27
53.580        27
53.590        27
53.600        20
53.610        33
53.620        27
53.630        47
53.640        20
53.650        20
53.660        47
53.670        13
53.680        27
53.690        33
53.700        20
53.710        47
53.720        13
53.730         7
53.740        33
53.750        40
53.760        40
53.770        33
53.780         7
53.790        27
53.800        13
53.810        20
53.820        13
53.830        33
53.840         7
53.850        47
53.860        40
53.870        53
53.880        27
53.890        20
53.900        20
53.910        20
53.920        27
53.930        93
53.940        27
53.950        13
53.960        27
53.970        27
53.980        27
53.990         7
54.000        33
54.010        33
54.020         7
54.030        33
54.040        27
54.050        27
54.060         7
54.070        33
54.080         7
54.090        20
54.100        13
54.110        20
54.120        20
54.130         0
54.140         7
54.150        13
54.160        13
54.170        20
54.180        13
54.190        20
54.200        27
54.210        20
54.220        20
54.230        20
54.240        40
54.250        20
54.260        13
54.270        27
54.280         7
54.290         7
54.300        20
54.310        33
54.320        40
54.330         7
54.340        20
54.350        27
54.360        20
54.370        27
54.380        27
54.390        27
54.400        13
54.410        13
54.420        13
54.430        27
54.440         7
54.450        13
54.460        13
54.470        13
54.480        20
54.490        40
54.500        27
54.510        13
54.520        20
54.530        20
54.540        33
54.550        33
54.560         7
54.570        20
54.580        33
54.590         7
54.600        33
54.610        33
54.620         7
54.630        13
54.640        13
54.650        13
54.660        33
54.670        20
54.680        20
54.690         7
54.700        13
54.710        27
54.720        13
54.730        27
54.740        20
54.750         7
54.760        20
54.770        20
54.780        47
54.790        33
54.800        20
54.810        13
54.820        47
54.830        20
54.840         7
54.850        20
54.860        33
54.870        13
54.880         7
54.890        33
54.900         7
54.910        20
54.920        13
54.930         7
54.940        27
54.950        20
54.960        53
54.970        20
54.980        20
54.990        13
55.000         0
55.010        13
55.020        13
55.030        33
55.040        20
55.050        13
55.060        40
55.070         7
55.080        13
55.090        27
55.100         0
55.110        20
55.120         0
55.130        13
55.140        27
55.150        20
55.160        20
55.170        20
55.180        20
55.190        27
55.200         0
55.210        13
55.220        20
55.230        27
55.240        20
55.250        20
55.260         7
55.270        20
55.280        33
55.290        13
55.300        13
55.310         7
55.320         7
55.330        20
55.340        13
55.350        27
55.360         7
55.370        20
55.380        13
55.390        33
55.400        20
55.410        13
55.420        20
55.430         0
55.440        33
55.450        27
55.460        27
55.470        33
55.480        27
55.490        13
55.500        27
55.510        27
55.520         0
55.530         7
55.540         7
55.550        33
55.560        33
55.570        13
55.580         7
55.590        13
55.600        13
55.610         7
55.620        20
55.630         7
55.640        33
55.650        40
55.660        20
55.670        27
55.680        20
55.690        13
55.700        13
55.710         7
55.720        20
55.730        20
55.740        20
55.750        27
55.760        20
55.770        27
55.780        20
55.790         7
55.800        33
55.810         7
55.820        13
55.830         0
55.840        27
55.850        47
55.860        20
55.870         7
55.880        20
55.890         7
55.900         7
55.910         7
55.920        33
55.930         0
55.940        40
55.950        40
55.960        27
55.970        27
55.980        27
55.990        40
56.000         7
56.010        27
56.020        13
56.030        27
56.040        20
56.050        13
56.060        13
56.070        20
56.080         7
56.090        20
56.100        20
56.110         7
56.120        20
56.130        33
56.140        20
56.150        13
56.160        13
56.170        27
56.180        27
56.190        27
56.200        13
56.210        20
56.220         0
56.230         0
56.240        20
56.250         7
56.260        27
56.270        20
56.280        13
56.290        13
56.300        13
56.310        20
56.320        20
56.330         7
56.340        40
56.350        40
56.360        27
56.370         7
56.380        27
56.390         0
56.400        20
56.410        13
56.420        20
56.430         7
56.440         7
56.450        13
56.460         7
56.470        47
56.480        13
56.490        13
56.500        27
56.510         7
56.520        20
56.530        20
56.540        20
56.550        27
56.560         7
56.570        13
56.580         7
56.590        47
56.600        13
56.610        33
56.620        13
56.630         0
56.640        13
56.650        13
56.660        33
56.670        20
56.680         7
56.690         0
56.700        13
56.710         0
56.720        13
56.730        27
56.740        20
56.750        13
56.760         0
56.770        20
56.780        20
56.790        20
56.800         7
56.810        13
56.820        20
56.830        27
56.840         7
56.850        40
56.860         7
56.870        33
56.880        13
56.890        33
56.900        13
56.910        13
56.920        20
56.930         7
56.940        20
56.950        13
56.960        20
56.970        13
56.980        47
56.990         7
57.000        27
57.010        20
57.020         7
57.030         7
57.040        13
57.050        13
57.060        33
57.070        13
57.080        33
57.090        20
57.100        20
57.110        20
57.120         0
57.130        27
57.140        13
57.150        20
57.160        13
57.170        47
57.180        13
57.190        33
57.200        13
57.210        13
57.220        13
57.230        13
57.240         0
57.250        27
57.260        13
57.270         7
57.280         7
57.290        27
57.300        20
57.310        20
57.320        13
57.330        33
57.340        27
57.350        20
57.360        13
57.370         7
57.380        13
57.390         7
57.400         7
57.410        27
57.420        13
57.430        20
57.440        27
57.450        53
57.460         0
57.470        20
57.480        13
57.490        13
57.500        40
57.510         7
57.520        13
57.530        40
57.540        20
57.550        13
57.560        13
57.570        53
57.580        27
57.590         0
57.600        13
57.610         7
57.620        20
57.630        27
57.640        13
57.650        13
57.660        20
57.670         7
57.680        13
57.690        27
57.700        40
57.710        13
57.720         7
57.730        13
57.740        13
57.750        13
57.760        20
57.770        20
57.780        20
57.790        27
57.800        13
57.810        13
57.820        13
57.830        13
57.840        40
57.850         7
57.860         7
57.870         7
57.880        20
57.890         7
57.900        13
57.910        20
57.920        20
57.930        33
57.940        20
57.950         7
57.960         7
57.970         7
57.980        33
57.990        13
58.000         7
58.010        13
58.020        20
58.030        13
58.040         7
58.050        20
58.060        20
58.070        27
58.080         7
58.090        20
58.100        47
58.110        33
58.120        27
58.130        27
58.140        13
58.150        13
58.160         7
58.170        20
58.180        47
58.190        20
58.200        33
58.210        13
58.220         0
58.230        20
58.240         0
58.250        27
58.260        13
58.270        13
58.280         7
58.290        13
58.300         7
58.310        13
58.320        27
58.330        13
58.340         7
58.350         7
58.360        20
58.370        13
58.380        13
58.390        27
58.400        33
58.410        13
58.420        20
58.430        27
58.440        13
58.450        33
58.460        20
58.470        13
58.480        27
58.490         7
58.500         7
58.510        27
58.520         7
58.530         7
58.540         7
58.550        27
58.560         7
58.570         0
58.580        20
58.590        20
58.600        13
58.610        33
58.620         7
58.630        27
58.640        13
58.650        27
58.660         7
58.670        13
58.680        20
58.690         0
58.700         7
58.710        20
58.720         7
58.730        13
58.740         7
58.750        13
58.760        13
58.770        13
58.780         7
58.790        20
58.800         7
58.810        20
58.820        13
58.830         7
58.840         0
58.850        40
58.860         0
58.870        20
58.880        20
58.890        20
58.900        13
58.910        20
58.920        33
58.930        13
58.940        27
58.950         7
58.960        13
58.970        20
58.980        13
58.990        20
59.000        13
59.010         0
59.020        33
59.030        13
59.040         0
59.050        20
59.060        20
59.070        13
59.080        13
59.090        20
59.100         0
59.110        33
59.120        47
59.130        20
59.140        13
59.150         7
59.160         0
59.170        13
59.180        13
59.190        13
59.200        13
59.210         7
59.220         7
59.230        20
59.240        13
59.250         0
59.260        13
59.270         7
59.280         0
59.290        20
59.300        13
59.310        27
59.320         0
59.330        13
59.340         7
59.350        13
59.360        13
59.370        27
59.380        20
59.390        13
59.400        33
59.410        13
59.420        13
59.430         7
59.440        13
59.450        13
59.460        13
59.470         7
59.480        13
59.490        33
59.500        13
59.510         7
59.520         7
59.530        13
59.540        13
59.550        40
59.560        13
59.570        20
59.580        13
59.590         7
59.600        20
59.610        20
59.620         7
59.630         7
59.640         7
59.650        33
59.660        13
59.670        13
59.680        40
59.690         7
59.700        13
59.710        33
59.720        13
59.730        20
59.740         7
59.750        13
59.760        40
59.770        33
59.780        13
59.790         7
59.800         0
59.810         7
59.820        13
59.830         0
59.840         0
59.850        53
59.860        27
59.870         7
59.880         7
59.890        20
59.900         0
59.910        33
59.920        47
59.930        20
59.940        20
59.950        33
59.960        20
59.970        27
59.980        27
59.990        13
60.000        13
