20.000        47
20.010        67
20.020        27
20.030        33
20.040        40
20.050        40
20.060        47
20.070        27
20.080        20
20.090        20
20.100        93
20.110        53
20.120        27
20.130        80
20.140        27
20.150        73
20.160        53
20.170        40
20.180        33
20.190        40
20.200        33
20.210        73
20.220        27
20.230        27
20.240        60
20.250        47
20.260        40
20.270        53
20.280        40
20.290        47
20.300        33
20.310        53
20.320        47
20.330        27
20.340        47
20.350        40
20.360        53
20.370        60
20.380        53
20.390        20
20.400        47
20.410        33
20.420        60
20.430        67
20.440        33
20.450        33
20.460        60
20.470        27
20.480        40
20.490        87
20.500        20
20.510        53
20.520        33
20.530        13
20.540        47
20.550        33
20.560        60
20.570        40
20.580        47
20.590        47
20.600        33
20.610        27
20.620        47
20.630        53
20.640        33
20.650        40
20.660        40
20.670        53
20.680        47
20.690        33
20.700        60
20.710        33
20.720        47
20.730        67
20.740        27
20.750        33
20.760        13
20.770        47
20.780        60
20.790        20
20.800        20
20.810        40
20.820        73
20.830        40
20.840        47
20.850        53
20.860        20
20.870        60
20.880        53
20.890        67
20.900        13
20.910        40
20.920        53
20.930        20
20.940        47
20.950        33
20.960        27
20.970        20
20.980        13
20.990        20
21.000        40
21.010         7
21.020        33
21.030        13
21.040        27
21.050        47
21.060        20
21.070        67
21.080        40
21.090        80
21.100        67
21.110        47
21.120        27
21.130        40
21.140        27
21.150        33
21.160        53
21.170        47
21.180        27
21.190        53
21.200         7
21.210        47
21.220        47
21.230        20
21.240        73
21.250        60
21.260        33
21.270        47
21.280        47
21.290        53
21.300        27
21.310        13
21.320        20
21.330        53
21.340        53
21.350        40
21.360        27
21.370        27
21.380        60
21.390        60
21.400        27
21.410        27
21.420        20
21.430        27
21.440        13
21.450        67
21.460        33
21.470        60
21.480        33
21.490        33
21.500        27
21.510        40
21.520        87
21.530        40
21.540        40
21.550        40
21.560        27
21.570        33
21.580        47
21.590        40
21.600        27
21.610        40
21.620        33
21.630        33
21.640        67
21.650        53
21.660        40
21.670        13
21.680        87
21.690        13
21.700        60
21.710        40
21.720        40
21.730        13
21.740        40
21.750        73
21.760        33
21.770        47
21.780        40
21.790        33
21.800        47
21.810        20
21.820        40
21.830        67
21.840        27
21.850        73
21.860        47
21.870        27
21.880        40
21.890        33
21.900        33
21.910        20
21.920        47
21.930        40
21.940        53
21.950        27
21.960        40
21.970        47
21.980        87
21.990        47
22.000        40
22.010        73
22.020        40
22.030        27
22.040        27
22.050        53
22.060        47
22.070        40
22.080         7
22.090        33
22.100        33
22.110        27
22.120        27
22.130        13
22.140        47
22.150        33
22.160        27
22.170        47
22.180        53
22.190        47
22.200        40
22.210        20
22.220        47
22.230        20
22.240        47
22.250        40
22.260        40
22.270        60
22.280        27
22.290        53
22.300        33
22.310        40
22.320        13
22.330        47
22.340        33
22.350        20
22.360        47
22.370        33
22.380        60
22.390        67
22.400        40
22.410        67
22.420        27
22.430        33
22.440        67
22.450        47
22.460        40
22.470        80
22.480        40
22.490        40
22.500        53
22.510        60
22.520        73
22.530        80
22.540        87
22.550       100
22.560       140
22.570       107
22.580       160
22.590       153
22.600       200
22.610       167
22.620       173
22.630       180
22.640       293
22.650       340
22.660       273
22.670       247
22.680       313
22.690       267
22.700       347
22.710       420
22.720       300
22.730       307
22.740       320
22.750       293
22.760       273
22.770       300
22.780       233
22.790       220
22.800       213
22.810       200
22.820       200
22.830       133
22.840       107
22.850       160
22.860       120
22.870       207
22.880       120
22.890       100
22.900       147
22.910       140
22.920       153
22.930       113
22.940       200
22.950       160
22.960       207
22.970       233
22.980       213
22.990       140
23.000       180
23.010       140
23.020       120
23.030       140
23.040       147
23.050        67
23.060        93
23.070       127
23.080        33
23.090        80
23.100       100
23.110        93
23.120        60
23.130        53
23.140        67
23.150        67
23.160        27
23.170        73
23.180        73
23.190        33
23.200        47
23.210        20
23.220        47
23.230        47
23.240        13
23.250        40
23.260        40
23.270        27
23.280        20
23.290        40
23.300        27
23.310        53
23.320        27
23.330        33
23.340        27
23.350        40
23.360        20
23.370        20
23.380        47
23.390        20
23.400        13
23.410        53
23.420        27
23.430        40
23.440        27
23.450        27
23.460        13
23.470        33
23.480        53
23.490        40
23.500        53
23.510        40
23.520        20
23.530        20
23.540        47
23.550        53
23.560        47
23.570        33
23.580         7
23.590        27
23.600        40
23.610        27
23.620        33
23.630        20
23.640        53
23.650        13
23.660        53
23.670        27
23.680        13
23.690         7
23.700        40
23.710        13
23.720        13
23.730        20
23.740        20
23.750        13
23.760        27
23.770        27
23.780        33
23.790        20
23.800        13
23.810        27
23.820        27
23.830        33
23.840        27
23.850        40
23.860        13
23.870        53
23.880        20
23.890        33
23.900        53
23.910        33
23.920        20
23.930        40
23.940         0
23.950         7
23.960        20
23.970        20
23.980        20
23.990        33
24.000         0
24.010        27
24.020        27
24.030        53
24.040        60
24.050        40
24.060        20
24.070        47
24.080        20
24.090        27
24.100        47
24.110        27
24.120        40
24.130        47
24.140        47
24.150        53
24.160        47
24.170        13
24.180        40
24.190        40
24.200        33
24.210         0
24.220        27
24.230        40
24.240        80
24.250        20
24.260        27
24.270        27
24.280        27
24.290        33
24.300        27
24.310        20
24.320        27
24.330        27
24.340        47
24.350        20
24.360        33
24.370        60
24.380        40
24.390        40
24.400        60
24.410        47
24.420        27
24.430        27
24.440        33
24.450        53
24.460        40
24.470        53
24.480        47
24.490        13
24.500        13
24.510        20
24.520        13
24.530        33
24.540        13
24.550        33
24.560        13
24.570        20
24.580         0
24.590        47
24.600        13
24.610        33
24.620        40
24.630        60
24.640        33
24.650        53
24.660        33
24.670        47
24.680        40
24.690        27
24.700        47
24.710         7
24.720        47
24.730        27
24.740        40
24.750        33
24.760        33
24.770        20
24.780        27
24.790        27
24.800        53
24.810         7
24.820        13
24.830         7
24.840        27
24.850        27
24.860         7
24.870        27
24.880        33
24.890        27
24.900        13
24.910        33
24.920        27
24.930        33
24.940        40
24.950        60
24.960        27
24.970        13
24.980        13
24.990        47
25.000        27
25.010        33
25.020        27
25.030        33
25.040         7
25.050        53
25.060        33
25.070        40
25.080        20
25.090        40
25.100        40
25.110        33
25.120        20
25.130        20
25.140        47
25.150        60
25.160        27
25.170        20
25.180        33
25.190         7
25.200        40
25.210        33
25.220        47
25.230        20
25.240        33
25.250        20
25.260        20
25.270        20
25.280        20
25.290        33
25.300        53
25.310        33
25.320        40
25.330        47
25.340        13
25.350        47
25.360        13
25.370        33
25.380        47
25.390        33
25.400        27
25.410         7
25.420        40
25.430        60
25.440        47
25.450        53
25.460        40
25.470        33
25.480        47
25.490        40
25.500        47
25.510        27
25.520        33
25.530        47
25.540        47
25.550        80
25.560        67
25.570        67
25.580        33
25.590        73
25.600        60
25.610        53
25.620        33
25.630        40
25.640        40
25.650        33
25.660        80
25.670        47
25.680        53
25.690        27
25.700        53
25.710        40
25.720        47
25.730        33
25.740        20
25.750        80
25.760        47
25.770        47
25.780         7
25.790        53
25.800         0
25.810        40
25.820        13
25.830        60
25.840        40
25.850        47
25.860        47
25.870        60
25.880        27
25.890        33
25.900        13
25.910        20
25.920        20
25.930        20
25.940        40
25.950        47
25.960        40
25.970         7
25.980        27
25.990        40
26.000        40
26.010        40
26.020        47
26.030        53
26.040        27
26.050         7
26.060        13
26.070        33
26.080         7
26.090        33
26.100        40
26.110         7
26.120        33
26.130        40
26.140        33
26.150        27
26.160        53
26.170        20
26.180        13
26.190        20
26.200        27
26.210         7
26.220        33
26.230        47
26.240        40
26.250        33
26.260        40
26.270        33
26.280        20
26.290        47
26.300        27
26.310        20
26.320        33
26.330        40
26.340        27
26.350        27
26.360        13
26.370        20
26.380        20
26.390        47
26.400        33
26.410        40
26.420        13
26.430        27
26.440        20
26.450        47
26.460        40
26.470        20
26.480        27
26.490        20
26.500        27
26.510        40
26.520        27
26.530        13
26.540         7
26.550         7
26.560        27
26.570        33
26.580        33
26.590        20
26.600        33
26.610        27
26.620        47
26.630        40
26.640        27
26.650        33
26.660        33
26.670        20
26.680        27
26.690        20
26.700        27
26.710        20
26.720        53
26.730        40
26.740        73
26.750        20
26.760        53
26.770        20
26.780        53
26.790        33
26.800        53
26.810        47
26.820        87
26.830        33
26.840        13
26.850        27
26.860        20
26.870        60
26.880        20
26.890        40
26.900        33
26.910        33
26.920        20
26.930        13
26.940        27
26.950        33
26.960        20
26.970        47
26.980        33
26.990        27
27.000        40
27.010        47
27.020        20
27.030        20
27.040         7
27.050        27
27.060        53
27.070        27
27.080        33
27.090        47
27.100        27
27.110        33
27.120        33
27.130        33
27.140        40
27.150        53
27.160        47
27.170        27
27.180        27
27.190        27
27.200        27
27.210        13
27.220        33
27.230        33
27.240        40
27.250        13
27.260        20
27.270        47
27.280        27
27.290        20
27.300        13
27.310        27
27.320        13
27.330        13
27.340        27
27.350        27
27.360        20
27.370        13
27.380         7
27.390         7
27.400        27
27.410         7
27.420        20
27.430         7
27.440        33
27.450        53
27.460        13
27.470        20
27.480        13
27.490        20
27.500        13
27.510         0
27.520        40
27.530        20
27.540        20
27.550         7
27.560        13
27.570        33
27.580        27
27.590        67
27.600        80
27.610        47
27.620        33
27.630        33
27.640        20
27.650        33
27.660        13
27.670        33
27.680        40
27.690        13
27.700         7
27.710        40
27.720        13
27.730        33
27.740        33
27.750         0
27.760        20
27.770        20
27.780        33
27.790        73
27.800        47
27.810        67
27.820        27
27.830         7
27.840        40
27.850        20
27.860        20
27.870        27
27.880        60
27.890        33
27.900        40
27.910        40
27.920        40
27.930         7
27.940        20
27.950        47
27.960        27
27.970         7
27.980        20
27.990         7
28.000        20
28.010        20
28.020        33
28.030        60
28.040        13
28.050        33
28.060         0
28.070        47
28.080        33
28.090        40
28.100        33
28.110        27
28.120        27
28.130        40
28.140        53
28.150        33
28.160        13
28.170        33
28.180        47
28.190        33
28.200        20
28.210        47
28.220        20
28.230        27
28.240         7
28.250        33
28.260        20
28.270        20
28.280        20
28.290        27
28.300        27
28.310        33
28.320        13
28.330        27
28.340        13
28.350        20
28.360        20
28.370        33
28.380        13
28.390         0
28.400        20
28.410         7
28.420        53
28.430        40
28.440        33
28.450        33
28.460        13
28.470        33
28.480        27
28.490        13
28.500        33
28.510        13
28.520        33
28.530        27
28.540        20
28.550        40
28.560        20
28.570        27
28.580        27
28.590        20
28.600        13
28.610        27
28.620        40
28.630        27
28.640        13
28.650        20
28.660        47
28.670        27
28.680        53
28.690         7
28.700        33
28.710        13
28.720        27
28.730        40
28.740        27
28.750        27
28.760        27
28.770        20
28.780        20
28.790        27
28.800        20
28.810        33
28.820        20
28.830        27
28.840        33
28.850        40
28.860        40
28.870        20
28.880        33
28.890        27
28.900        20
28.910        27
28.920        27
28.930        67
28.940        47
28.950        33
28.960        33
28.970        40
28.980        13
28.990        33
29.000        47
29.010        27
29.020        53
29.030        53
29.040        27
29.050        47
29.060        20
29.070        47
29.080        73
29.090        80
29.100        73
29.110       113
29.120        40
29.130       100
29.140        53
29.150        27
29.160        60
29.170        67
29.180        13
29.190        73
29.200        47
29.210        40
29.220        27
29.230        20
29.240        53
29.250        13
29.260        33
29.270        27
29.280        33
29.290        40
29.300        40
29.310        47
29.320        47
29.330        27
29.340        33
29.350        33
29.360        27
29.370         7
29.380        33
29.390        13
29.400        20
29.410        13
29.420        13
29.430        27
29.440        13
29.450        27
29.460        40
29.470        40
29.480        20
29.490        47
29.500        20
29.510        33
29.520        60
29.530        13
29.540        33
29.550        47
29.560        20
29.570        27
29.580         7
29.590        20
29.600        27
29.610        33
29.620        53
29.630        13
29.640        13
29.650        20
29.660        13
29.670        27
29.680        13
29.690        40
29.700        13
29.710        27
29.720        53
29.730        27
29.740        20
29.750        40
29.760        13
29.770        13
29.780        20
29.790        33
29.800        20
29.810         0
29.820        27
29.830        33
29.840         7
29.850        27
29.860        13
29.870        27
29.880         7
29.890        40
29.900        47
29.910        33
29.920        40
29.930        20
29.940        33
29.950        20
29.960        40
29.970        40
29.980        20
29.990        33
30.000        47
30.010        13
30.020        27
30.030        13
30.040        27
30.050        27
30.060        27
30.070        20
30.080        40
30.090        13
30.100        27
30.110         7
30.120        60
30.130         7
30.140        13
30.150        33
30.160        13
30.170        40
30.180        20
30.190        27
30.200         7
30.210        13
30.220         7
30.230        27
30.240        27
30.250        13
30.260        13
30.270        40
30.280        20
30.290        27
30.300        33
30.310        27
30.320        53
30.330        27
30.340        40
30.350        33
30.360        13
30.370        27
30.380        20
30.390        40
30.400        13
30.410        40
30.420        33
30.430        27
30.440        40
30.450        20
30.460        13
30.470        47
30.480        13
30.490        40
30.500        20
30.510        20
30.520        47
30.530        27
30.540        13
30.550         7
30.560        20
30.570        13
30.580        40
30.590         7
30.600        47
30.610         7
30.620        40
30.630        27
30.640         7
30.650         7
30.660        33
30.670        20
30.680        20
30.690        27
30.700        60
30.710        27
30.720        27
30.730        33
30.740         0
30.750        20
30.760        40
30.770        20
30.780        47
30.790        20
30.800         7
30.810        27
30.820        47
30.830        27
30.840        13
30.850        13
30.860        13
30.870         0
30.880         7
30.890        27
30.900         7
30.910        33
30.920        27
30.930        27
30.940        20
30.950        13
30.960         7
30.970        20
30.980        20
30.990        27
31.000        47
31.010        27
31.020        13
31.030         7
31.040        27
31.050        40
31.060         7
31.070        27
31.080        13
31.090        27
31.100         7
31.110        53
31.120        27
31.130        33
31.140        13
31.150        33
31.160        27
31.170        20
31.180        20
31.190        13
31.200        27
31.210        13
31.220        27
31.230        20
31.240        33
31.250        60
31.260        47
31.270        53
31.280        73
31.290        40
31.300        33
31.310        73
31.320        33
31.330        53
31.340        53
31.350        47
31.360        33
31.370        27
31.380         7
31.390        47
31.400        47
31.410        40
31.420        20
31.430        33
31.440        60
31.450        60
31.460        40
31.470        27
31.480        13
31.490        27
31.500        47
31.510        20
31.520        20
31.530        40
31.540         0
31.550         7
31.560        27
31.570        47
31.580        20
31.590        13
31.600        27
31.610        20
31.620        13
31.630        33
31.640        20
31.650         7
31.660        27
31.670        27
31.680        13
31.690        13
31.700         0
31.710        40
31.720        20
31.730        33
31.740        20
31.750        20
31.760         7
31.770        13
31.780        20
31.790        13
31.800        20
31.810         0
31.820        27
31.830        47
31.840        13
31.850        20
31.860        40
31.870        20
31.880        20
31.890        27
31.900        40
31.910        13
31.920        20
31.930        40
31.940        40
31.950        27
31.960        13
31.970        53
31.980        27
31.990        47
32.000        13
32.010        20
32.020        20
32.030        13
32.040        20
32.050         7
32.060        13
32.070        20
32.080        40
32.090        33
32.100        20
32.110        27
32.120        47
32.130        40
32.140        33
32.150        27
32.160        20
32.170        13
32.180         7
32.190        13
32.200        20
32.210        33
32.220        60
32.230        40
32.240        27
32.250        13
32.260        40
32.270        27
32.280        13
32.290        20
32.300        53
32.310        60
32.320        40
32.330         7
32.340        27
32.350        33
32.360        33
32.370        20
32.380        33
32.390         7
32.400         0
32.410         7
32.420        27
32.430        33
32.440        40
32.450         7
32.460        13
32.470         7
32.480        13
32.490        27
32.500        13
32.510         7
32.520         7
32.530        27
32.540        40
32.550        33
32.560        20
32.570        20
32.580        20
32.590        27
32.600        13
32.610        13
32.620        47
32.630        33
32.640        27
32.650        27
32.660        33
32.670        47
32.680        20
32.690        27
32.700        13
32.710        33
32.720        47
32.730        27
32.740        40
32.750        47
32.760        33
32.770        20
32.780        73
32.790        67
32.800        27
32.810        27
32.820        27
32.830        40
32.840        40
32.850        27
32.860        27
32.870        40
32.880        20
32.890        13
32.900        20
32.910        27
32.920         0
32.930         7
32.940        20
32.950         7
32.960        13
32.970        27
32.980        27
32.990        20
33.000         7
33.010        13
33.020        13
33.030        33
33.040        13
33.050        33
33.060        27
33.070        40
33.080        13
33.090        20
33.100        47
33.110        20
33.120        13
33.130        20
33.140        33
33.150        13
33.160        13
33.170        13
33.180        40
33.190         7
33.200        20
33.210        13
33.220        33
33.230        27
33.240        20
33.250         7
33.260         0
33.270        20
33.280        13
33.290         0
33.300        20
33.310        20
33.320        13
33.330        20
33.340         7
33.350        20
33.360        13
33.370         0
33.380        20
33.390        13
33.400         7
33.410        27
33.420        27
33.430        20
33.440         7
33.450         7
33.460        13
33.470         7
33.480        27
33.490        20
33.500        33
33.510        20
33.520        13
33.530        40
33.540        27
33.550        13
33.560         0
33.570        27
33.580        27
33.590        13
33.600        20
33.610        20
33.620        33
33.630        67
33.640        20
33.650         0
33.660        40
33.670        20
33.680        20
33.690        13
33.700        20
33.710        40
33.720        33
33.730         7
33.740        27
33.750         0
33.760        27
33.770        20
33.780        20
33.790        13
33.800         0
33.810        33
33.820        33
33.830        40
33.840        20
33.850        13
33.860        20
33.870         7
33.880        20
33.890        20
33.900        27
33.910        40
33.920        20
33.930        27
33.940        20
33.950        13
33.960         7
33.970         7
33.980        47
33.990        13
34.000         7
34.010        13
34.020        13
34.030        20
34.040        40
34.050         0
34.060        53
34.070        40
34.080        27
34.090         7
34.100        13
34.110        13
34.120        13
34.130        33
34.140        20
34.150        13
34.160         7
34.170        13
34.180        33
34.190        20
34.200        33
34.210        13
34.220         7
34.230        20
34.240        20
34.250        27
34.260        20
34.270        27
34.280        13
34.290        27
34.300        27
34.310        13
34.320        13
34.330         7
34.340        40
34.350        20
34.360        33
34.370         7
34.380         7
34.390        33
34.400        13
34.410        27
34.420        13
34.430        47
34.440        40
34.450        13
34.460        33
34.470        13
34.480        13
34.490        27
34.500        20
34.510        33
34.520        13
34.530        13
34.540        20
34.550         0
34.560         7
34.570        20
34.580        20
34.590        13
34.600        33
34.610        13
34.620        33
34.630        20
34.640        20
34.650        33
34.660        27
34.670        33
34.680        13
34.690        13
34.700        13
34.710        67
34.720        13
34.730        40
34.740        13
34.750        13
34.760         7
34.770        27
34.780        27
34.790        20
34.800        20
34.810        13
34.820        13
34.830        13
34.840        47
34.850        20
34.860         7
34.870        20
34.880        40
34.890         7
34.900        33
34.910        40
34.920        33
34.930        13
34.940        13
34.950        27
34.960        13
34.970        13
34.980        20
34.990         7
35.000        13
35.010         7
35.020        40
35.030        13
35.040        20
35.050        20
35.060         0
35.070        27
35.080         0
35.090        20
35.100        27
35.110        20
35.120        27
35.130        20
35.140        13
35.150         7
35.160        27
35.170         7
35.180        27
35.190        40
35.200         7
35.210        47
35.220         7
35.230        20
35.240        13
35.250         7
35.260        33
35.270        33
35.280         7
35.290         7
35.300         7
35.310        20
35.320         0
35.330        20
35.340        40
35.350        13
35.360         7
35.370        13
35.380        13
35.390        33
35.400        20
35.410        33
35.420        13
35.430        20
35.440        20
35.450        13
35.460        27
35.470        13
35.480        27
35.490        20
35.500         7
35.510        13
35.520        13
35.530        27
35.540        20
35.550        33
35.560        27
35.570        13
35.580        20
35.590        27
35.600        27
35.610        20
35.620        13
35.630         7
35.640        27
35.650         0
35.660        20
35.670        13
35.680        33
35.690        13
35.700        40
35.710        20
35.720        20
35.730        40
35.740         7
35.750         0
35.760        27
35.770         0
35.780         0
35.790        20
35.800         7
35.810        27
35.820        33
35.830        33
35.840        20
35.850        20
35.860        53
35.870         7
35.880         0
35.890        67
35.900        20
35.910        13
35.920        20
35.930        20
35.940        13
35.950        13
35.960        20
35.970         7
35.980        27
35.990        13
36.000        20
36.010        20
36.020        13
36.030        40
36.040        33
36.050         7
36.060        20
36.070        33
36.080         7
36.090        33
36.100         7
36.110         7
36.120        20
36.130        20
36.140        13
36.150        27
36.160        20
36.170         0
36.180        20
36.190        13
36.200        20
36.210        20
36.220        27
36.230        20
36.240         7
36.250        20
36.260        33
36.270        20
36.280         0
36.290         7
36.300         7
36.310        27
36.320        20
36.330        13
36.340        13
36.350        13
36.360        13
36.370        20
36.380        13
36.390         7
36.400         7
36.410        13
36.420        60
36.430        27
36.440        33
36.450        13
36.460        20
36.470         7
36.480        13
36.490         7
36.500        27
36.510        20
36.520        20
36.530        20
36.540        20
36.550        13
36.560         0
36.570        33
36.580        40
36.590        27
36.600        13
36.610         0
36.620         7
36.630        20
36.640        27
36.650         7
36.660        27
36.670        20
36.680        33
36.690        13
36.700        40
36.710        53
36.720        13
36.730        27
36.740        13
36.750         7
36.760        47
36.770        20
36.780        20
36.790        33
36.800         7
36.810        20
36.820        20
36.830        33
36.840         7
36.850        13
36.860         7
36.870        13
36.880        27
36.890        27
36.900        13
36.910         7
36.920        20
36.930         7
36.940        13
36.950        20
36.960         7
36.970        20
36.980        13
36.990        27
37.000         0
37.010        20
37.020        27
37.030        20
37.040        13
37.050         0
37.060        20
37.070         7
37.080        20
37.090        27
37.100         7
37.110        33
37.120        20
37.130        13
37.140        20
37.150        33
37.160        27
37.170        13
37.180         7
37.190        33
37.200        40
37.210        13
37.220         7
37.230        33
37.240        13
37.250        27
37.260        13
37.270        13
37.280        20
37.290        53
37.300         0
37.310         7
37.320        13
37.330         7
37.340        13
37.350         7
37.360        27
37.370        20
37.380        13
37.390         7
37.400        13
37.410        20
37.420        20
37.430        33
37.440        27
37.450        13
37.460        20
37.470         7
37.480         7
37.490         0
37.500        13
37.510        13
37.520        27
37.530        40
37.540        33
37.550        20
37.560         7
37.570         7
37.580        13
37.590        47
37.600         7
37.610        13
37.620        20
37.630         0
37.640        20
37.650        20
37.660        20
37.670        20
37.680        33
37.690        20
37.700        40
37.710         7
37.720        33
37.730        20
37.740        27
37.750        20
37.760        27
37.770        33
37.780        27
37.790        33
37.800        27
37.810        27
37.820        20
37.830         7
37.840        13
37.850        20
37.860        20
37.870        33
37.880        13
37.890         0
37.900        20
37.910         7
37.920        27
37.930        13
37.940        20
37.950        13
37.960        27
37.970        40
37.980        13
37.990        53
38.000        27
38.010         7
38.020        13
38.030         7
38.040        20
38.050        27
38.060        27
38.070        27
38.080        13
38.090        53
38.100        13
38.110        27
38.120        27
38.130         7
38.140         0
38.150         7
38.160        13
38.170         7
38.180        27
38.190         7
38.200        13
38.210        13
38.220        13
38.230        33
38.240        20
38.250        13
38.260        33
38.270        27
38.280        13
38.290        13
38.300         0
38.310         7
38.320        20
38.330         0
38.340        20
38.350        27
38.360        13
38.370        33
38.380        40
38.390         7
38.400        20
38.410        33
38.420        33
38.430        27
38.440        27
38.450        27
38.460        13
38.470         7
38.480        20
38.490        20
38.500        27
38.510        13
38.520        20
38.530         7
38.540        20
38.550        13
38.560        40
38.570        27
38.580        13
38.590        20
38.600         7
38.610        20
38.620         7
38.630        13
38.640        13
38.650        20
38.660        27
38.670        20
38.680        33
38.690        33
38.700        27
38.710        33
38.720         0
38.730         7
38.740        33
38.750        13
38.760        27
38.770        20
38.780        13
38.790        27
38.800        20
38.810        20
38.820         7
38.830        13
38.840        33
38.850        20
38.860        20
38.870        20
38.880        27
38.890        27
38.900        20
38.910        20
38.920        27
38.930        20
38.940        27
38.950        27
38.960         7
38.970        27
38.980        13
38.990        33
39.000        13
39.010        40
39.020         7
39.030        27
39.040         7
39.050         7
39.060        33
39.070        40
39.080        13
39.090        20
39.100        27
39.110        13
39.120         7
39.130        13
39.140        20
39.150        13
39.160        27
39.170        13
39.180        20
39.190        40
39.200        33
39.210        13
39.220        20
39.230        13
39.240        13
39.250        27
39.260         7
39.270        40
39.280         0
39.290        13
39.300        27
39.310        20
39.320        27
39.330        20
39.340        27
39.350        40
39.360        20
39.370         7
39.380        33
39.390        20
39.400         0
39.410         7
39.420        20
39.430        33
39.440        20
39.450        20
39.460         0
39.470        27
39.480        13
39.490        13
39.500         0
39.510        20
39.520        13
39.530        13
39.540         7
39.550        53
39.560        13
39.570         7
39.580         7
39.590        47
39.600        33
39.610         7
39.620         7
39.630        20
39.640        40
39.650        33
39.660        20
39.670        27
39.680         0
39.690        20
39.700        20
39.710        20
39.720        13
39.730        20
39.740        13
39.750        13
39.760        13
39.770         7
39.780        20
39.790        13
39.800         7
39.810         7
39.820        13
39.830         7
39.840        27
39.850        20
39.860        13
39.870         0
39.880        33
39.890         7
39.900        20
39.910         7
39.920        20
39.930        27
39.940        33
39.950         7
39.960        20
39.970        27
39.980        20
39.990        20
40.000        20
40.010        13
40.020        20
40.030         0
40.040        53
40.050        13
40.060         7
40.070        13
40.080        27
40.090        40
40.100        27
40.110        13
40.120        33
40.130        27
40.140        13
40.150        33
40.160        20
40.170        40
40.180        13
40.190        40
40.200        27
40.210         7
40.220        33
40.230        40
40.240         7
40.250        13
40.260        13
40.270        27
40.280         7
40.290        27
40.300        40
40.310         7
40.320        33
40.330        13
40.340        13
40.350        27
40.360         0
40.370        13
40.380        27
40.390         0
40.400        27
40.410        20
40.420        20
40.430         7
40.440        47
40.450        20
40.460        27
40.470        27
40.480        27
40.490         7
40.500        13
40.510        20
40.520         0
40.530        27
40.540         7
40.550        20
40.560        27
40.570         7
40.580        33
40.590        27
40.600        20
40.610        33
40.620        33
40.630        13
40.640         7
40.650        40
40.660        20
40.670        13
40.680        27
40.690        20
40.700        20
40.710        20
40.720        33
40.730        13
40.740        13
40.750         0
40.760        27
40.770         0
40.780        20
40.790         7
40.800         7
40.810        20
40.820        33
40.830        20
40.840        13
40.850        40
40.860        27
40.870        13
40.880        27
40.890        27
40.900         7
40.910        20
40.920        13
40.930        13
40.940        33
40.950        13
40.960         7
40.970         7
40.980        27
40.990        13
41.000        20
41.010        13
41.020        13
41.030         7
41.040        13
41.050        20
41.060         7
41.070        33
41.080        40
41.090        27
41.100        27
41.110        13
41.120        27
41.130        33
41.140        13
41.150        13
41.160        13
41.170        20
41.180        40
41.190        20
41.200        33
41.210        20
41.220        20
41.230        27
41.240        13
41.250         7
41.260        40
41.270        40
41.280         7
41.290        40
41.300        20
41.310        13
41.320        13
41.330        20
41.340        27
41.350        20
41.360        13
41.370        33
41.380        27
41.390        20
41.400        27
41.410        33
41.420         7
41.430        20
41.440        33
41.450        20
41.460        13
41.470        20
41.480        20
41.490        27
41.500         7
41.510        33
41.520        27
41.530        40
41.540        20
41.550        20
41.560        40
41.570        20
41.580        20
41.590        20
41.600         7
41.610        20
41.620        20
41.630        20
41.640        27
41.650        20
41.660        20
41.670        27
41.680        47
41.690        13
41.700        13
41.710        40
41.720        33
41.730        53
41.740        20
41.750        40
41.760         7
41.770        13
41.780        13
41.790        33
41.800        27
41.810        20
41.820        27
41.830         7
41.840        47
41.850        27
41.860        53
41.870        20
41.880        33
41.890        27
41.900        13
41.910        27
41.920        33
41.930        20
41.940        27
41.950         7
41.960        27
41.970        20
41.980        33
41.990        27
42.000        20
42.010        53
42.020        27
42.030        33
42.040        13
42.050        27
42.060        20
42.070        13
42.080        27
42.090        20
42.100         0
42.110        40
42.120        27
42.130        13
42.140        27
42.150        27
42.160        27
42.170         7
42.180         7
42.190         7
42.200        20
42.210        27
42.220        13
42.230        27
42.240        13
42.250        27
42.260         0
42.270        20
42.280        27
42.290        33
42.300        13
42.310        27
42.320         7
42.330        20
42.340        47
42.350        20
42.360         7
42.370        27
42.380        27
42.390        40
42.400        13
42.410        27
42.420        47
42.430         7
42.440        20
42.450        40
42.460         7
42.470        13
42.480        60
42.490         7
42.500        27
42.510        13
42.520        20
42.530         7
42.540        33
42.550        27
42.560        20
42.570        20
42.580         0
42.590        47
42.600         0
42.610        27
42.620        47
42.630        20
42.640        27
42.650        20
42.660         7
42.670        20
42.680        13
42.690         0
42.700        13
42.710        20
42.720        13
42.730         7
42.740        33
42.750         0
42.760         7
42.770        40
42.780         7
42.790        20
42.800        27
42.810         7
42.820        20
42.830        33
42.840         7
42.850         7
42.860        27
42.870         7
42.880         7
42.890        27
42.900        13
42.910        33
42.920        27
42.930         7
42.940         7
42.950        20
42.960        13
42.970        33
42.980        20
42.990         7
43.000        27
43.010         7
43.020        27
43.030        20
43.040         7
43.050        33
43.060        33
43.070        40
43.080        13
43.090        27
43.100        13
43.110        20
43.120        27
43.130         7
43.140        27
43.150         7
43.160        27
43.170        13
43.180        33
43.190        13
43.200        13
43.210        27
43.220        20
43.230         7
43.240        27
43.250         7
43.260        13
43.270        27
43.280        40
43.290        27
43.300        13
43.310        40
43.320        13
43.330        13
43.340        40
43.350        13
43.360        33
43.370        13
43.380        27
43.390        20
43.400        27
43.410        13
43.420        20
43.430        13
43.440        33
43.450        27
43.460        27
43.470         0
43.480        33
43.490        27
43.500        13
43.510        27
43.520        27
43.530        13
43.540        20
43.550        13
43.560         7
43.570        33
43.580        20
43.590        20
43.600        33
43.610        20
43.620        27
43.630        47
43.640         7
43.650        27
43.660        13
43.670        40
43.680         0
43.690        27
43.700        13
43.710        27
43.720        20
43.730        20
43.740        27
43.750        20
43.760        27
43.770        33
43.780        20
43.790        33
43.800        27
43.810        13
43.820        27
43.830        13
43.840        13
43.850        27
43.860        20
43.870         0
43.880        13
43.890        27
43.900         7
43.910        13
43.920        13
43.930        13
43.940        13
43.950        20
43.960         7
43.970        20
43.980         7
43.990        20
44.000        20
44.010        13
44.020        20
44.030        20
44.040        13
44.050         0
44.060        20
44.070        13
44.080        13
44.090         0
44.100         7
44.110         7
44.120         7
44.130        20
44.140        13
44.150         7
44.160        20
44.170        27
44.180        33
44.190        20
44.200        13
44.210        40
44.220        40
44.230        27
44.240        27
44.250         0
44.260        13
44.270         7
44.280        47
44.290         7
44.300        33
44.310        73
44.320         0
44.330        27
44.340        20
44.350        13
44.360        27
44.370        20
44.380        20
44.390        33
44.400        13
44.410        53
44.420        20
44.430        13
44.440        47
44.450        20
44.460        13
44.470        13
44.480        33
44.490        27
44.500        13
44.510        13
44.520        13
44.530        13
44.540        13
44.550        33
44.560         7
44.570        13
44.580         7
44.590        27
44.600         7
44.610         7
44.620        27
44.630        13
44.640        13
44.650        20
44.660        27
44.670        27
44.680         7
44.690        27
44.700         7
44.710         7
44.720        20
44.730         7
44.740        33
44.750        13
44.760        13
44.770        20
44.780        40
44.790        13
44.800        13
44.810        27
44.820        13
44.830        27
44.840        20
44.850         0
44.860        27
44.870        13
44.880        40
44.890        33
44.900        33
44.910        13
44.920        40
44.930        20
44.940        27
44.950        20
44.960        40
44.970        13
44.980        13
44.990        13
45.000        47
45.010        27
45.020        13
45.030        27
45.040         7
45.050        40
45.060        13
45.070        13
45.080        13
45.090        13
45.100         0
45.110        27
45.120        40
45.130        20
45.140        33
45.150         0
45.160        27
45.170         7
45.180        13
45.190        60
45.200         7
45.210        13
45.220        20
45.230        20
45.240         0
45.250        20
45.260         7
45.270        13
45.280        13
45.290        27
45.300         7
45.310        20
45.320        20
45.330        13
45.340        20
45.350        33
45.360        40
45.370        13
45.380         7
45.390        20
45.400        13
45.410        27
45.420        13
45.430         7
45.440        40
45.450        33
45.460        13
45.470        33
45.480         7
45.490         7
45.500        13
45.510        33
45.520        27
45.530        27
45.540        27
45.550        40
45.560        20
45.570        27
45.580        13
45.590        53
45.600        13
45.610        13
45.620         7
45.630        40
45.640        20
45.650        27
45.660        33
45.670        27
45.680        27
45.690        33
45.700        27
45.710        27
45.720        13
45.730         7
45.740        27
45.750        27
45.760        33
45.770        40
45.780        60
45.790        33
45.800        13
45.810        33
45.820        20
45.830        27
45.840        47
45.850        47
45.860        13
45.870        60
45.880        27
45.890        20
45.900        27
45.910        53
45.920        33
45.930        67
45.940        47
45.950        73
45.960        27
45.970        47
45.980        33
45.990        53
46.000        53
46.010        33
46.020        47
46.030        40
46.040       100
46.050       113
46.060        67
46.070        80
46.080       100
46.090       107
46.100        93
46.110        67
46.120       107
46.130       153
46.140       173
46.150       160
46.160       207
46.170       140
46.180       240
46.190       220
46.200       227
46.210       313
46.220       353
46.230       293
46.240       307
46.250       320
46.260       293
46.270       420
46.280       413
46.290       413
46.300       320
46.310       407
46.320       373
46.330       466
46.340       486
46.350       413
46.360       353
46.370       313
46.380       300
46.390       340
46.400       313
46.410       333
46.420       207
46.430       373
46.440       313
46.450       220
46.460       213
46.470       213
46.480       207
46.490       253
46.500       140
46.510       167
46.520       107
46.530       120
46.540       167
46.550       127
46.560        93
46.570        80
46.580        53
46.590        80
46.600       100
46.610        33
46.620       100
46.630       107
46.640        40
46.650        87
46.660       120
46.670        80
46.680        80
46.690        87
46.700        60
46.710        93
46.720        87
46.730       100
46.740        47
46.750        60
46.760        33
46.770       100
46.780       100
46.790       100
46.800       147
46.810        87
46.820       153
46.830       113
46.840       153
46.850       153
46.860       133
46.870       133
46.880       147
46.890       100
46.900       147
46.910       113
46.920       167
46.930       153
46.940        93
46.950       127
46.960       113
46.970       153
46.980       113
46.990       140
47.000       107
47.010       153
47.020        87
47.030        93
47.040       133
47.050       100
47.060        67
47.070        80
47.080       107
47.090        53
47.100       120
47.110        87
47.120       107
47.130        27
47.140        73
47.150        73
47.160        60
47.170        33
47.180        67
47.190        40
47.200        67
47.210       113
47.220        47
47.230        53
47.240        47
47.250        47
47.260        47
47.270        27
47.280        47
47.290        40
47.300        27
47.310        13
47.320        13
47.330        27
47.340        47
47.350        33
47.360        53
47.370        33
47.380        20
47.390        27
47.400        40
47.410         7
47.420         7
47.430        33
47.440        47
47.450        27
47.460        27
47.470         0
47.480        13
47.490        13
47.500        27
47.510         0
47.520        33
47.530        20
47.540        20
47.550        33
47.560        40
47.570         0
47.580        20
47.590        13
47.600        33
47.610        13
47.620        33
47.630        33
47.640        40
47.650        20
47.660        33
47.670        20
47.680        13
47.690        53
47.700        40
47.710        40
47.720        33
47.730        27
47.740        13
47.750        33
47.760        33
47.770         7
47.780        27
47.790        27
47.800        13
47.810        40
47.820        40
47.830        13
47.840         7
47.850        27
47.860        33
47.870        13
47.880        13
47.890         7
47.900        33
47.910        27
47.920        20
47.930        53
47.940        20
47.950        33
47.960        20
47.970        20
47.980        33
47.990        27
48.000         7
48.010        13
48.020        27
48.030        40
48.040        33
48.050         7
48.060        20
48.070        40
48.080         7
48.090        27
48.100        40
48.110        13
48.120        20
48.130        20
48.140        20
48.150        27
48.160         0
48.170        13
48.180        20
48.190         7
48.200        13
48.210        20
48.220        40
48.230        20
48.240        27
48.250        33
48.260        47
48.270        27
48.280        27
48.290        20
48.300         7
48.310        13
48.320        20
48.330        13
48.340        13
48.350        27
48.360        27
48.370        33
48.380        27
48.390        33
48.400        13
48.410         7
48.420        20
48.430        33
48.440        40
48.450        33
48.460        20
48.470        20
48.480         7
48.490        33
48.500        20
48.510        13
48.520        13
48.530        20
48.540         7
48.550         7
48.560        27
48.570        20
48.580        27
48.590        33
48.600        33
48.610        47
48.620        13
48.630        33
48.640        13
48.650        20
48.660         7
48.670        13
48.680         7
48.690        20
48.700        20
48.710        13
48.720        13
48.730        13
48.740        13
48.750         7
48.760        20
48.770        20
48.780        47
48.790        13
48.800        27
48.810        13
48.820        20
48.830        33
48.840        27
48.850        33
48.860         7
48.870        13
48.880        20
48.890        13
48.900        20
48.910        27
48.920        20
48.930        13
48.940         7
48.950         0
48.960        13
48.970        47
48.980        13
48.990        20
49.000         7
49.010         7
49.020        20
49.030        20
49.040         7
49.050        27
49.060        20
49.070        20
49.080        13
49.090        13
49.100        33
49.110         7
49.120        27
49.130        20
49.140        13
49.150        20
49.160         7
49.170         7
49.180         0
49.190        13
49.200        20
49.210        13
49.220        13
49.230        33
49.240        13
49.250        20
49.260        20
49.270        33
49.280        20
49.290         7
49.300        33
49.310        27
49.320         0
49.330         0
49.340         7
49.350         7
49.360        27
49.370        40
49.380        13
49.390        33
49.400        20
49.410        20
49.420        53
49.430         7
49.440        20
49.450        20
49.460        27
49.470        20
49.480         7
49.490        13
49.500        40
49.510        20
49.520        13
49.530        20
49.540        33
49.550         7
49.560        20
49.570        20
49.580        13
49.590        27
49.600        33
49.610        20
49.620        27
49.630        40
49.640         7
49.650        13
49.660        27
49.670        20
49.680        20
49.690        33
49.700        13
49.710        20
49.720        33
49.730        13
49.740        60
49.750        33
49.760        33
49.770        13
49.780        13
49.790        40
49.800         7
49.810         7
49.820        60
49.830        20
49.840        20
49.850        20
49.860        60
49.870        20
49.880        40
49.890        27
49.900        47
49.910        33
49.920        27
49.930        33
49.940        13
49.950         7
49.960        60
49.970        27
49.980        40
49.990        20
50.000        27
50.010        27
50.020        40
50.030        47
50.040        20
50.050         7
50.060        20
50.070        27
50.080        47
50.090        27
50.100        47
50.110        20
50.120        27
50.130        13
50.140        33
50.150        27
50.160        13
50.170        20
50.180        13
50.190        33
50.200        27
50.210        13
50.220        40
50.230        20
50.240        40
50.250        20
50.260        47
50.270        13
50.280        47
50.290        20
50.300        33
50.310        40
50.320        27
50.330        20
50.340        47
50.350        20
50.360        20
50.370        20
50.380        13
50.390        20
50.400        40
50.410        33
50.420        20
50.430        27
50.440        27
50.450         7
50.460        20
50.470        47
50.480        33
50.490        20
50.500        33
50.510        47
50.520        20
50.530        47
50.540         7
50.550        13
50.560        20
50.570        13
50.580         0
50.590         7
50.600        20
50.610        27
50.620        20
50.630        33
50.640        40
50.650        20
50.660        20
50.670        27
50.680        20
50.690        20
50.700        60
50.710         7
50.720        27
50.730        20
50.740         0
50.750        47
50.760        20
50.770        20
50.780        27
50.790        20
50.800        40
50.810        13
50.820        13
50.830        20
50.840        13
50.850        27
50.860        47
50.870        13
50.880        40
50.890         7
50.900         7
50.910        13
50.920        27
50.930        33
50.940        20
50.950        27
50.960        33
50.970        33
50.980        33
50.990        20
51.000        27
51.010        40
51.020        13
51.030        13
51.040        33
51.050        40
51.060        20
51.070        20
51.080        33
51.090        40
51.100        20
51.110        33
51.120        40
51.130        27
51.140        53
51.150         7
51.160         7
51.170        20
51.180        27
51.190        33
51.200        47
51.210        27
51.220        47
51.230        47
51.240        47
51.250        13
51.260        53
51.270        33
51.280        27
51.290        53
51.300        33
51.310         7
51.320        27
51.330        40
51.340        27
51.350        53
51.360        40
51.370        40
51.380        27
51.390        27
51.400        40
51.410        53
51.420        53
51.430         7
51.440        47
51.450        20
51.460        27
51.470        40
51.480        40
51.490        27
51.500        20
51.510        33
51.520        20
51.530        20
51.540         7
51.550        40
51.560         7
51.570        20
51.580        20
51.590        27
51.600        53
51.610        13
51.620        33
51.630        20
51.640        13
51.650        33
51.660        47
51.670        47
51.680        20
51.690        40
51.700         7
51.710        53
51.720        27
51.730        27
51.740        47
51.750        60
51.760        47
51.770        47
51.780        20
51.790        20
51.800        27
51.810        27
51.820        33
51.830        60
51.840        73
51.850        13
51.860        27
51.870        60
51.880        47
51.890        53
51.900        53
51.910        47
51.920        20
51.930        53
51.940        60
51.950        60
51.960        27
51.970        40
51.980        33
51.990        47
52.000        47
52.010        73
52.020        33
52.030        33
52.040        20
52.050        87
52.060        60
52.070        73
52.080        73
52.090        40
52.100        60
52.110        67
52.120        53
52.130        60
52.140        53
52.150        33
52.160        73
52.170        20
52.180        47
52.190        60
52.200        20
52.210        33
52.220        33
52.230        47
52.240        67
52.250        13
52.260        67
52.270        40
52.280        53
52.290        53
52.300        67
52.310        33
52.320        73
52.330        27
52.340        47
52.350        67
52.360        53
52.370        87
52.380       113
52.390        80
52.400       100
52.410       107
52.420        73
52.430        93
52.440        80
52.450        73
52.460        87
52.470        60
52.480       107
52.490        93
52.500        80
52.510       113
52.520       140
52.530        73
52.540       113
52.550       180
52.560       133
52.570       133
52.580       173
52.590       200
52.600       160
52.610       160
52.620       180
52.630       133
52.640       147
52.650       120
52.660        93
52.670        87
52.680        73
52.690        60
52.700        67
52.710        80
52.720        80
52.730       113
52.740        53
52.750       120
52.760       133
52.770       107
52.780        47
52.790        33
52.800        53
52.810        87
52.820        73
52.830        60
52.840        47
52.850        40
52.860        27
52.870        47
52.880        47
52.890        60
52.900        60
52.910        47
52.920        67
52.930        47
52.940        47
52.950        33
52.960        27
52.970        80
52.980        33
52.990        33
53.000        33
53.010        47
53.020        33
53.030        67
53.040        47
53.050        27
53.060        27
53.070        40
53.080        13
53.090        47
53.100        40
53.110        33
53.120        27
53.130        40
53.140        53
53.150        40
53.160        47
53.170        27
53.180        20
53.190        33
53.200        53
53.210        20
53.220        27
53.230        40
53.240        47
53.250        40
53.260        20
53.270         0
53.280        20
53.290        20
53.300        13
53.310        47
53.320        53
53.330        40
53.340        40
53.350        27
53.360        13
53.370        53
53.380        27
53.390        40
53.400        33
53.410         7
53.420        53
53.430        40
53.440        13
53.450        33
53.460        40
53.470        20
53.480        20
53.490        27
53.500        27
53.510        67
53.520        53
53.530        13
53.540        27
53.550         7
53.560        20
53.570        13
53.580        20
53.590        20
53.600        53
53.610        20
53.620        27
53.630        20
53.640        40
53.650        53
53.660        33
53.670        33
53.680        27
53.690        40
53.700        27
53.710        27
53.720         7
53.730        13
53.740        20
53.750        20
53.760        20
53.770        13
53.780        20
53.790        20
53.800        13
53.810        53
53.820        27
53.830        13
53.840         7
53.850        40
53.860        47
53.870        27
53.880        13
53.890        27
53.900        13
53.910        40
53.920        20
53.930        20
53.940        40
53.950        20
53.960        27
53.970        40
53.980        27
53.990         7
54.000        13
54.010        13
54.020        40
54.030        47
54.040        13
54.050        33
54.060        33
54.070        13
54.080        13
54.090        13
54.100        20
54.110        33
54.120        13
54.130        33
54.140        27
54.150        20
54.160        13
54.170         7
54.180         7
54.190        20
54.200         7
54.210        20
54.220        20
54.230        27
54.240        27
54.250        13
54.260        27
54.270        13
54.280        20
54.290        13
54.300        33
54.310        20
54.320        13
54.330        40
54.340        20
54.350        33
54.360        40
54.370         7
54.380        20
54.390        13
54.400        33
54.410        33
54.420         7
54.430        27
54.440        20
54.450        40
54.460        13
54.470        13
54.480        13
54.490        13
54.500        20
54.510        20
54.520        20
54.530        27
54.540        27
54.550        13
54.560        20
54.570        13
54.580        33
54.590         7
54.600        27
54.610         7
54.620        33
54.630        40
54.640        20
54.650        20
54.660        13
54.670        20
54.680        20
54.690         7
54.700        27
54.710        40
54.720        20
54.730        13
54.740        20
54.750        20
54.760         7
54.770        47
54.780        27
54.790        13
54.800        13
54.810        33
54.820        20
54.830        13
54.840         7
54.850        47
54.860        33
54.870         7
54.880        13
54.890        20
54.900        20
54.910        20
54.920        13
54.930        13
54.940        33
54.950        13
54.960         7
54.970        20
54.980        20
54.990         7
55.000        27
55.010         0
55.020        33
55.030        20
55.040        20
55.050        27
55.060        20
55.070        13
55.080         7
55.090        40
55.100        33
55.110        33
55.120        27
55.130        20
55.140        20
55.150         0
55.160        47
55.170        20
55.180         0
55.190        13
55.200        13
55.210         0
55.220         7
55.230        20
55.240        20
55.250        20
55.260        13
55.270         7
55.280         7
55.290        40
55.300        20
55.310         7
55.320        13
55.330        20
55.340        40
55.350        27
55.360         7
55.370        20
55.380        20
55.390         7
55.400         7
55.410        13
55.420        13
55.430        40
55.440        20
55.450         7
55.460        13
55.470        13
55.480        27
55.490        20
55.500        20
55.510        27
55.520         7
55.530        20
55.540         0
55.550        33
55.560        13
55.570        27
55.580        20
55.590        13
55.600        27
55.610        20
55.620        33
55.630         7
55.640        27
55.650        27
55.660        13
55.670        13
55.680        33
55.690        13
55.700        20
55.710        20
55.720        27
55.730        13
55.740        13
55.750        27
55.760        53
55.770        27
55.780        13
55.790        40
55.800        27
55.810        13
55.820         7
55.830        27
55.840        27
55.850        13
55.860        13
55.870         7
55.880         7
55.890        20
55.900        20
55.910        27
55.920         0
55.930        27
55.940         7
55.950        27
55.960        27
55.970        27
55.980        20
55.990        33
56.000        40
56.010        20
56.020        40
56.030        13
56.040        20
56.050        27
56.060         7
56.070        27
56.080         7
56.090         7
56.100        13
56.110        27
56.120        20
56.130        47
56.140        33
56.150        27
56.160        40
56.170        27
56.180        47
56.190        20
56.200        20
56.210        20
56.220        27
56.230        20
56.240        27
56.250        40
56.260        33
56.270         0
56.280        33
56.290        13
56.300        13
56.310        33
56.320        27
56.330        13
56.340        33
56.350        20
56.360         7
56.370        33
56.380         7
56.390         7
56.400         7
56.410        27
56.420        20
56.430        13
56.440        27
56.450        40
56.460         0
56.470        33
56.480        33
56.490        33
56.500        20
56.510        27
56.520        13
56.530        20
56.540        13
56.550        33
56.560        13
56.570        27
56.580         7
56.590        13
56.600        27
56.610        13
56.620        13
56.630        13
56.640        13
56.650        27
56.660        20
56.670        20
56.680        20
56.690        13
56.700         7
56.710        13
56.720        20
56.730         7
56.740        20
56.750        13
56.760        20
56.770        13
56.780        13
56.790        13
56.800        13
56.810        40
56.820        20
56.830        13
56.840        20
56.850        27
56.860        13
56.870        13
56.880         0
56.890        13
56.900        20
56.910        20
56.920         7
56.930        20
56.940         7
56.950        20
56.960        27
56.970         7
56.980        33
56.990        27
57.000        27
57.010        20
57.020        20
57.030        20
57.040        20
57.050         0
57.060         7
57.070         7
57.080         7
57.090        60
57.100        13
57.110         7
57.120        20
57.130         7
57.140        33
57.150        13
57.160        33
57.170        27
57.180        47
57.190        20
57.200        13
57.210        20
57.220        20
57.230        27
57.240         7
57.250        27
57.260        13
57.270        27
57.280        40
57.290        20
57.300        27
57.310        20
57.320        33
57.330         7
57.340         7
57.350        47
57.360         7
57.370         7
57.380        20
57.390        33
57.400        13
57.410        13
57.420        33
57.430        40
57.440        33
57.450        40
57.460         0
57.470         7
57.480        20
57.490        27
57.500        33
57.510        27
57.520        27
57.530         7
57.540        33
57.550        33
57.560        33
57.570        33
57.580         0
57.590         7
57.600        13
57.610        33
57.620        33
57.630         7
57.640        20
57.650        13
57.660        13
57.670        13
57.680        27
57.690        13
57.700         0
57.710        40
57.720         7
57.730         0
57.740         7
57.750        47
57.760        27
57.770         7
57.780        33
57.790        47
57.800        27
57.810        33
57.820         7
57.830        20
57.840         0
57.850        27
57.860         7
57.870        27
57.880         7
57.890         7
57.900        13
57.910         7
57.920        33
57.930        33
57.940        20
57.950        13
57.960        20
57.970        20
57.980         7
57.990        13
58.000        13
58.010        13
58.020         7
58.030        27
58.040        33
58.050         0
58.060        13
58.070        27
58.080        13
58.090        27
58.100        13
58.110         7
58.120        33
58.130         7
58.140        13
58.150        13
58.160        33
58.170        47
58.180        20
58.190        13
58.200        47
58.210        13
58.220        13
58.230        40
58.240        20
58.250        33
58.260        33
58.270        13
58.280        13
58.290        20
58.300        20
58.310        33
58.320         7
58.330        27
58.340        20
58.350        33
58.360        20
58.370         7
58.380        20
58.390        47
58.400        13
58.410        13
58.420         7
58.430        27
58.440        20
58.450        20
58.460        27
58.470         7
58.480        33
58.490        47
58.500        20
58.510        20
58.520        27
58.530         0
58.540         7
58.550        40
58.560        20
58.570        27
58.580         7
58.590        33
58.600        27
58.610         7
58.620        20
58.630        13
58.640         7
58.650        13
58.660         7
58.670         0
58.680        13
58.690         7
58.700         7
58.710        13
58.720        20
58.730         7
58.740        13
58.750        20
58.760        27
58.770        13
58.780        20
58.790        33
58.800        40
58.810         7
58.820        20
58.830         7
58.840         7
58.850        13
58.860         7
58.870         7
58.880        20
58.890        27
58.900        13
58.910        13
58.920        13
58.930        13
58.940        13
58.950         7
58.960        13
58.970        20
58.980        20
58.990        20
59.000        13
59.010         0
59.020        13
59.030        13
59.040        13
59.050        47
59.060         7
59.070         0
59.080        13
59.090         7
59.100        13
59.110         7
59.120        13
59.130         0
59.140        20
59.150        20
59.160         0
59.170        13
59.180        13
59.190         0
59.200         7
59.210         7
59.220         7
59.230         0
59.240        40
59.250        13
59.260        13
59.270        20
59.280        33
59.290        13
59.300        20
59.310        20
59.320         7
59.330        13
59.340        20
59.350        13
59.360         0
59.370        20
59.380        20
59.390         7
59.400        13
59.410         0
59.420        27
59.430        20
59.440         0
59.450        13
59.460        27
59.470         7
59.480        20
59.490         0
59.500         7
59.510        20
59.520         7
59.530        20
59.540         0
59.550         7
59.560         0
59.570        20
59.580         0
59.590         7
59.600        13
59.610        20
59.620         0
59.630         7
59.640        13
59.650        13
59.660         7
59.670        20
59.680         7
59.690        20
59.700        13
59.710         7
59.720        20
59.730        13
59.740        27
59.750         0
59.760        13
59.770        20
59.780        20
59.790         0
59.800        13
59.810        20
59.820         7
59.830         7
59.840         7
59.850        20
59.860        27
59.870         7
59.880        20
59.890         7
59.900        13
59.910         7
59.920        27
59.930         7
59.940        20
59.950        13
59.960        27
59.970        13
59.980        13
59.990         7
60.000         7
