20.000         0
20.010         0
20.020         0
20.030         0
20.040        40
20.050        40
20.060        33
20.070        47
20.080        33
20.090        33
20.100       100
20.110        40
20.120        47
20.130        20
20.140        20
20.150        53
20.160        73
20.170        27
20.180        60
20.190        27
20.200        33
20.210        40
20.220        13
20.230        33
20.240        20
20.250        53
20.260        33
20.270        27
20.280        47
20.290        20
20.300        47
20.310        67
20.320        33
20.330        40
20.340        20
20.350        27
20.360        47
20.370        20
20.380        40
20.390        47
20.400        27
20.410        20
20.420        47
20.430        47
20.440        47
20.450        47
20.460        47
20.470        27
20.480        87
20.490        20
20.500        20
20.510        40
20.520        13
20.530        53
20.540        40
20.550        73
20.560        20
20.570        40
20.580        53
20.590        53
20.600        53
20.610        53
20.620        67
20.630        40
20.640        33
20.650        53
20.660        27
20.670        47
20.680        53
20.690        40
20.700        47
20.710        53
20.720        27
20.730        47
20.740        53
20.750        53
20.760        73
20.770        47
20.780        40
20.790        47
20.800        40
20.810        60
20.820        67
20.830        27
20.840        40
20.850        33
20.860        53
20.870        53
20.880        47
20.890        47
20.900        67
20.910        53
20.920        67
20.930        53
20.940        47
20.950        33
20.960        47
20.970        67
20.980        60
20.990        73
21.000        73
21.010        20
21.020        60
21.030        33
21.040        53
21.050        40
21.060        47
21.070        27
21.080        47
21.090        27
21.100        20
21.110        47
21.120        47
21.130        47
21.140        53
21.150         7
21.160        73
21.170        33
21.180        40
21.190        67
21.200        40
21.210        20
21.220        40
21.230        27
21.240        27
21.250        40
21.260        40
21.270        27
21.280        20
21.290        33
21.300        40
21.310        33
21.320        33
21.330        40
21.340        13
21.350        73
21.360        60
21.370        53
21.380        67
21.390        53
21.400        60
21.410        67
21.420        87
21.430        53
21.440        27
21.450        47
21.460        27
21.470        33
21.480        20
21.490        13
21.500        47
21.510        53
21.520        80
21.530        67
21.540        53
21.550        27
21.560        40
21.570        67
21.580        13
21.590        53
21.600        47
21.610        73
21.620        53
21.630        27
21.640        47
21.650        53
21.660        33
21.670        40
21.680        33
21.690        40
21.700        40
21.710        47
21.720        27
21.730        20
21.740        53
21.750        47
21.760        27
21.770        67
21.780        73
21.790         7
21.800        33
21.810        40
21.820        53
21.830        33
21.840        27
21.850        13
21.860        27
21.870        53
21.880        47
21.890        40
21.900        13
21.910        27
21.920        13
21.930        53
21.940         7
21.950        53
21.960        67
21.970        33
21.980         7
21.990        33
22.000        53
22.010        40
22.020        47
22.030        40
22.040         7
22.050        40
22.060        53
22.070        27
22.080        53
22.090        40
22.100        53
22.110        33
22.120        13
22.130        53
22.140        33
22.150        27
22.160        33
22.170        47
22.180        73
22.190        47
22.200        60
22.210        27
22.220        33
22.230        73
22.240        27
22.250        33
22.260        40
22.270        27
22.280        67
22.290        60
22.300        33
22.310        47
22.320        53
22.330        47
22.340        80
22.350        40
22.360        27
22.370        40
22.380        60
22.390        47
22.400        80
22.410        27
22.420        53
22.430        47
22.440        33
22.450        47
22.460        33
22.470        60
22.480        47
22.490        47
22.500        53
22.510        33
22.520        33
22.530        40
22.540        67
22.550        53
22.560        40
22.570        33
22.580        60
22.590        27
22.600        27
22.610        40
22.620        67
22.630        40
22.640        40
22.650        40
22.660        33
22.670        33
22.680        40
22.690        33
22.700        60
22.710        27
22.720        40
22.730        27
22.740        47
22.750        20
22.760        33
22.770        47
22.780        40
22.790        53
22.800        40
22.810        33
22.820        40
22.830        60
22.840        13
22.850        13
22.860        40
22.870        27
22.880        33
22.890        20
22.900        60
22.910        80
22.920        60
22.930        20
22.940        73
22.950        53
22.960        47
22.970        47
22.980        33
22.990        40
23.000        40
23.010        40
23.020        33
23.030        40
23.040        27
23.050        47
23.060        20
23.070        40
23.080        27
23.090        40
23.100        20
23.110        47
23.120        40
23.130        27
23.140        27
23.150        40
23.160        33
23.170        40
23.180         7
23.190        33
23.200        27
23.210        20
23.220        53
23.230        53
23.240        47
23.250        40
23.260        47
23.270        27
23.280        27
23.290        60
23.300        47
23.310        40
23.320        60
23.330        47
23.340        13
23.350        73
23.360        13
23.370        60
23.380        33
23.390        47
23.400        47
23.410        53
23.420        27
23.430        27
23.440        33
23.450        33
23.460        33
23.470        33
23.480         7
23.490        40
23.500        47
23.510        27
23.520        33
23.530        47
23.540        40
23.550        40
23.560        53
23.570        53
23.580        33
23.590        27
23.600        33
23.610        27
23.620        20
23.630        20
23.640        20
23.650        40
23.660        27
23.670        40
23.680        33
23.690        27
23.700        33
23.710        20
23.720        47
23.730        40
23.740        40
23.750        40
23.760        67
23.770        27
23.780        60
23.790        20
23.800        40
23.810        67
23.820        73
23.830        47
23.840        87
23.850        27
23.860        53
23.870        40
23.880        47
23.890        20
23.900         7
23.910        20
23.920        27
23.930        27
23.940        40
23.950        20
23.960        20
23.970        47
23.980        20
23.990        40
24.000        27
24.010        33
24.020         7
24.030        40
24.040        20
24.050        33
24.060       207
24.070        27
24.080        33
24.090        27
24.100        20
24.110        40
24.120        40
24.130        20
24.140        20
24.150        33
24.160         0
24.170        60
24.180        73
24.190        40
24.200        33
24.210        20
24.220        53
24.230        27
24.240        40
24.250        53
24.260        47
24.270        33
24.280        13
24.290        40
24.300        13
24.310        27
24.320        60
24.330        33
24.340        33
24.350        40
24.360        27
24.370        13
24.380        13
24.390        20
24.400        47
24.410        40
24.420        13
24.430        27
24.440        33
24.450        47
24.460        20
24.470        40
24.480        47
24.490        27
24.500         7
24.510        27
24.520        27
24.530        33
24.540        33
24.550         7
24.560        27
24.570        27
24.580        47
24.590        33
24.600        13
24.610        40
24.620        40
24.630         7
24.640        33
24.650        20
24.660        13
24.670        27
24.680        47
24.690        33
24.700        40
24.710         0
24.720        40
24.730         7
24.740        47
24.750        67
24.760        13
24.770        27
24.780        60
24.790        53
24.800        13
24.810        13
24.820        47
24.830        33
24.840        47
24.850        27
24.860        20
24.870        47
24.880        33
24.890         7
24.900        27
24.910        47
24.920        60
24.930        53
24.940        20
24.950        47
24.960        27
24.970        13
24.980        27
24.990        47
25.000        47
25.010        33
25.020        67
25.030        20
25.040        40
25.050        53
25.060        33
25.070        53
25.080        33
25.090        40
25.100        33
25.110        33
25.120        33
25.130        27
25.140        27
25.150        53
25.160        20
25.170        47
25.180        27
25.190        40
25.200        33
25.210        53
25.220        20
25.230         0
25.240        53
25.250        27
25.260        40
25.270        47
25.280        47
25.290        40
25.300        47
25.310        27
25.320        47
25.330        47
25.340        73
25.350        47
25.360        53
25.370        87
25.380        67
25.390        33
25.400        47
25.410        67
25.420        47
25.430        27
25.440        13
25.450         7
25.460        33
25.470        27
25.480        47
25.490        40
25.500        53
25.510        27
25.520        87
25.530        60
25.540        27
25.550        73
25.560        67
25.570        27
25.580        27
25.590        80
25.600        93
25.610        47
25.620        67
25.630        53
25.640        93
25.650        40
25.660        47
25.670        53
25.680        67
25.690        67
25.700        87
25.710        33
25.720        40
25.730        13
25.740        47
25.750        47
25.760        13
25.770        47
25.780        20
25.790        40
25.800        20
25.810        33
25.820        33
25.830        40
25.840        20
25.850        27
25.860        27
25.870        20
25.880        33
25.890        47
25.900        67
25.910        53
25.920        33
25.930        13
25.940        20
25.950        33
25.960        47
25.970        13
25.980        33
25.990        47
26.000        13
26.010        47
26.020        33
26.030        27
26.040        47
26.050        20
26.060        40
26.070        33
26.080        20
26.090        27
26.100        60
26.110        67
26.120        27
26.130        13
26.140        33
26.150        27
26.160        20
26.170        13
26.180        53
26.190        33
26.200        47
26.210        47
26.220        27
26.230        53
26.240         7
26.250        40
26.260        27
26.270        67
26.280        40
26.290        47
26.300        33
26.310        33
26.320        33
26.330        47
26.340        20
26.350        33
26.360        47
26.370        40
26.380        20
26.390        13
26.400        40
26.410        33
26.420        20
26.430        47
26.440        27
26.450        40
26.460        47
26.470        40
26.480        13
26.490        13
26.500        40
26.510        20
26.520        33
26.530        20
26.540        13
26.550        40
26.560        53
26.570        40
26.580        40
26.590        33
26.600        13
26.610        47
26.620        27
26.630         7
26.640        13
26.650        33
26.660        33
26.670        47
26.680        20
26.690        20
26.700        13
26.710        33
26.720        13
26.730        47
26.740        33
26.750        53
26.760        40
26.770         7
26.780        60
26.790        27
26.800        33
26.810         7
26.820        13
26.830        73
26.840        47
26.850        20
26.860        13
26.870        53
26.880        47
26.890        20
26.900        47
26.910        20
26.920        20
26.930        53
26.940        60
26.950        13
26.960        20
26.970        27
26.980        20
26.990        60
27.000        13
27.010        27
27.020        33
27.030        20
27.040        20
27.050        33
27.060        60
27.070        13
27.080        27
27.090        40
27.100        13
27.110        27
27.120        47
27.130        87
27.140        20
27.150        13
27.160        40
27.170        47
27.180        60
27.190        20
27.200        20
27.210        27
27.220        27
27.230        33
27.240        40
27.250        33
27.260        47
27.270        33
27.280        20
27.290        40
27.300        13
27.310        67
27.320        33
27.330        33
27.340        67
27.350        47
27.360        40
27.370        27
27.380        13
27.390        27
27.400        27
27.410        53
27.420        47
27.430        13
27.440        40
27.450        40
27.460        60
27.470        40
27.480        33
27.490        33
27.500        13
27.510        13
27.520        27
27.530        27
27.540        53
27.550        13
27.560        27
27.570        47
27.580        13
27.590        40
27.600         7
27.610        27
27.620        27
27.630        33
27.640        13
27.650        47
27.660        47
27.670        20
27.680         7
27.690        40
27.700        27
27.710        40
27.720        27
27.730        33
27.740         7
27.750        60
27.760        20
27.770        33
27.780        53
27.790        13
27.800        60
27.810        40
27.820        40
27.830        33
27.840        27
27.850        33
27.860        27
27.870         7
27.880        20
27.890        47
27.900        47
27.910        20
27.920        27
27.930        20
27.940        67
27.950        40
27.960        40
27.970        33
27.980        40
27.990        33
28.000        27
28.010        27
28.020        20
28.030        60
28.040        40
28.050        40
28.060        60
28.070        47
28.080        33
28.090        27
28.100        33
28.110        20
28.120        27
28.130        53
28.140        20
28.150        53
28.160        40
28.170        20
28.180        20
28.190        27
28.200        47
28.210        33
28.220        27
28.230        27
28.240        27
28.250        73
28.260        60
28.270        47
28.280        60
28.290        73
28.300        47
28.310        27
28.320        53
28.330        40
28.340        20
28.350        20
28.360        53
28.370        40
28.380        33
28.390        13
28.400        27
28.410        33
28.420        27
28.430        33
28.440        27
28.450        47
28.460        33
28.470        33
28.480        27
28.490        40
28.500        27
28.510        47
28.520        27
28.530        47
28.540        27
28.550        27
28.560        27
28.570        73
28.580        27
28.590        33
28.600        33
28.610        53
28.620        27
28.630        47
28.640        53
28.650        73
28.660        47
28.670        40
28.680        93
28.690        60
28.700        40
28.710        53
28.720        20
28.730        67
28.740        87
28.750        80
28.760        87
28.770        67
28.780       127
28.790        80
28.800        33
28.810       100
28.820        87
28.830       160
28.840        87
28.850       127
28.860       167
28.870       147
28.880       147
28.890       127
28.900       180
28.910       120
28.920       187
28.930       147
28.940       173
28.950       187
28.960       140
28.970       193
28.980       227
28.990       153
29.000       207
29.010       180
29.020       173
29.030       127
29.040       147
29.050       167
29.060       140
29.070       133
29.080       193
29.090       120
29.100        87
29.110       120
29.120        87
29.130        73
29.140       120
29.150        93
29.160       100
29.170        67
29.180        60
29.190        73
29.200       120
29.210        67
29.220        73
29.230        80
29.240        67
29.250        47
29.260        40
29.270        60
29.280        47
29.290        47
29.300        53
29.310        40
29.320        47
29.330        60
29.340        60
29.350        53
29.360        40
29.370        40
29.380        20
29.390        20
29.400        13
29.410        47
29.420        47
29.430        20
29.440        67
29.450        27
29.460        27
29.470         7
29.480        27
29.490        40
29.500        20
29.510        40
29.520        47
29.530        20
29.540        13
29.550        47
29.560        47
29.570        47
29.580        60
29.590        67
29.600        20
29.610        20
29.620        40
29.630        47
29.640        27
29.650        33
29.660        20
29.670        27
29.680        33
29.690        53
29.700        40
29.710        27
29.720        40
29.730        67
29.740        27
29.750        27
29.760        87
29.770        40
29.780        47
29.790        40
29.800        33
29.810        20
29.820        53
29.830        47
29.840        33
29.850        33
29.860        20
29.870        33
29.880        20
29.890        27
29.900        40
29.910        27
29.920        33
29.930        20
29.940        40
29.950        27
29.960        40
29.970        40
29.980        40
29.990        20
30.000        27
30.010         7
30.020        40
30.030        33
30.040        53
30.050        60
30.060        40
30.070        27
30.080        27
30.090        27
30.100        40
30.110        40
30.120        67
30.130        27
30.140        33
30.150        53
30.160        93
30.170        20
30.180        13
30.190        60
30.200        40
30.210        33
30.220        40
30.230        20
30.240        33
30.250         7
30.260        33
30.270        40
30.280        47
30.290        40
30.300        27
30.310        27
30.320        20
30.330        53
30.340        33
30.350        27
30.360        27
30.370        33
30.380        27
30.390        47
30.400        40
30.410        33
30.420        53
30.430        33
30.440        33
30.450        33
30.460         7
30.470        27
30.480        40
30.490        60
30.500        20
30.510        20
30.520        40
30.530        20
30.540        20
30.550        53
30.560        67
30.570        13
30.580        47
30.590        40
30.600        40
30.610        13
30.620        40
30.630        40
30.640        53
30.650        40
30.660        27
30.670        40
30.680        47
30.690        53
30.700         0
30.710        33
30.720        33
30.730        33
30.740        13
30.750        20
30.760        20
30.770        33
30.780        13
30.790        33
30.800        20
30.810        33
30.820        20
30.830        27
30.840        20
30.850        33
30.860        27
30.870        20
30.880        33
30.890        47
30.900        53
30.910        53
30.920        40
30.930        53
30.940        13
30.950        47
30.960        40
30.970        47
30.980        67
30.990        47
31.000        40
31.010        73
31.020        27
31.030        87
31.040        33
31.050        67
31.060        40
31.070        73
31.080       113
31.090        87
31.100        67
31.110        60
31.120       100
31.130        53
31.140        67
31.150        73
31.160        87
31.170        67
31.180        93
31.190       113
31.200       107
31.210       100
31.220       140
31.230       133
31.240       120
31.250        73
31.260       113
31.270       133
31.280       113
31.290        80
31.300       120
31.310        67
31.320        80
31.330        87
31.340        87
31.350       167
31.360       133
31.370        47
31.380        80
31.390        87
31.400        73
31.410        60
31.420        53
31.430        60
31.440        67
31.450        73
31.460        60
31.470        93
31.480        87
31.490        73
31.500        40
31.510        67
31.520        40
31.530        67
31.540        33
31.550        47
31.560        53
31.570        27
31.580        53
31.590        20
31.600        47
31.610        47
31.620        73
31.630        47
31.640        47
31.650        53
31.660        33
31.670        53
31.680        87
31.690        20
31.700        40
31.710        47
31.720        40
31.730        20
31.740        53
31.750         7
31.760         7
31.770        27
31.780        20
31.790        20
31.800        13
31.810        13
31.820        20
31.830        67
31.840        33
31.850        40
31.860        27
31.870        33
31.880        13
31.890        20
31.900        13
31.910        40
31.920        40
31.930        47
31.940        20
31.950        33
31.960        40
31.970        40
31.980        20
31.990        27
32.000        47
32.010        33
32.020         7
32.030        33
32.040        67
32.050         0
32.060        20
32.070        33
32.080        20
32.090        47
32.100        33
32.110        20
32.120        47
32.130        60
32.140        20
32.150        27
32.160        47
32.170        47
32.180        27
32.190        33
32.200        53
32.210        33
32.220        20
32.230        20
32.240        33
32.250        20
32.260        33
32.270        87
32.280        47
32.290        53
32.300        13
32.310        47
32.320        40
32.330        27
32.340        27
32.350        40
32.360        60
32.370        40
32.380        53
32.390        20
32.400        67
32.410        27
32.420         0
32.430        73
32.440        20
32.450         7
32.460        67
32.470        67
32.480        47
32.490        33
32.500        33
32.510        33
32.520        33
32.530        33
32.540        27
32.550        20
32.560        27
32.570        60
32.580        33
32.590        40
32.600        67
32.610        93
32.620        40
32.630        73
32.640        53
32.650        87
32.660        80
32.670        60
32.680        60
32.690        47
32.700        33
32.710        80
32.720        60
32.730        47
32.740        53
32.750        47
32.760        40
32.770        40
32.780        60
32.790        60
32.800        53
32.810        53
32.820        47
32.830        47
32.840        27
32.850        27
32.860        40
32.870        20
32.880        67
32.890        27
32.900        13
32.910        27
32.920        13
32.930        40
32.940        47
32.950        73
32.960        27
32.970        27
32.980        27
32.990        27
33.000        27
33.010        33
33.020        53
33.030        13
33.040        33
33.050        33
33.060        20
33.070        33
33.080        33
33.090        27
33.100        27
33.110        20
33.120         7
33.130        27
33.140        40
33.150        20
33.160        27
33.170        33
33.180        33
33.190        20
33.200        13
33.210         0
33.220        33
33.230        33
33.240        20
33.250        20
33.260        33
33.270        33
33.280        47
33.290        20
33.300        47
33.310        13
33.320        40
33.330        60
33.340         0
33.350        20
33.360        53
33.370        20
33.380        13
33.390        33
33.400        40
33.410        33
33.420         7
33.430        47
33.440        13
33.450        20
33.460        20
33.470         7
33.480        20
33.490        20
33.500        40
33.510        27
33.520        13
33.530        13
33.540        27
33.550        53
33.560        20
33.570        33
33.580        27
33.590         0
33.600        33
33.610        27
33.620        53
33.630        27
33.640        27
33.650        67
33.660        33
33.670        40
33.680        20
33.690        20
33.700        40
33.710        20
33.720        40
33.730         7
33.740        40
33.750        20
33.760        20
33.770        13
33.780        33
33.790        20
33.800        20
33.810        13
33.820        33
33.830        27
33.840        33
33.850        27
33.860         7
33.870        27
33.880        13
33.890         7
33.900        20
33.910        33
33.920         7
33.930        40
33.940        27
33.950        27
33.960        33
33.970        33
33.980        27
33.990        47
34.000        27
34.010        47
34.020        20
34.030        27
34.040         7
34.050        40
34.060        20
34.070        40
34.080        27
34.090        20
34.100        20
34.110        27
34.120        27
34.130        27
34.140         7
34.150        27
34.160         0
34.170        20
34.180        27
34.190        47
34.200        13
34.210        47
34.220        40
34.230        13
34.240        20
34.250        20
34.260        47
34.270        40
34.280        33
34.290        20
34.300        20
34.310        33
34.320        33
34.330        33
34.340        33
34.350        27
34.360        33
34.370        20
34.380        27
34.390        13
34.400        53
34.410        20
34.420        33
34.430        33
34.440        13
34.450        33
34.460         7
34.470        33
34.480        27
34.490        27
34.500        13
34.510        20
34.520        27
34.530        27
34.540        40
34.550        33
34.560        47
34.570        93
34.580        13
34.590        53
34.600        60
34.610        33
34.620        33
34.630        20
34.640        33
34.650        33
34.660        33
34.670        27
34.680        20
34.690        40
34.700        20
34.710        27
34.720        27
34.730        73
34.740        40
34.750        47
34.760         7
34.770         7
34.780        33
34.790        40
34.800        47
34.810        20
34.820        13
34.830         7
34.840        27
34.850        27
34.860        53
34.870        33
34.880        13
34.890        33
34.900        20
34.910        27
34.920        20
34.930        47
34.940        33
34.950        40
34.960        20
34.970        60
34.980        40
34.990        67
35.000        27
35.010        60
35.020        60
35.030        27
35.040        53
35.050       100
35.060        87
35.070        73
35.080        80
35.090       107
35.100       100
35.110       160
35.120       160
35.130       173
35.140       333
35.150       313
35.160       440
35.170       613
35.180       626
35.190       520
35.200       493
35.210       347
35.220       373
35.230       333
35.240       213
35.250       220
35.260       407
35.270       240
35.280       273
35.290       227
35.300       200
35.310       140
35.320       113
35.330       120
35.340        60
35.350        47
35.360        27
35.370        47
35.380        33
35.390        47
35.400        73
35.410        20
35.420        20
35.430        33
35.440        40
35.450        20
35.460        47
35.470        20
35.480        47
35.490        33
35.500        47
35.510        33
35.520        13
35.530        27
35.540        27
35.550        13
35.560        27
35.570        13
35.580        20
35.590        53
35.600        27
35.610        60
35.620        33
35.630        13
35.640         0
35.650        20
35.660        53
35.670         7
35.680        53
35.690         7
35.700        40
35.710        27
35.720        60
35.730        20
35.740        53
35.750        27
35.760        27
35.770        13
35.780        27
35.790        40
35.800        20
35.810        40
35.820        20
35.830        13
35.840        33
35.850        20
35.860        27
35.870        20
35.880         7
35.890        20
35.900         7
35.910        20
35.920        20
35.930         7
35.940        13
35.950        27
35.960        40
35.970        40
35.980        40
35.990        13
36.000        33
36.010        13
36.020        33
36.030        13
36.040        20
36.050        13
36.060        33
36.070        27
36.080        33
36.090        20
36.100        20
36.110        13
36.120         7
36.130        27
36.140        20
36.150         7
36.160        20
36.170        20
36.180        20
36.190        33
36.200        67
36.210        20
36.220        27
36.230        20
36.240        33
36.250        27
36.260        47
36.270        27
36.280        33
36.290         7
36.300        13
36.310        53
36.320        47
36.330        20
36.340        27
36.350        13
36.360        27
36.370        27
36.380        33
36.390        40
36.400        27
36.410        20
36.420        20
36.430        13
36.440        33
36.450         7
36.460        40
36.470        40
36.480        27
36.490        53
36.500         7
36.510        13
36.520        27
36.530        53
36.540         7
36.550        13
36.560        33
36.570        33
36.580        20
36.590        27
36.600        27
36.610        60
36.620        33
36.630        20
36.640        33
36.650         7
36.660        20
36.670        27
36.680        27
36.690        27
36.700         0
36.710        13
36.720        13
36.730        27
36.740        27
36.750        47
36.760        27
36.770        60
36.780        13
36.790        20
36.800        20
36.810        13
36.820        20
36.830        27
36.840        53
36.850         0
36.860        33
36.870        27
36.880        33
36.890        40
36.900        27
36.910        13
36.920        27
36.930        47
36.940        33
36.950        40
36.960        33
36.970        40
36.980        13
36.990        33
37.000        47
37.010        27
37.020        33
37.030        53
37.040        67
37.050        60
37.060        27
37.070        40
37.080         7
37.090        33
37.100         7
37.110        27
37.120        40
37.130        40
37.140        33
37.150        40
37.160        27
37.170        13
37.180        20
37.190        20
37.200        33
37.210        27
37.220        20
37.230         7
37.240        33
37.250        33
37.260        27
37.270        20
37.280        13
37.290        40
37.300        13
37.310        40
37.320        40
37.330        47
37.340        47
37.350        27
37.360        27
37.370         7
37.380        40
37.390        33
37.400        27
37.410        20
37.420        33
37.430        20
37.440        20
37.450        47
37.460        13
37.470        13
37.480        33
37.490        47
37.500        27
37.510        67
37.520        13
37.530        40
37.540        40
37.550        27
37.560        27
37.570        20
37.580        13
37.590        27
37.600        20
37.610        47
37.620        33
37.630        40
37.640        33
37.650        40
37.660        20
37.670        20
37.680        47
37.690        33
37.700        47
37.710        20
37.720        33
37.730         7
37.740        27
37.750        40
37.760        27
37.770        33
37.780        40
37.790        20
37.800        27
37.810        73
37.820        20
37.830        33
37.840        53
37.850        27
37.860        20
37.870        67
37.880        40
37.890        40
37.900        60
37.910        47
37.920        27
37.930        13
37.940        33
37.950        13
37.960        73
37.970        40
37.980         0
37.990        47
38.000        33
38.010        20
38.020        20
38.030         7
38.040        20
38.050        33
38.060        13
38.070        20
38.080        13
38.090        20
38.100         0
38.110        27
38.120        27
38.130        27
38.140        33
38.150        20
38.160        27
38.170         7
38.180        53
38.190         7
38.200        27
38.210        13
38.220        13
38.230        20
38.240        33
38.250        33
38.260         0
38.270        33
38.280        13
38.290        33
38.300         7
38.310        13
38.320        33
38.330        27
38.340        27
38.350        33
38.360        13
38.370        13
38.380        13
38.390        33
38.400        20
38.410        33
38.420        40
38.430        47
38.440        20
38.450        13
38.460        33
38.470        33
38.480        13
38.490         7
38.500         0
38.510        27
38.520         7
38.530        27
38.540        20
38.550        27
38.560        20
38.570        27
38.580         7
38.590        13
38.600        13
38.610        27
38.620        27
38.630        13
38.640        47
38.650        20
38.660        27
38.670        40
38.680        13
38.690        13
38.700        20
38.710        27
38.720        20
38.730        20
38.740        20
38.750        20
38.760        20
38.770        33
38.780        13
38.790        47
38.800         7
38.810        33
38.820        20
38.830         0
38.840        47
38.850        20
38.860        20
38.870        53
38.880        27
38.890        53
38.900        27
38.910        20
38.920        40
38.930        13
38.940        53
38.950        60
38.960        13
38.970        33
38.980        27
38.990        33
39.000        13
39.010        60
39.020        33
39.030        13
39.040        27
39.050        33
39.060        33
39.070        27
39.080        20
39.090        13
39.100         0
39.110        20
39.120        47
39.130        20
39.140        33
39.150        53
39.160        47
39.170        20
39.180        33
39.190        33
39.200        27
39.210        20
39.220         7
39.230         0
39.240        27
39.250        20
39.260        33
39.270        33
39.280         7
39.290        40
39.300        13
39.310        13
39.320         7
39.330        67
39.340        33
39.350        20
39.360        13
39.370        13
39.380        13
39.390        27
39.400        40
39.410        20
39.420        27
39.430        27
39.440        33
39.450        33
39.460        27
39.470        27
39.480        27
39.490        20
39.500        33
39.510        27
39.520        27
39.530        33
39.540        40
39.550        27
39.560        20
39.570         7
39.580         0
39.590         0
39.600        20
39.610        27
39.620        40
39.630        40
39.640         0
39.650        27
39.660        13
39.670         7
39.680        13
39.690         7
39.700        13
39.710        53
39.720         7
39.730        33
39.740        13
39.750        27
39.760        20
39.770         7
39.780        33
39.790        27
39.800         0
39.810         7
39.820        33
39.830        27
39.840        13
39.850        13
39.860        13
39.870        13
39.880        40
39.890        27
39.900        27
39.910        60
39.920        53
39.930        40
39.940        13
39.950        13
39.960        40
39.970        27
39.980        20
39.990        20
40.000         7
40.010        13
40.020        20
40.030        47
40.040        13
40.050        67
40.060        33
40.070        53
40.080        53
40.090        47
40.100        27
40.110        13
40.120        40
40.130        40
40.140        27
40.150        13
40.160        80
40.170        27
40.180        20
40.190        67
40.200        27
40.210        33
40.220        60
40.230        27
40.240         7
40.250        33
40.260        20
40.270        33
40.280        27
40.290         7
40.300        13
40.310        40
40.320         7
40.330        13
40.340        20
40.350        27
40.360        60
40.370        53
40.380        20
40.390        13
40.400        33
40.410        33
40.420        13
40.430        27
40.440        27
40.450        20
40.460        33
40.470        33
40.480        20
40.490        13
40.500        20
40.510        20
40.520        47
40.530        13
40.540        40
40.550        27
40.560        20
40.570        20
40.580        27
40.590        27
40.600        13
40.610        87
40.620        27
40.630        20
40.640        47
40.650        27
40.660        27
40.670        13
40.680        53
40.690        27
40.700        13
40.710        47
40.720        27
40.730         0
40.740        40
40.750        33
40.760        13
40.770        27
40.780        20
40.790         0
40.800        33
40.810        20
40.820        27
40.830        40
40.840        27
40.850        20
40.860        33
40.870        40
40.880        13
40.890        33
40.900        13
40.910        33
40.920        27
40.930        13
40.940        27
40.950        20
40.960        20
40.970        33
40.980        20
40.990         7
41.000        47
41.010         0
41.020        27
41.030        40
41.040        20
41.050        13
41.060         7
41.070        27
41.080         0
41.090        40
41.100        20
41.110        47
41.120        33
41.130        13
41.140        13
41.150         7
41.160        13
41.170         7
41.180        13
41.190        20
41.200        20
41.210        13
41.220        47
41.230        20
41.240        20
41.250        20
41.260        40
41.270        13
41.280        20
41.290        40
41.300        20
41.310        47
41.320        33
41.330        13
41.340        33
41.350        33
41.360        13
41.370        27
41.380        27
41.390        60
41.400        20
41.410        47
41.420         7
41.430        20
41.440        27
41.450        13
41.460        40
41.470        47
41.480        33
41.490         7
41.500         7
41.510        13
41.520        13
41.530        47
41.540        40
41.550        53
41.560        47
41.570        27
41.580        47
41.590        67
41.600        93
41.610        67
41.620        93
41.630        80
41.640       113
41.650       127
41.660       187
41.670       147
41.680       187
41.690       253
41.700       240
41.710       240
41.720       273
41.730       200
41.740       147
41.750       140
41.760       133
41.770       127
41.780       127
41.790       147
41.800       147
41.810       133
41.820       120
41.830       127
41.840        93
41.850       120
41.860        47
41.870        87
41.880        67
41.890        60
41.900        40
41.910        20
41.920        47
41.930        20
41.940        60
41.950        40
41.960        40
41.970        13
41.980        33
41.990        47
42.000        33
42.010        47
42.020        40
42.030        13
42.040        40
42.050        13
42.060        47
42.070        20
42.080        13
42.090        13
42.100         7
42.110        27
42.120        27
42.130        60
42.140        20
42.150        40
42.160        20
42.170        13
42.180        27
42.190        33
42.200         0
42.210        20
42.220        53
42.230        27
42.240        40
42.250        20
42.260        47
42.270        27
42.280        27
42.290        20
42.300        20
42.310        13
42.320        20
42.330         7
42.340        20
42.350        27
42.360         0
42.370        40
42.380        33
42.390        27
42.400        33
42.410        33
42.420        20
42.430         7
42.440        53
42.450        27
42.460        20
42.470        20
42.480        27
42.490        20
42.500         7
42.510        27
42.520        20
42.530        20
42.540        40
42.550        33
42.560        40
42.570        40
42.580        27
42.590        27
42.600        27
42.610         7
42.620        20
42.630        20
42.640        27
42.650        60
42.660        20
42.670        47
42.680        20
42.690         7
42.700        67
42.710        40
42.720        20
42.730        40
42.740        20
42.750        27
42.760        60
42.770        40
42.780        53
42.790        27
42.800        33
42.810        20
42.820        33
42.830        20
42.840        27
42.850        47
42.860        27
42.870        33
42.880        13
42.890        20
42.900        20
42.910        40
42.920        40
42.930        27
42.940        20
42.950        13
42.960        33
42.970        47
42.980        60
42.990        33
43.000        27
43.010        20
43.020        27
43.030        20
43.040        13
43.050        13
43.060         7
43.070         7
43.080        20
43.090         7
43.100        47
43.110        33
43.120        27
43.130        27
43.140         7
43.150        13
43.160        40
43.170        20
43.180        13
43.190        27
43.200        40
43.210        27
43.220        13
43.230        40
43.240        27
43.250        40
43.260        33
43.270        53
43.280        67
43.290        47
43.300        73
43.310       100
43.320       127
43.330       100
43.340       167
43.350       220
43.360       173
43.370       140
43.380       167
43.390       153
43.400       147
43.410        67
43.420       140
43.430        73
43.440       127
43.450       200
43.460       113
43.470       120
43.480       153
43.490       140
43.500        80
43.510        60
43.520       120
43.530        87
43.540        27
43.550        27
43.560        20
43.570        20
43.580        27
43.590        13
43.600        13
43.610        13
43.620        40
43.630        27
43.640        40
43.650        27
43.660        20
43.670        20
43.680        20
43.690         7
43.700        13
43.710        33
43.720        20
43.730        20
43.740         7
43.750         7
43.760        13
43.770        13
43.780        33
43.790         7
43.800        53
43.810         7
43.820        20
43.830        13
43.840         7
43.850        47
43.860        33
43.870        13
43.880        13
43.890        27
43.900        40
43.910        27
43.920         7
43.930        27
43.940        40
43.950        13
43.960        27
43.970        27
43.980        13
43.990        13
44.000        20
44.010        33
44.020        20
44.030        13
44.040        33
44.050        13
44.060        33
44.070        40
44.080        13
44.090        33
44.100        13
44.110        40
44.120        20
44.130        27
44.140        13
44.150        27
44.160        47
44.170        20
44.180        20
44.190        20
44.200         7
44.210        53
44.220         0
44.230        40
44.240         7
44.250         0
44.260        27
44.270        13
44.280        13
44.290        20
44.300        40
44.310        20
44.320        40
44.330        33
44.340        20
44.350        27
44.360         7
44.370        33
44.380         0
44.390        13
44.400         7
44.410        27
44.420        60
44.430        13
44.440         7
44.450        40
44.460        33
44.470        27
44.480        20
44.490         7
44.500        40
44.510         7
44.520        20
44.530        20
44.540        20
44.550         0
44.560        40
44.570        40
44.580         7
44.590        33
44.600         0
44.610         7
44.620        20
44.630        40
44.640        13
44.650         0
44.660        13
44.670        13
44.680        13
44.690        20
44.700         7
44.710        47
44.720        13
44.730        13
44.740         7
44.750         7
44.760        20
44.770        13
44.780        27
44.790        20
44.800        33
44.810        20
44.820         0
44.830        20
44.840        27
44.850        13
44.860        20
44.870        27
44.880         7
44.890        33
44.900        20
44.910        20
44.920        20
44.930         7
44.940        20
44.950        20
44.960        47
44.970        40
44.980        20
44.990         7
45.000        27
45.010        20
45.020        13
45.030        33
45.040         7
45.050        13
45.060        40
45.070        20
45.080         0
45.090        47
45.100        20
45.110        27
45.120        13
45.130         7
45.140        13
45.150        13
45.160        13
45.170        20
45.180        20
45.190        20
45.200        13
45.210        13
45.220         0
45.230         7
45.240        13
45.250        27
45.260        27
45.270        27
45.280        33
45.290        40
45.300        13
45.310        20
45.320        27
45.330        27
45.340        33
45.350        27
45.360         7
45.370        47
45.380        13
45.390        40
45.400        33
45.410        20
45.420        33
45.430        20
45.440        27
45.450        20
45.460         7
45.470        20
45.480        13
45.490        13
45.500        20
45.510        20
45.520        27
45.530        53
45.540        13
45.550         7
45.560        27
45.570         7
45.580        33
45.590        13
45.600        20
45.610        20
45.620        27
45.630        60
45.640        33
45.650        27
45.660        40
45.670        20
45.680        20
45.690        47
45.700        27
45.710        20
45.720        47
45.730        67
45.740        27
45.750        20
45.760        47
45.770        27
45.780        53
45.790        27
45.800        20
45.810        20
45.820        33
45.830        33
45.840        33
45.850        33
45.860         7
45.870        53
45.880        13
45.890        60
45.900        13
45.910        27
45.920        40
45.930        47
45.940        27
45.950        13
45.960        20
45.970        27
45.980         0
45.990        20
46.000        33
46.010        27
46.020        53
46.030        27
46.040        53
46.050        13
46.060        13
46.070        20
46.080         7
46.090        13
46.100        40
46.110        20
46.120        13
46.130        33
46.140        20
46.150        27
46.160        13
46.170        20
46.180        20
46.190        27
46.200        27
46.210         0
46.220         7
46.230        13
46.240        47
46.250        27
46.260        40
46.270        40
46.280        27
46.290        13
46.300        20
46.310        20
46.320        13
46.330        13
46.340        13
46.350        20
46.360        20
46.370         7
46.380         0
46.390        13
46.400        13
46.410        13
46.420        20
46.430        20
46.440        13
46.450        20
46.460        27
46.470        20
46.480        13
46.490        13
46.500        33
46.510        33
46.520        27
46.530         0
46.540        13
46.550        40
46.560        40
46.570        20
46.580        13
46.590        20
46.600        33
46.610        33
46.620         0
46.630        33
46.640        20
46.650         7
46.660        20
46.670        33
46.680         7
46.690        20
46.700        13
46.710        13
46.720        13
46.730        13
46.740        13
46.750        20
46.760        20
46.770        13
46.780        13
46.790        40
46.800        20
46.810        27
46.820        27
46.830        33
46.840        53
46.850        40
46.860        33
46.870        13
46.880        13
46.890         0
46.900        13
46.910         0
46.920         0
46.930        20
46.940        20
46.950        27
46.960        40
46.970        27
46.980         7
46.990         7
47.000         7
47.010        13
47.020        27
47.030        13
47.040        33
47.050        20
47.060        27
47.070        20
47.080        20
47.090        20
47.100        27
47.110         7
47.120         7
47.130        20
47.140        27
47.150         7
47.160         7
47.170        13
47.180         7
47.190        20
47.200         7
47.210        33
47.220        27
47.230        20
47.240         7
47.250        13
47.260        40
47.270         0
47.280         7
47.290        40
47.300         7
47.310        13
47.320        13
47.330         7
47.340        27
47.350        47
47.360        40
47.370         7
47.380        33
47.390         7
47.400         7
47.410         7
47.420        13
47.430        13
47.440        13
47.450        47
47.460         7
47.470        20
47.480        20
47.490        20
47.500         7
47.510        27
47.520        13
47.530        27
47.540         0
47.550        20
47.560        13
47.570        20
47.580        20
47.590        27
47.600        20
47.610        53
47.620        13
47.630         7
47.640        27
47.650        40
47.660        47
47.670        13
47.680        20
47.690        20
47.700         0
47.710        40
47.720        33
47.730        13
47.740        13
47.750        40
47.760        13
47.770         7
47.780        27
47.790        27
47.800        27
47.810         7
47.820        33
47.830        20
47.840        13
47.850        13
47.860        13
47.870        13
47.880        13
47.890        13
47.900        20
47.910         7
47.920        13
47.930        20
47.940        33
47.950        20
47.960        20
47.970        13
47.980        13
47.990        13
48.000        20
48.010         0
48.020         0
48.030        13
48.040         7
48.050         7
48.060        20
48.070        13
48.080        20
48.090         0
48.100        20
48.110        27
48.120        27
48.130        20
48.140        27
48.150        27
48.160        33
48.170        27
48.180         0
48.190        13
48.200        13
48.210        20
48.220        13
48.230         7
48.240         7
48.250        20
48.260        20
48.270        20
48.280         0
48.290        27
48.300        27
48.310        20
48.320         7
48.330        13
48.340        33
48.350        13
48.360        20
48.370        53
48.380        13
48.390        40
48.400        27
48.410        20
48.420        33
48.430        33
48.440        27
48.450        13
48.460         0
48.470         7
48.480        33
48.490        20
48.500        20
48.510        33
48.520        20
48.530        13
48.540         7
48.550        13
48.560         7
48.570        13
48.580        13
48.590        40
48.600        27
48.610        20
48.620        40
48.630        20
48.640        27
48.650        13
48.660        27
48.670        33
48.680        13
48.690        27
48.700        20
48.710        13
48.720         0
48.730         7
48.740        33
48.750        20
48.760        20
48.770        13
48.780        20
48.790        33
48.800         0
48.810        13
48.820        27
48.830        13
48.840        13
48.850        13
48.860        27
48.870        13
48.880        20
48.890        13
48.900         7
48.910         0
48.920        20
48.930        13
48.940        33
48.950        13
48.960        20
48.970        13
48.980        27
48.990        13
49.000         7
49.010         7
49.020        40
49.030        13
49.040         7
49.050        27
49.060         7
49.070        20
49.080        27
49.090        13
49.100        13
49.110        27
49.120         7
49.130         7
49.140        27
49.150        13
49.160        13
49.170        20
49.180        20
49.190        33
49.200        20
49.210        13
49.220        33
49.230         7
49.240        33
49.250         7
49.260        13
49.270        33
49.280        13
49.290        20
49.300        33
49.310        33
49.320        40
49.330        67
49.340         7
49.350         7
49.360        13
49.370        13
49.380        40
49.390         7
49.400         0
49.410         7
49.420        13
49.430        13
49.440         7
49.450         7
49.460        27
49.470        27
49.480        20
49.490        27
49.500        13
49.510         7
49.520        13
49.530        20
49.540        33
49.550        13
49.560         7
49.570        13
49.580        27
49.590         0
49.600        33
49.610        27
49.620        33
49.630        20
49.640        27
49.650        40
49.660        40
49.670        47
49.680        27
49.690        13
49.700        27
49.710        20
49.720        40
49.730        20
49.740        33
49.750        13
49.760        13
49.770        53
49.780        27
49.790        27
49.800        27
49.810        60
49.820        60
49.830        27
49.840        67
49.850        27
49.860        47
49.870        53
49.880        33
49.890        33
49.900        20
49.910        27
49.920        33
49.930        33
49.940        47
49.950        27
49.960        20
49.970         7
49.980        27
49.990        13
50.000        20
50.010        40
50.020        27
50.030        47
50.040        47
50.050        20
50.060        33
50.070        27
50.080        13
50.090        27
50.100        13
50.110        33
50.120        27
50.130        53
50.140        27
50.150        60
50.160        27
50.170        40
50.180         7
50.190        20
50.200        40
50.210        20
50.220        27
50.230        47
50.240        33
50.250        33
50.260        20
50.270        13
50.280        33
50.290        20
50.300         7
50.310        27
50.320        27
50.330        27
50.340        13
50.350        20
50.360        47
50.370        13
50.380        20
50.390        20
50.400        13
50.410        33
50.420        33
50.430        33
50.440        20
50.450        33
50.460        20
50.470        20
50.480         0
50.490        27
50.500        27
50.510        20
50.520        13
50.530        13
50.540        27
50.550        13
50.560        20
50.570        33
50.580        13
50.590        47
50.600        27
50.610        27
50.620        20
50.630        27
50.640         0
50.650        13
50.660        13
50.670        20
50.680         7
50.690        33
50.700        33
50.710        13
50.720        33
50.730        13
50.740        27
50.750        13
50.760        20
50.770        13
50.780        33
50.790        33
50.800        20
50.810        20
50.820        13
50.830        20
50.840         0
50.850        13
50.860        13
50.870         7
50.880        13
50.890        20
50.900        27
50.910        33
50.920         7
50.930        33
50.940         7
50.950        33
50.960         7
50.970        13
50.980        33
50.990        13
51.000        40
51.010        13
51.020         7
51.030        13
51.040        27
51.050        20
51.060        33
51.070        33
51.080        20
51.090        33
51.100        13
51.110        27
51.120        27
51.130        20
51.140        47
51.150         0
51.160        13
51.170        13
51.180        13
51.190         7
51.200        20
51.210        20
51.220        13
51.230        47
51.240        13
51.250        33
51.260        13
51.270        13
51.280        27
51.290        33
51.300        33
51.310        13
51.320        20
51.330        47
51.340        33
51.350         7
51.360        13
51.370        47
51.380        53
51.390        27
51.400        27
51.410        33
51.420        33
51.430        40
51.440        67
51.450        40
51.460        67
51.470        67
51.480        27
51.490        40
51.500        40
51.510        60
51.520        40
51.530        33
51.540        33
51.550        67
51.560        53
51.570        27
51.580        87
51.590       107
51.600        60
51.610        73
51.620        47
51.630        47
51.640        73
51.650        87
51.660        87
51.670        87
51.680       107
51.690        73
51.700        60
51.710       187
51.720        93
51.730       120
51.740       160
51.750       240
51.760       173
51.770       240
51.780       247
51.790       220
51.800       247
51.810       233
51.820       253
51.830       247
51.840       220
51.850       227
51.860       273
51.870       287
51.880       293
51.890       253
51.900       220
51.910       327
51.920       260
51.930       253
51.940       213
51.950       180
51.960       193
51.970       187
51.980       220
51.990       173
52.000       187
52.010       240
52.020       127
52.030       213
52.040       220
52.050       140
52.060       140
52.070       233
52.080       153
52.090       173
52.100       140
52.110       167
52.120       127
52.130       153
52.140       113
52.150       160
52.160       120
52.170        60
52.180        87
52.190       120
52.200       107
52.210       120
52.220        67
52.230       107
52.240        60
52.250        73
52.260        47
52.270        47
52.280       107
52.290        67
52.300        93
52.310        60
52.320        20
52.330        67
52.340        47
52.350        40
52.360       173
52.370        60
52.380        47
52.390        47
52.400        33
52.410        40
52.420        33
52.430        33
52.440        33
52.450        13
52.460        33
52.470        47
52.480        53
52.490        20
52.500        60
52.510        47
52.520        47
52.530        47
52.540        20
52.550        27
52.560        53
52.570        93
52.580        60
52.590        80
52.600        73
52.610        67
52.620        20
52.630        80
52.640        47
52.650        13
52.660        27
52.670        47
52.680        67
52.690        47
52.700        33
52.710        33
52.720        27
52.730        60
52.740        33
52.750        13
52.760        20
52.770        33
52.780        27
52.790        47
52.800        13
52.810        47
52.820        33
52.830        13
52.840        53
52.850        13
52.860        13
52.870        20
52.880        40
52.890        13
52.900        33
52.910        20
52.920        40
52.930        13
52.940        33
52.950        40
52.960        20
52.970        27
52.980        27
52.990        33
53.000        20
53.010        27
53.020        33
53.030         7
53.040        20
53.050         7
53.060        40
53.070        40
53.080         7
53.090        27
53.100        47
53.110        27
53.120        13
53.130        33
53.140        20
53.150        40
53.160        20
53.170        13
53.180        20
53.190        20
53.200        20
53.210        33
53.220         7
53.230         7
53.240        47
53.250         7
53.260        40
53.270        13
53.280        20
53.290        40
53.300        20
53.310        33
53.320         7
53.330        27
53.340        27
53.350        33
53.360        27
53.370        13
53.380        20
53.390        13
53.400        27
53.410        40
53.420        13
53.430        13
53.440         7
53.450        13
53.460        27
53.470        13
53.480        33
53.490         0
53.500        33
53.510         7
53.520         7
53.530        20
53.540         0
53.550         7
53.560        13
53.570        33
53.580        20
53.590        20
53.600        27
53.610        20
53.620        20
53.630        13
53.640        20
53.650        20
53.660        13
53.670        20
53.680        27
53.690         0
53.700         7
53.710        13
53.720        20
53.730        13
53.740        27
53.750        20
53.760        47
53.770        27
53.780         7
53.790        27
53.800        13
53.810        13
53.820        20
53.830        40
53.840        13
53.850        20
53.860        20
53.870        13
53.880         0
53.890         7
53.900        13
53.910        13
53.920        33
53.930        13
53.940        27
53.950         0
53.960        13
53.970        13
53.980        33
53.990         7
54.000        27
54.010        20
54.020        47
54.030        53
54.040        20
54.050        13
54.060        13
54.070        27
54.080        13
54.090        20
54.100        20
54.110        27
54.120        13
54.130        27
54.140        53
54.150        27
54.160        33
54.170        13
54.180        27
54.190        20
54.200        27
54.210        20
54.220        20
54.230         0
54.240        33
54.250        20
54.260        27
54.270         7
54.280        27
54.290        13
54.300        20
54.310        27
54.320        27
54.330        40
54.340        40
54.350         7
54.360        20
54.370        47
54.380        13
54.390        33
54.400        27
54.410        47
54.420        40
54.430        20
54.440        33
54.450        20
54.460        20
54.470        13
54.480        27
54.490        13
54.500         7
54.510        40
54.520        13
54.530        27
54.540         7
54.550        27
54.560        40
54.570         7
54.580        20
54.590        33
54.600        13
54.610        20
54.620        53
54.630        53
54.640        20
54.650        20
54.660        33
54.670        20
54.680        20
54.690        13
54.700         7
54.710        20
54.720        13
54.730        33
54.740        20
54.750        53
54.760        13
54.770         0
54.780         7
54.790        27
54.800        13
54.810         7
54.820        20
54.830        40
54.840        13
54.850        13
54.860         7
54.870        13
54.880         0
54.890        27
54.900        13
54.910        13
54.920        40
54.930        13
54.940         0
54.950        13
54.960        20
54.970        13
54.980         0
54.990        27
55.000         0
55.010        33
55.020        27
55.030        20
55.040         7
55.050        13
55.060        20
55.070         7
55.080         7
55.090         0
55.100        20
55.110         7
55.120        20
55.130         0
55.140        47
55.150        40
55.160        20
55.170        13
55.180         7
55.190        27
55.200        20
55.210        20
55.220        33
55.230        20
55.240         0
55.250         7
55.260         0
55.270         7
55.280         7
55.290        33
55.300         7
55.310         7
55.320        13
55.330        13
55.340         7
55.350        13
55.360        20
55.370        20
55.380        40
55.390         7
55.400        20
55.410        13
55.420         7
55.430        20
55.440        27
55.450        20
55.460        13
55.470        20
55.480        13
55.490        27
55.500        13
55.510         7
55.520        13
55.530        13
55.540        13
55.550        13
55.560         0
55.570         7
55.580         0
55.590        27
55.600        20
55.610         7
55.620        20
55.630        13
55.640        13
55.650        13
55.660        33
55.670         7
55.680        20
55.690        27
55.700         0
55.710         0
55.720        20
55.730         0
55.740         7
55.750        27
55.760        13
55.770         7
55.780         7
55.790        33
55.800        47
55.810        33
55.820         7
55.830        13
55.840        13
55.850        20
55.860        20
55.870        33
55.880        20
55.890        13
55.900        27
55.910        20
55.920        20
55.930        13
55.940        20
55.950        20
55.960        27
55.970        20
55.980        20
55.990        33
56.000        27
56.010        40
56.020         0
56.030        13
56.040        33
56.050        20
56.060         7
56.070        47
56.080         7
56.090        13
56.100         7
56.110        27
56.120         7
56.130        33
56.140        13
56.150        13
56.160        13
56.170        20
56.180        27
56.190        27
56.200        20
56.210         7
56.220        13
56.230         7
56.240        13
56.250        13
56.260         7
56.270        20
56.280         7
56.290         7
56.300        40
56.310        33
56.320        13
56.330         7
56.340        13
56.350        13
56.360        20
56.370        13
56.380         7
56.390        20
56.400        40
56.410         7
56.420        13
56.430        20
56.440         7
56.450        20
56.460         7
56.470        27
56.480         7
56.490         7
56.500        33
56.510        13
56.520         7
56.530        13
56.540         7
56.550         7
56.560        27
56.570        20
56.580        20
56.590        27
56.600        27
56.610        27
56.620         0
56.630         0
56.640        13
56.650        13
56.660        13
56.670        13
56.680         7
56.690         0
56.700         0
56.710        27
56.720        13
56.730        33
56.740        13
56.750        13
56.760        40
56.770         7
56.780        20
56.790         0
56.800        27
56.810        13
56.820         0
56.830        33
56.840        13
56.850        27
56.860        13
56.870         7
56.880        20
56.890        20
56.900        27
56.910        20
56.920        20
56.930        33
56.940        13
56.950        27
56.960         7
56.970        33
56.980        40
56.990         7
57.000        27
57.010        20
57.020        20
57.030        13
57.040        20
57.050         7
57.060         0
57.070         7
57.080        13
57.090        13
57.100        27
57.110        20
57.120         0
57.130        13
57.140        13
57.150        20
57.160        27
57.170        20
57.180        20
57.190        13
57.200        13
57.210        33
57.220        47
57.230        27
57.240        20
57.250        20
57.260         7
57.270        20
57.280        13
57.290        40
57.300        13
57.310         0
57.320        20
57.330        20
57.340        27
57.350        20
57.360        33
57.370        20
57.380        33
57.390        13
57.400        47
57.410        47
57.420        47
57.430        53
57.440        33
57.450        47
57.460        27
57.470        80
57.480       127
57.490       140
57.500        93
57.510       167
57.520       213
57.530       260
57.540       187
57.550       140
57.560       127
57.570       193
57.580       113
57.590       113
57.600        93
57.610        40
57.620        73
57.630        87
57.640        73
57.650        80
57.660        60
57.670       167
57.680       133
57.690       120
57.700        80
57.710        87
57.720        67
57.730       107
57.740        60
57.750        27
57.760        47
57.770         7
57.780        13
57.790        33
57.800        33
57.810        47
57.820        27
57.830        47
57.840         7
57.850        20
57.860        20
57.870        27
57.880        27
57.890        20
57.900         7
57.910        40
57.920        20
57.930        13
57.940        20
57.950        13
57.960        47
57.970        33
57.980        40
57.990         0
58.000         7
58.010        20
58.020         7
58.030        20
58.040        13
58.050        33
58.060        20
58.070        33
58.080         7
58.090        27
58.100        13
58.110        13
58.120        33
58.130        40
58.140        33
58.150        47
58.160        53
58.170         7
58.180        20
58.190        27
58.200        33
58.210        33
58.220        40
58.230        13
58.240        20
58.250         7
58.260        13
58.270        40
58.280        20
58.290        33
58.300        20
58.310        27
58.320        13
58.330         0
58.340         7
58.350        33
58.360        27
58.370        13
58.380        13
58.390        60
58.400        53
58.410        13
58.420         7
58.430        27
58.440         0
58.450        13
58.460        20
58.470        13
58.480        27
58.490        20
58.500        13
58.510        20
58.520        20
58.530        20
58.540         7
58.550        13
58.560        20
58.570        13
58.580        27
58.590        47
58.600        33
58.610        20
58.620        27
58.630         0
58.640        13
58.650        20
58.660        20
58.670        47
58.680        27
58.690        13
58.700        27
58.710        47
58.720        27
58.730        20
58.740        13
58.750        40
58.760        13
58.770        20
58.780        13
58.790        33
58.800        20
58.810         7
58.820        13
58.830         7
58.840        20
58.850         7
58.860        27
58.870         7
58.880        20
58.890        13
58.900        27
58.910        13
58.920         7
58.930         0
58.940        13
58.950        13
58.960        20
58.970         0
58.980         7
58.990        20
59.000        20
59.010         7
59.020         0
59.030        13
59.040         7
59.050         7
59.060        13
59.070        20
59.080        20
59.090        20
59.100        13
59.110        20
59.120         7
59.130        13
59.140        13
59.150        20
59.160         0
59.170         7
59.180         0
59.190        13
59.200        13
59.210        27
59.220        20
59.230        27
59.240        20
59.250         7
59.260         0
59.270        20
59.280         7
59.290        33
59.300         7
59.310        27
59.320        13
59.330        20
59.340        13
59.350         7
59.360         7
59.370        27
59.380        27
59.390         7
59.400        27
59.410        27
59.420        27
59.430         7
59.440        20
59.450        20
59.460        20
59.470        20
59.480        13
59.490         7
59.500        27
59.510        27
59.520        33
59.530         7
59.540        33
59.550        13
59.560         7
59.570        20
59.580        20
59.590        13
59.600        40
59.610        13
59.620        13
59.630        33
59.640         7
59.650         7
59.660        27
59.670        27
59.680         7
59.690         7
59.700         7
59.710         7
59.720        13
59.730         7
59.740        33
59.750        13
59.760        27
59.770        13
59.780         0
59.790         0
59.800        13
59.810        47
59.820        20
59.830         7
59.840        20
59.850         0
59.860         7
59.870        13
59.880        20
59.890         0
59.900         7
59.910         0
59.920        27
59.930         7
59.940        20
59.950        67
59.960        27
59.970        20
59.980        13
59.990        13
60.000        33
