20.000        27
20.010        27
20.020        47
20.030        13
20.040        40
20.050        47
20.060        40
20.070        33
20.080        47
20.090        47
20.100        60
20.110        13
20.120        40
20.130        27
20.140        67
20.150        27
20.160        47
20.170        20
20.180        27
20.190        47
20.200        47
20.210        60
20.220        33
20.230        87
20.240        40
20.250        20
20.260        27
20.270        47
20.280        27
20.290        47
20.300        47
20.310        13
20.320        33
20.330        53
20.340        47
20.350        33
20.360        27
20.370        13
20.380        53
20.390        53
20.400        60
20.410        40
20.420        40
20.430        20
20.440        27
20.450        27
20.460        33
20.470        33
20.480        60
20.490        20
20.500        33
20.510        27
20.520        40
20.530        27
20.540        40
20.550         7
20.560        13
20.570        40
20.580         7
20.590        20
20.600        67
20.610        40
20.620        27
20.630        40
20.640        40
20.650        53
20.660        27
20.670        13
20.680        53
20.690        60
20.700        53
20.710        40
20.720        33
20.730        33
20.740        33
20.750        47
20.760        27
20.770        53
20.780        27
20.790        33
20.800        47
20.810        47
20.820        53
20.830        53
20.840        33
20.850        47
20.860        40
20.870        20
20.880        40
20.890        40
20.900        53
20.910        40
20.920        40
20.930        40
20.940        60
20.950        33
20.960        33
20.970        33
20.980        20
20.990        27
21.000        60
21.010        40
21.020        33
21.030        47
21.040        53
21.050        47
21.060        33
21.070        53
21.080        40
21.090        73
21.100        47
21.110        20
21.120        20
21.130        27
21.140        47
21.150        20
21.160        33
21.170        27
21.180        67
21.190        20
21.200        20
21.210        33
21.220        53
21.230        27
21.240        47
21.250        40
21.260        20
21.270        33
21.280        40
21.290        40
21.300        53
21.310        20
21.320        20
21.330        33
21.340        13
21.350        13
21.360        40
21.370        40
21.380         7
21.390        60
21.400        40
21.410        40
21.420        40
21.430        33
21.440        40
21.450        73
21.460        33
21.470        20
21.480        27
21.490        47
21.500        47
21.510        13
21.520        33
21.530        47
21.540        33
21.550        20
21.560        13
21.570        47
21.580        40
21.590        40
21.600        47
21.610        20
21.620        40
21.630        47
21.640        33
21.650        67
21.660        47
21.670        33
21.680        67
21.690        13
21.700        27
21.710        33
21.720        20
21.730        27
21.740        53
21.750        33
21.760        33
21.770        27
21.780        53
21.790        13
21.800        13
21.810        40
21.820        47
21.830        53
21.840        60
21.850        13
21.860        60
21.870         7
21.880        27
21.890        27
21.900        27
21.910        47
21.920        33
21.930        40
21.940        60
21.950        67
21.960        27
21.970        27
21.980        27
21.990        13
22.000        60
22.010        60
22.020        33
22.030        20
22.040        27
22.050        53
22.060        27
22.070        33
22.080        27
22.090        27
22.100         7
22.110        40
22.120        33
22.130        33
22.140        53
22.150        40
22.160        27
22.170        60
22.180        40
22.190         7
22.200        67
22.210        47
22.220        47
22.230         7
22.240        27
22.250        33
22.260        47
22.270        40
22.280        20
22.290        13
22.300        40
22.310        53
22.320        67
22.330        40
22.340        13
22.350        33
22.360        47
22.370        40
22.380        33
22.390        73
22.400        33
22.410        47
22.420        33
22.430        60
22.440        33
22.450        67
22.460        27
22.470        53
22.480        53
22.490        20
22.500        33
22.510        47
22.520        67
22.530        40
22.540        47
22.550        53
22.560        13
22.570        20
22.580        27
22.590        40
22.600        53
22.610        40
22.620        33
22.630        20
22.640        40
22.650        33
22.660        40
22.670        40
22.680        33
22.690        27
22.700        20
22.710        27
22.720        60
22.730        47
22.740        47
22.750        60
22.760        13
22.770        47
22.780        20
22.790        47
22.800        40
22.810        60
22.820        60
22.830        47
22.840        13
22.850        33
22.860        27
22.870        60
22.880        20
22.890        20
22.900         0
22.910        20
22.920        47
22.930        53
22.940        27
22.950        40
22.960        40
22.970        20
22.980        33
22.990        33
23.000        27
23.010        27
23.020        47
23.030        67
23.040        20
23.050        47
23.060        27
23.070        13
23.080         7
23.090        27
23.100        27
23.110         0
23.120        40
23.130        13
23.140        33
23.150        40
23.160        27
23.170        13
23.180        20
23.190        33
23.200        40
23.210        13
23.220        33
23.230        27
23.240        47
23.250        20
23.260        27
23.270        47
23.280        60
23.290        40
23.300        47
23.310         7
23.320        13
23.330        20
23.340        33
23.350        40
23.360        53
23.370        53
23.380        20
23.390        27
23.400        53
23.410        47
23.420        20
23.430        20
23.440        20
23.450        40
23.460        20
23.470        40
23.480        13
23.490        13
23.500        67
23.510        20
23.520        13
23.530        47
23.540         7
23.550        47
23.560        33
23.570         7
23.580        33
23.590        13
23.600        53
23.610         7
23.620        40
23.630        53
23.640        33
23.650        27
23.660        33
23.670        33
23.680        27
23.690        27
23.700        33
23.710        27
23.720        47
23.730        27
23.740        20
23.750        40
23.760        20
23.770        33
23.780        47
23.790        40
23.800        40
23.810        40
23.820        33
23.830        27
23.840        27
23.850        33
23.860        53
23.870        27
23.880        27
23.890        13
23.900        33
23.910        40
23.920        27
23.930        33
23.940        47
23.950        13
23.960        27
23.970        20
23.980        20
23.990        40
24.000        40
24.010        27
24.020        27
24.030        27
24.040        27
24.050        40
24.060        27
24.070        27
24.080        20
24.090        27
24.100        33
24.110        47
24.120        40
24.130        47
24.140        27
24.150        27
24.160        27
24.170        13
24.180        20
24.190        13
24.200        27
24.210        13
24.220        47
24.230        80
24.240        27
24.250        33
24.260        27
24.270        33
24.280        13
24.290        33
24.300        27
24.310        33
24.320        53
24.330        40
24.340        20
24.350        33
24.360        40
24.370         7
24.380        40
24.390         7
24.400        60
24.410        47
24.420        27
24.430         7
24.440        33
24.450         7
24.460        33
24.470        60
24.480        20
24.490         7
24.500        33
24.510        27
24.520        27
24.530        47
24.540        20
24.550        20
24.560        20
24.570         7
24.580        27
24.590        33
24.600        33
24.610        33
24.620        33
24.630        20
24.640         7
24.650         7
24.660         7
24.670        20
24.680        20
24.690        33
24.700        27
24.710        27
24.720        27
24.730        20
24.740        60
24.750        33
24.760        47
24.770         0
24.780        13
24.790        40
24.800        40
24.810        33
24.820        27
24.830        20
24.840         7
24.850        33
24.860        27
24.870        33
24.880        20
24.890        27
24.900        13
24.910        40
24.920        20
24.930        33
24.940        27
24.950        33
24.960        27
24.970        40
24.980        33
24.990        27
25.000        33
25.010        27
25.020        20
25.030        33
25.040        27
25.050        33
25.060        47
25.070        20
25.080        47
25.090         7
25.100        27
25.110         7
25.120        33
25.130        13
25.140        33
25.150        33
25.160        20
25.170        27
25.180        13
25.190        33
25.200        20
25.210        47
25.220        13
25.230         7
25.240        47
25.250        20
25.260         7
25.270        27
25.280         7
25.290        13
25.300        47
25.310        13
25.320        13
25.330        27
25.340        47
25.350        53
25.360        20
25.370        33
25.380        33
25.390         7
25.400        13
25.410         7
25.420        27
25.430        20
25.440        53
25.450        20
25.460        33
25.470        27
25.480        40
25.490        53
25.500        20
25.510        20
25.520        53
25.530        40
25.540        27
25.550        20
25.560        47
25.570        33
25.580        60
25.590        13
25.600        47
25.610        33
25.620        53
25.630        40
25.640        33
25.650        47
25.660        40
25.670        13
25.680        47
25.690        47
25.700        13
25.710        33
25.720        20
25.730        67
25.740        53
25.750        13
25.760        53
25.770        40
25.780        53
25.790        27
25.800        60
25.810        40
25.820        33
25.830        67
25.840        47
25.850        53
25.860        47
25.870        67
25.880         0
25.890        27
25.900        40
25.910        20
25.920        73
25.930        27
25.940        33
25.950        27
25.960        33
25.970        13
25.980        33
25.990        13
26.000        20
26.010        27
26.020        13
26.030         7
26.040         7
26.050        33
26.060        13
26.070        40
26.080        20
26.090         7
26.100        53
26.110        27
26.120        20
26.130         0
26.140        47
26.150        27
26.160        27
26.170        33
26.180         7
26.190         7
26.200         7
26.210        13
26.220        13
26.230        40
26.240        20
26.250        33
26.260        13
26.270        40
26.280        20
26.290        33
26.300         7
26.310        33
26.320        27
26.330        13
26.340        20
26.350        13
26.360        47
26.370         7
26.380        33
26.390        33
26.400        33
26.410        20
26.420        27
26.430        33
26.440        53
26.450        20
26.460        33
26.470        60
26.480        13
26.490        33
26.500        20
26.510        20
26.520        33
26.530        27
26.540        33
26.550        33
26.560        27
26.570        33
26.580        13
26.590         0
26.600        27
26.610        33
26.620        27
26.630        13
26.640        27
26.650        40
26.660        40
26.670        13
26.680         7
26.690         7
26.700        13
26.710         0
26.720        13
26.730        20
26.740        33
26.750        20
26.760        13
26.770        20
26.780        60
26.790        53
26.800        33
26.810        47
26.820        13
26.830        33
26.840        27
26.850        27
26.860        33
26.870        47
26.880        20
26.890         0
26.900        33
26.910        20
26.920        13
26.930        20
26.940        20
26.950        20
26.960        40
26.970         7
26.980        27
26.990        40
27.000        27
27.010        20
27.020        33
27.030        27
27.040        20
27.050        27
27.060         7
27.070        13
27.080        40
27.090         0
27.100        27
27.110        33
27.120         7
27.130        27
27.140         7
27.150        20
27.160        33
27.170        40
27.180        27
27.190        33
27.200        27
27.210         7
27.220        20
27.230         0
27.240        47
27.250        13
27.260        13
27.270        20
27.280        27
27.290         7
27.300        27
27.310         0
27.320        27
27.330        20
27.340         7
27.350        13
27.360        33
27.370        20
27.380        13
27.390        27
27.400        20
27.410         7
27.420        33
27.430        40
27.440        53
27.450        27
27.460        47
27.470         7
27.480        13
27.490        33
27.500        33
27.510        20
27.520        33
27.530        20
27.540        53
27.550        27
27.560        27
27.570        13
27.580        20
27.590        67
27.600        27
27.610        20
27.620        20
27.630        20
27.640        33
27.650        13
27.660        60
27.670        13
27.680        20
27.690        27
27.700        27
27.710        33
27.720        27
27.730        13
27.740        27
27.750        47
27.760        13
27.770        27
27.780        73
27.790        47
27.800        40
27.810        53
27.820        40
27.830        80
27.840        80
27.850        53
27.860        47
27.870        80
27.880        67
27.890        53
27.900        40
27.910        40
27.920        33
27.930        33
27.940        47
27.950        13
27.960        20
27.970        53
27.980        40
27.990        33
28.000        13
28.010        27
28.020        20
28.030        33
28.040        13
28.050        33
28.060        40
28.070        27
28.080        20
28.090        47
28.100        27
28.110        33
28.120        27
28.130        53
28.140        27
28.150        33
28.160        33
28.170        27
28.180        27
28.190        27
28.200        13
28.210         7
28.220        33
28.230        33
28.240        20
28.250        20
28.260        27
28.270         7
28.280        13
28.290        60
28.300        40
28.310        13
28.320        20
28.330        13
28.340        27
28.350        27
28.360        20
28.370        13
28.380        27
28.390        33
28.400        13
28.410        13
28.420        27
28.430        20
28.440         0
28.450        33
28.460        47
28.470        20
28.480        27
28.490        20
28.500        27
28.510         0
28.520        27
28.530        13
28.540        27
28.550        13
28.560        20
28.570         7
28.580        20
28.590        53
28.600        13
28.610        53
28.620        47
28.630         7
28.640        33
28.650        33
28.660         7
28.670        20
28.680        60
28.690        20
28.700        47
28.710        20
28.720        20
28.730        27
28.740        20
28.750        33
28.760        20
28.770        47
28.780        47
28.790         7
28.800        13
28.810         7
28.820        33
28.830        53
28.840        47
28.850        33
28.860         7
28.870        20
28.880        47
28.890        40
28.900        20
28.910        47
28.920        67
28.930        33
28.940        40
28.950        33
28.960        80
28.970        47
28.980        47
28.990        27
29.000        40
29.010        47
29.020        87
29.030        47
29.040        73
29.050        40
29.060        93
29.070        93
29.080        93
29.090        67
29.100        53
29.110       100
29.120        73
29.130       100
29.140        33
29.150        67
29.160        53
29.170        73
29.180        60
29.190        87
29.200        47
29.210        73
29.220        33
29.230        47
29.240        40
29.250        60
29.260        33
29.270        47
29.280        33
29.290        40
29.300        27
29.310        40
29.320        27
29.330        33
29.340        53
29.350        20
29.360        33
29.370        40
29.380         0
29.390        47
29.400        20
29.410        20
29.420        20
29.430        13
29.440        27
29.450        40
29.460        47
29.470        40
29.480        13
29.490        60
29.500        47
29.510        67
29.520        47
29.530        73
29.540        40
29.550        73
29.560        40
29.570        27
29.580        40
29.590        73
29.600        47
29.610        73
29.620        20
29.630        47
29.640        53
29.650        53
29.660        73
29.670        73
29.680        27
29.690        40
29.700        27
29.710        33
29.720        27
29.730        67
29.740        20
29.750        53
29.760        13
29.770        20
29.780        33
29.790        20
29.800        33
29.810        20
29.820        27
29.830        33
29.840        20
29.850        13
29.860        20
29.870        40
29.880        27
29.890         7
29.900         7
29.910        13
29.920         0
29.930        27
29.940         7
29.950        20
29.960        27
29.970         7
29.980        20
29.990        20
30.000        13
30.010        27
30.020        13
30.030        20
30.040        20
30.050         0
30.060        20
30.070        33
30.080         0
30.090         7
30.100         0
30.110        20
30.120        47
30.130         7
30.140        33
30.150        47
30.160        20
30.170        13
30.180        33
30.190        13
30.200        20
30.210        20
30.220        20
30.230        20
30.240        20
30.250         7
30.260        33
30.270        33
30.280        33
30.290        20
30.300        33
30.310         7
30.320         7
30.330         0
30.340        33
30.350        13
30.360        13
30.370        13
30.380        20
30.390        33
30.400        27
30.410        20
30.420        33
30.430        47
30.440        27
30.450        27
30.460        47
30.470        40
30.480        33
30.490        20
30.500        20
30.510        20
30.520        47
30.530        33
30.540        20
30.550        40
30.560        33
30.570        47
30.580        47
30.590        20
30.600        33
30.610        20
30.620         7
30.630        33
30.640        33
30.650        20
30.660        27
30.670         7
30.680         0
30.690        13
30.700        20
30.710        20
30.720        13
30.730        60
30.740        13
30.750        20
30.760        27
30.770         7
30.780        33
30.790        13
30.800        20
30.810        27
30.820        20
30.830         7
30.840        20
30.850        13
30.860        20
30.870        13
30.880        53
30.890        53
30.900        13
30.910        47
30.920         0
30.930        27
30.940        33
30.950        13
30.960        40
30.970        27
30.980        13
30.990        33
31.000         7
31.010        27
31.020        13
31.030         7
31.040        13
31.050        13
31.060         0
31.070        33
31.080        27
31.090         0
31.100        13
31.110        13
31.120        33
31.130        27
31.140        53
31.150        20
31.160        20
31.170        27
31.180        20
31.190        20
31.200        33
31.210        20
31.220        33
31.230        33
31.240        13
31.250        20
31.260        47
31.270        47
31.280        20
31.290        33
31.300        47
31.310        40
31.320        40
31.330        33
31.340        47
31.350        27
31.360        47
31.370        20
31.380        13
31.390        60
31.400        60
31.410        33
31.420        20
31.430        27
31.440        27
31.450        27
31.460        27
31.470        20
31.480        20
31.490        40
31.500        27
31.510        20
31.520        40
31.530        13
31.540        40
31.550        13
31.560        33
31.570        40
31.580         7
31.590         7
31.600        20
31.610        47
31.620        20
31.630        27
31.640        33
31.650        20
31.660        20
31.670        53
31.680        20
31.690        20
31.700        27
31.710        20
31.720        27
31.730        13
31.740        20
31.750        33
31.760        20
31.770         7
31.780        20
31.790         7
31.800        33
31.810        40
31.820        13
31.830        40
31.840        20
31.850        33
31.860        13
31.870         7
31.880        20
31.890        27
31.900         7
31.910        20
31.920        27
31.930        20
31.940        13
31.950        53
31.960        20
31.970        20
31.980         0
31.990        27
32.000        27
32.010         0
32.020        13
32.030        33
32.040        27
32.050        47
32.060        27
32.070        47
32.080        40
32.090        27
32.100        87
32.110        27
32.120        13
32.130        40
32.140        40
32.150        47
32.160        73
32.170        73
32.180        60
32.190        60
32.200        47
32.210        87
32.220        27
32.230        27
32.240        40
32.250        53
32.260        27
32.270        20
32.280        47
32.290        60
32.300        60
32.310        33
32.320        40
32.330        47
32.340        33
32.350        47
32.360        40
32.370        27
32.380        20
32.390         7
32.400        20
32.410        47
32.420        33
32.430        33
32.440        13
32.450        40
32.460        27
32.470        13
32.480        27
32.490        27
32.500        20
32.510         7
32.520        20
32.530        13
32.540        27
32.550        27
32.560         7
32.570        27
32.580         7
32.590        13
32.600        40
32.610        13
32.620        47
32.630        40
32.640        53
32.650        47
32.660        27
32.670        33
32.680        33
32.690        20
32.700        33
32.710        27
32.720        20
32.730        27
32.740        40
32.750        60
32.760        27
32.770        27
32.780        40
32.790        13
32.800         7
32.810        20
32.820        20
32.830        27
32.840        60
32.850        33
32.860        53
32.870        13
32.880        53
32.890        33
32.900        47
32.910        20
32.920        20
32.930        33
32.940         7
32.950        20
32.960        20
32.970         7
32.980        33
32.990        20
33.000        40
33.010        27
33.020        20
33.030        13
33.040        20
33.050         7
33.060        13
33.070        13
33.080        20
33.090        20
33.100        20
33.110         7
33.120         7
33.130         7
33.140        20
33.150        27
33.160        13
33.170        20
33.180         7
33.190        13
33.200         0
33.210        40
33.220        20
33.230        20
33.240        27
33.250        20
33.260         0
33.270        53
33.280        13
33.290        13
33.300         7
33.310        33
33.320        20
33.330        13
33.340         7
33.350        13
33.360        27
33.370        27
33.380        40
33.390        13
33.400         0
33.410         7
33.420        20
33.430        33
33.440         7
33.450        33
33.460        20
33.470         7
33.480        13
33.490        20
33.500        33
33.510        13
33.520         7
33.530        53
33.540        33
33.550        33
33.560        20
33.570        13
33.580        20
33.590        13
33.600         7
33.610        13
33.620         7
33.630        13
33.640        20
33.650         0
33.660         7
33.670        27
33.680        13
33.690         7
33.700        27
33.710         0
33.720        20
33.730        13
33.740         0
33.750        13
33.760        27
33.770        40
33.780        20
33.790        20
33.800        20
33.810         7
33.820        27
33.830        27
33.840        33
33.850        27
33.860        13
33.870         7
33.880        27
33.890        20
33.900        27
33.910        27
33.920        20
33.930        13
33.940        20
33.950        33
33.960        20
33.970         0
33.980        13
33.990        27
34.000        27
34.010        27
34.020        27
34.030         7
34.040        13
34.050        20
34.060        20
34.070        13
34.080         7
34.090         0
34.100        40
34.110         7
34.120        20
34.130         7
34.140        13
34.150        27
34.160        27
34.170         7
34.180        27
34.190        20
34.200        20
34.210         0
34.220        13
34.230        13
34.240        20
34.250         7
34.260        27
34.270         7
34.280         7
34.290        20
34.300         7
34.310        13
34.320        13
34.330         7
34.340        27
34.350        33
34.360        13
34.370        27
34.380        33
34.390        27
34.400        13
34.410        13
34.420        27
34.430        20
34.440        40
34.450        47
34.460        33
34.470        33
34.480        20
34.490         7
34.500        27
34.510        40
34.520         7
34.530        33
34.540        47
34.550        33
34.560        40
34.570        13
34.580        13
34.590        40
34.600        40
34.610        27
34.620        33
34.630        13
34.640        20
34.650        53
34.660        20
34.670         7
34.680        60
34.690        27
34.700        20
34.710        53
34.720        13
34.730        13
34.740        47
34.750         7
34.760        27
34.770        13
34.780        40
34.790        20
34.800        13
34.810        27
34.820         0
34.830        13
34.840         7
34.850         7
34.860        40
34.870        27
34.880        27
34.890        20
34.900        13
34.910         0
34.920         7
34.930        33
34.940        20
34.950        33
34.960        27
34.970        40
34.980        20
34.990         0
35.000        13
35.010        33
35.020         7
35.030        33
35.040        27
35.050         0
35.060        13
35.070        20
35.080        27
35.090        20
35.100        27
35.110        27
35.120        33
35.130        13
35.140        20
35.150         0
35.160        27
35.170         7
35.180         7
35.190        47
35.200        20
35.210         7
35.220        20
35.230        13
35.240        33
35.250         7
35.260        20
35.270        20
35.280        20
35.290        20
35.300        27
35.310        13
35.320         7
35.330         7
35.340         0
35.350         0
35.360        13
35.370         0
35.380        27
35.390        13
35.400        13
35.410        20
35.420        40
35.430         7
35.440         7
35.450        13
35.460        20
35.470        13
35.480         7
35.490        20
35.500        13
35.510        13
35.520        27
35.530        20
35.540         7
35.550         7
35.560        27
35.570        20
35.580        27
35.590        20
35.600        20
35.610        20
35.620        13
35.630        13
35.640         7
35.650        20
35.660         7
35.670        20
35.680         7
35.690        13
35.700        13
35.710        20
35.720         0
35.730        13
35.740        27
35.750         7
35.760        13
35.770        13
35.780        27
35.790         7
35.800        40
35.810        27
35.820        20
35.830        33
35.840        33
35.850        20
35.860        13
35.870        27
35.880        27
35.890        40
35.900         7
35.910        13
35.920        20
35.930        20
35.940        27
35.950         0
35.960        13
35.970        33
35.980         0
35.990        27
36.000         7
36.010         7
36.020        13
36.030        20
36.040        13
36.050        13
36.060         7
36.070         0
36.080        20
36.090         0
36.100        20
36.110        20
36.120        20
36.130        40
36.140         7
36.150        33
36.160         7
36.170        20
36.180         0
36.190        40
36.200         7
36.210        47
36.220        13
36.230         0
36.240        13
36.250        20
36.260        20
36.270         7
36.280         0
36.290        20
36.300         7
36.310         7
36.320        20
36.330        13
36.340        13
36.350        20
36.360         7
36.370         0
36.380        27
36.390        20
36.400        20
36.410        13
36.420        13
36.430        13
36.440        20
36.450        13
36.460        20
36.470        40
36.480        13
36.490         7
36.500         7
36.510         7
36.520        20
36.530        33
36.540        20
36.550        40
36.560        13
36.570        20
36.580        27
36.590        27
36.600        13
36.610        40
36.620        13
36.630         7
36.640        27
36.650         7
36.660        27
36.670        27
36.680        20
36.690        13
36.700        13
36.710         7
36.720        27
36.730         7
36.740        20
36.750         7
36.760        13
36.770        20
36.780        20
36.790         7
36.800        40
36.810        27
36.820        27
36.830        47
36.840        13
36.850         7
36.860        27
36.870        13
36.880        13
36.890        13
36.900        13
36.910        13
36.920        27
36.930        20
36.940         7
36.950        20
36.960        20
36.970         7
36.980        27
36.990        13
37.000         0
37.010        20
37.020        20
37.030        27
37.040        13
37.050         7
37.060         7
37.070        20
37.080         7
37.090        40
37.100        13
37.110        20
37.120        20
37.130        40
37.140        13
37.150        27
37.160        20
37.170        20
37.180        13
37.190        27
37.200        13
37.210         7
37.220        33
37.230        13
37.240        27
37.250        27
37.260        27
37.270        20
37.280        20
37.290        27
37.300        27
37.310        13
37.320        27
37.330        27
37.340        13
37.350         7
37.360        27
37.370        33
37.380        20
37.390        13
37.400        13
37.410        20
37.420         0
37.430        27
37.440        20
37.450        13
37.460         7
37.470         7
37.480        13
37.490        27
37.500         7
37.510        20
37.520        33
37.530        20
37.540        20
37.550        13
37.560        13
37.570         0
37.580        27
37.590         7
37.600        13
37.610        27
37.620        47
37.630        13
37.640         0
37.650         7
37.660        13
37.670        13
37.680        33
37.690        33
37.700        20
37.710        13
37.720        27
37.730         7
37.740        27
37.750         0
37.760        13
37.770        13
37.780        13
37.790        13
37.800        27
37.810         0
37.820        13
37.830        13
37.840         7
37.850         7
37.860        27
37.870        13
37.880        27
37.890        20
37.900        13
37.910        20
37.920        20
37.930        20
37.940         7
37.950        13
37.960         7
37.970        27
37.980        20
37.990        13
38.000         7
38.010         7
38.020         0
38.030         7
38.040         0
38.050        27
38.060         7
38.070        13
38.080        13
38.090        27
38.100        20
38.110         7
38.120         7
38.130        27
38.140         7
38.150        13
38.160        13
38.170         7
38.180        13
38.190        27
38.200        13
38.210        13
38.220        20
38.230        27
38.240         7
38.250        27
38.260         7
38.270        40
38.280         7
38.290         7
38.300        13
38.310         7
38.320        27
38.330        27
38.340         7
38.350        13
38.360        13
38.370        13
38.380        20
38.390        33
38.400        20
38.410         0
38.420        20
38.430         0
38.440        20
38.450        27
38.460        20
38.470        27
38.480         7
38.490        20
38.500        13
38.510        20
38.520         0
38.530        13
38.540        20
38.550        13
38.560        20
38.570        27
38.580        27
38.590        27
38.600        27
38.610         0
38.620        13
38.630        27
38.640         7
38.650         0
38.660        13
38.670         7
38.680        20
38.690         7
38.700        13
38.710        53
38.720        13
38.730        20
38.740         7
38.750        20
38.760        33
38.770        33
38.780         0
38.790        33
38.800         7
38.810        33
38.820        13
38.830        13
38.840        27
38.850         7
38.860        20
38.870        27
38.880        13
38.890        13
38.900        33
38.910        13
38.920        13
38.930        13
38.940         7
38.950        20
38.960        33
38.970        27
38.980         7
38.990         0
39.000        20
39.010        27
39.020        33
39.030        33
39.040        13
39.050        20
39.060        20
39.070        20
39.080        13
39.090        13
39.100         7
39.110        20
39.120        27
39.130        20
39.140        13
39.150        13
39.160        27
39.170        20
39.180        13
39.190        13
39.200         0
39.210        47
39.220        13
39.230         0
39.240         0
39.250        20
39.260        33
39.270        20
39.280        33
39.290         7
39.300         0
39.310        20
39.320        27
39.330        27
39.340         7
39.350        20
39.360         7
39.370        33
39.380        13
39.390         0
39.400        27
39.410        13
39.420        27
39.430        20
39.440        20
39.450        40
39.460         7
39.470        33
39.480        13
39.490        13
39.500         0
39.510        27
39.520        40
39.530        13
39.540        20
39.550         7
39.560        20
39.570        20
39.580        13
39.590        20
39.600         7
39.610         7
39.620        20
39.630        20
39.640        13
39.650         7
39.660         0
39.670         0
39.680        27
39.690        13
39.700        20
39.710        33
39.720        13
39.730        20
39.740        20
39.750        20
39.760         0
39.770        13
39.780        20
39.790         7
39.800        20
39.810        20
39.820        20
39.830         7
39.840        20
39.850        20
39.860         7
39.870         7
39.880        13
39.890        27
39.900        27
39.910        13
39.920        13
39.930        20
39.940        27
39.950        27
39.960        13
39.970        33
39.980        13
39.990        13
40.000         0
40.010        47
40.020        27
40.030         7
40.040        20
40.050        33
40.060        13
40.070         0
40.080        13
40.090        27
40.100        47
40.110        47
40.120        13
40.130        33
40.140        47
40.150        20
40.160         7
40.170        27
40.180        33
40.190        53
40.200        20
40.210        33
40.220        27
40.230        40
40.240        40
40.250        33
40.260        27
40.270        27
40.280        47
40.290        40
40.300         7
40.310         7
40.320         7
40.330        53
40.340        20
40.350        40
40.360        33
40.370         7
40.380        40
40.390        20
40.400         0
40.410        13
40.420        33
40.430        33
40.440        20
40.450        20
40.460        20
40.470        27
40.480         0
40.490        27
40.500        40
40.510        20
40.520        13
40.530        20
40.540        27
40.550        13
40.560        20
40.570        20
40.580         0
40.590        13
40.600        20
40.610         7
40.620        20
40.630         7
40.640        20
40.650        20
40.660        27
40.670        20
40.680        33
40.690         0
40.700        33
40.710        20
40.720         7
40.730        40
40.740        33
40.750        20
40.760         7
40.770         7
40.780        13
40.790        27
40.800        13
40.810         0
40.820         0
40.830        13
40.840        27
40.850        20
40.860        27
40.870        13
40.880         0
40.890         7
40.900         7
40.910        33
40.920        33
40.930        13
40.940        33
40.950        47
40.960        20
40.970         7
40.980        20
40.990        27
41.000         7
41.010         0
41.020        20
41.030         7
41.040        47
41.050        27
41.060        13
41.070        13
41.080        27
41.090         7
41.100        20
41.110        27
41.120        27
41.130        27
41.140        20
41.150        20
41.160        27
41.170        27
41.180        27
41.190         7
41.200         7
41.210         7
41.220        13
41.230        40
41.240        20
41.250        33
41.260         7
41.270        13
41.280        20
41.290        13
41.300        13
41.310        13
41.320         0
41.330        27
41.340        13
41.350         7
41.360         7
41.370         7
41.380        20
41.390        20
41.400        33
41.410         7
41.420         7
41.430        20
41.440        40
41.450         7
41.460        20
41.470         0
41.480         7
41.490        13
41.500        13
41.510        20
41.520        13
41.530        27
41.540        13
41.550        13
41.560        20
41.570        13
41.580        13
41.590        13
41.600        40
41.610        13
41.620        20
41.630         0
41.640         0
41.650        27
41.660         0
41.670        27
41.680        27
41.690        13
41.700        13
41.710        27
41.720         0
41.730        13
41.740         0
41.750        33
41.760        27
41.770        33
41.780        27
41.790        27
41.800        13
41.810        20
41.820        20
41.830        13
41.840        13
41.850        40
41.860        13
41.870        13
41.880        13
41.890         7
41.900        20
41.910        40
41.920         7
41.930         0
41.940        27
41.950        20
41.960         0
41.970         7
41.980         0
41.990        13
42.000         0
42.010        40
42.020        33
42.030         7
42.040        33
42.050        13
42.060        40
42.070        20
42.080        27
42.090        20
42.100        20
42.110         7
42.120        40
42.130        20
42.140        13
42.150         7
42.160        20
42.170        20
42.180         7
42.190        27
42.200        60
42.210        20
42.220        40
42.230        27
42.240         7
42.250        33
42.260         7
42.270         7
42.280        27
42.290        13
42.300        40
42.310        13
42.320        13
42.330         0
42.340         7
42.350        27
42.360        13
42.370        13
42.380        20
42.390         7
42.400        40
42.410        33
42.420        33
42.430        27
42.440        27
42.450        33
42.460        20
42.470         7
42.480        33
42.490        27
42.500        13
42.510        13
42.520        27
42.530         7
42.540        13
42.550        13
42.560        20
42.570         0
42.580         7
42.590         0
42.600        20
42.610         0
42.620        13
42.630        13
42.640        20
42.650        20
42.660        20
42.670         7
42.680        13
42.690         7
42.700        40
42.710        13
42.720         7
42.730        40
42.740        27
42.750         0
42.760        20
42.770        13
42.780        13
42.790        13
42.800         7
42.810        13
42.820        40
42.830        40
42.840        47
42.850        27
42.860         7
42.870         7
42.880        13
42.890        13
42.900        40
42.910        20
42.920        27
42.930         7
42.940        33
42.950        20
42.960        33
42.970        13
42.980        13
42.990         7
43.000        33
43.010        27
43.020        33
43.030         0
43.040        13
43.050        33
43.060        27
43.070        47
43.080        33
43.090         0
43.100        13
43.110        33
43.120        13
43.130         0
43.140        20
43.150        33
43.160        33
43.170        13
43.180        27
43.190        13
43.200        13
43.210        33
43.220        27
43.230        20
43.240        13
43.250        20
43.260        27
43.270        13
43.280        20
43.290         7
43.300        20
43.310        13
43.320         7
43.330        13
43.340        27
43.350         7
43.360         7
43.370        20
43.380        13
43.390        13
43.400        13
43.410        27
43.420        20
43.430        47
43.440         7
43.450        20
43.460        13
43.470         7
43.480        13
43.490        47
43.500        20
43.510        13
43.520        33
43.530        33
43.540        27
43.550        27
43.560         7
43.570        13
43.580        13
43.590        27
43.600         7
43.610        13
43.620         0
43.630        20
43.640        27
43.650        20
43.660        27
43.670        13
43.680        27
43.690         7
43.700        13
43.710        27
43.720         7
43.730        13
43.740        13
43.750         0
43.760        13
43.770        20
43.780        13
43.790        40
43.800         7
43.810        27
43.820        20
43.830        20
43.840        13
43.850        13
43.860        13
43.870         0
43.880        33
43.890        13
43.900        13
43.910        20
43.920        27
43.930        20
43.940        13
43.950         0
43.960         7
43.970        53
43.980        13
43.990        53
44.000        20
44.010        13
44.020        20
44.030        13
44.040        40
44.050        20
44.060        27
44.070         7
44.080        13
44.090        27
44.100        40
44.110        33
44.120        20
44.130        13
44.140        13
44.150        33
44.160         0
44.170        53
44.180        33
44.190        13
44.200        20
44.210        40
44.220        13
44.230        33
44.240        33
44.250         0
44.260        20
44.270        40
44.280        13
44.290        33
44.300        13
44.310         0
44.320        20
44.330        13
44.340        33
44.350        13
44.360        13
44.370        13
44.380        27
44.390        13
44.400        20
44.410         7
44.420        27
44.430        33
44.440        40
44.450        13
44.460        13
44.470        33
44.480        33
44.490        33
44.500        20
44.510        40
44.520        27
44.530        27
44.540        20
44.550        33
44.560        20
44.570        13
44.580         0
44.590        20
44.600        13
44.610        13
44.620         7
44.630        13
44.640        33
44.650        33
44.660         7
44.670        13
44.680        13
44.690        33
44.700        27
44.710        13
44.720        13
44.730        20
44.740         7
44.750        27
44.760         7
44.770         7
44.780        20
44.790        13
44.800        13
44.810        20
44.820        27
44.830        20
44.840        20
44.850        27
44.860        20
44.870        20
44.880        13
44.890        13
44.900        20
44.910        20
44.920        20
44.930        20
44.940        40
44.950        13
44.960         7
44.970         0
44.980        20
44.990         7
45.000         7
45.010        13
45.020        13
45.030        27
45.040         7
45.050        20
45.060        27
45.070        13
45.080        40
45.090        27
45.100        20
45.110         7
45.120         7
45.130        13
45.140         7
45.150        27
45.160        13
45.170        20
45.180        13
45.190        27
45.200        13
45.210        33
45.220        27
45.230        20
45.240        20
45.250        20
45.260         7
45.270        33
45.280         0
45.290        13
45.300        13
45.310         7
45.320         0
45.330        20
45.340        47
45.350        27
45.360         0
45.370        20
45.380        20
45.390        33
45.400        27
45.410        13
45.420        27
45.430        13
45.440         7
45.450        13
45.460        27
45.470        27
45.480        13
45.490        13
45.500        27
45.510         7
45.520        27
45.530        13
45.540        20
45.550        13
45.560        33
45.570        33
45.580        27
45.590        20
45.600        13
45.610        20
45.620        20
45.630         0
45.640        20
45.650         0
45.660        33
45.670        27
45.680         7
45.690        33
45.700         7
45.710        40
45.720         7
45.730        20
45.740         7
45.750        27
45.760        33
45.770        20
45.780        27
45.790        27
45.800        40
45.810         7
45.820        27
45.830        27
45.840        33
45.850        13
45.860        47
45.870         7
45.880        20
45.890        40
45.900        33
45.910        13
45.920        13
45.930        53
45.940        27
45.950        13
45.960        27
45.970        13
45.980        40
45.990         0
46.000        20
46.010         7
46.020        13
46.030         7
46.040        13
46.050        40
46.060        33
46.070        47
46.080        33
46.090        20
46.100        20
46.110        13
46.120        33
46.130        20
46.140        13
46.150        20
46.160        40
46.170         7
46.180         7
46.190        20
46.200        27
46.210        20
46.220        27
46.230        33
46.240        33
46.250        20
46.260        33
46.270        33
46.280        47
46.290        20
46.300        33
46.310        27
46.320        60
46.330        27
46.340        27
46.350        20
46.360        20
46.370        20
46.380        60
46.390         7
46.400        20
46.410         0
46.420        27
46.430        27
46.440        33
46.450         7
46.460        20
46.470        20
46.480        20
46.490        40
46.500        27
46.510        27
46.520        13
46.530        13
46.540        13
46.550        13
46.560        27
46.570        13
46.580        27
46.590        20
46.600        20
46.610        20
46.620        20
46.630         7
46.640         7
46.650        13
46.660        27
46.670        20
46.680        27
46.690        13
46.700        13
46.710         7
46.720        13
46.730        20
46.740        20
46.750        20
46.760        20
46.770        13
46.780        40
46.790        27
46.800        20
46.810         7
46.820        13
46.830        27
46.840        27
46.850        40
46.860        33
46.870        47
46.880        40
46.890        27
46.900        60
46.910        27
46.920        13
46.930        33
46.940        13
46.950        13
46.960         7
46.970        47
46.980        20
46.990         7
47.000        27
47.010        27
47.020        13
47.030        40
47.040        13
47.050         7
47.060        13
47.070        13
47.080        33
47.090        40
47.100        20
47.110        27
47.120        20
47.130         7
47.140         7
47.150        33
47.160         7
47.170        33
47.180        33
47.190        27
47.200         7
47.210         7
47.220        20
47.230        20
47.240        20
47.250        13
47.260         7
47.270         7
47.280        33
47.290        13
47.300        20
47.310        40
47.320        40
47.330        27
47.340        40
47.350        13
47.360        13
47.370         0
47.380        27
47.390        27
47.400        20
47.410        20
47.420        33
47.430        20
47.440        40
47.450        33
47.460        40
47.470         7
47.480        27
47.490        20
47.500        27
47.510         7
47.520        33
47.530        27
47.540        20
47.550         0
47.560        13
47.570        27
47.580        20
47.590        13
47.600        20
47.610         7
47.620        33
47.630        20
47.640        33
47.650        47
47.660        13
47.670        33
47.680        40
47.690        13
47.700        27
47.710        20
47.720        20
47.730         7
47.740        27
47.750         7
47.760        40
47.770        27
47.780        27
47.790        20
47.800        40
47.810        27
47.820        27
47.830        13
47.840         7
47.850         7
47.860        27
47.870        40
47.880        53
47.890        33
47.900        20
47.910         7
47.920        20
47.930         0
47.940        20
47.950        20
47.960        13
47.970        33
47.980        13
47.990         7
48.000        27
48.010        20
48.020         7
48.030        13
48.040        20
48.050        13
48.060         7
48.070        13
48.080        20
48.090        53
48.100        20
48.110         7
48.120        13
48.130         7
48.140        20
48.150        13
48.160        20
48.170        27
48.180        20
48.190        33
48.200         7
48.210        33
48.220        13
48.230        27
48.240        13
48.250        40
48.260        20
48.270        53
48.280        20
48.290        20
48.300        27
48.310         0
48.320        13
48.330         7
48.340        40
48.350        13
48.360        13
48.370        60
48.380        20
48.390        33
48.400        20
48.410         7
48.420         7
48.430        40
48.440         7
48.450        20
48.460         7
48.470         7
48.480        20
48.490        40
48.500        40
48.510         0
48.520        27
48.530        20
48.540         0
48.550        13
48.560         0
48.570        20
48.580        20
48.590        13
48.600         0
48.610        33
48.620         7
48.630         7
48.640        13
48.650         0
48.660        20
48.670        27
48.680        13
48.690        20
48.700         7
48.710        33
48.720        13
48.730         7
48.740        20
48.750        27
48.760         0
48.770         7
48.780        20
48.790         7
48.800        20
48.810         0
48.820         0
48.830        27
48.840         0
48.850         7
48.860        40
48.870        27
48.880        13
48.890         7
48.900         0
48.910        33
48.920        20
48.930         0
48.940        13
48.950        13
48.960        33
48.970         7
48.980        33
48.990        60
49.000         7
49.010         7
49.020        47
49.030         0
49.040         7
49.050        13
49.060        33
49.070        13
49.080        20
49.090        13
49.100         7
49.110        27
49.120        13
49.130        27
49.140        20
49.150        20
49.160        13
49.170        27
49.180        27
49.190         7
49.200        20
49.210        13
49.220         7
49.230        33
49.240        13
49.250        13
49.260         0
49.270        20
49.280        20
49.290        20
49.300        13
49.310        13
49.320         7
49.330        33
49.340        13
49.350        13
49.360        13
49.370        20
49.380        27
49.390         7
49.400        13
49.410        13
49.420        13
49.430        13
49.440        47
49.450        13
49.460        13
49.470        20
49.480         7
49.490        33
49.500        27
49.510        27
49.520        33
49.530        13
49.540        20
49.550        13
49.560        20
49.570         0
49.580        20
49.590        13
49.600         7
49.610        33
49.620         7
49.630        20
49.640        20
49.650        20
49.660        13
49.670        27
49.680        13
49.690        20
49.700        33
49.710        20
49.720        13
49.730        27
49.740         0
49.750        40
49.760        27
49.770        47
49.780        13
49.790        13
49.800        13
49.810        33
49.820        13
49.830        27
49.840        20
49.850        47
49.860        13
49.870         7
49.880        27
49.890        20
49.900        13
49.910         7
49.920         7
49.930        20
49.940        40
49.950        27
49.960        13
49.970        47
49.980        33
49.990        13
50.000        13
50.010        13
50.020        40
50.030         7
50.040        27
50.050        20
50.060         7
50.070        27
50.080        20
50.090         0
50.100        13
50.110        27
50.120        20
50.130        20
50.140        20
50.150        27
50.160        40
50.170        20
50.180        40
50.190         7
50.200        40
50.210         0
50.220        20
50.230        27
50.240        20
50.250         7
50.260        27
50.270        27
50.280        33
50.290        27
50.300        27
50.310        13
50.320         7
50.330        33
50.340        20
50.350        27
50.360        13
50.370         7
50.380         7
50.390        27
50.400        20
50.410        33
50.420        27
50.430        13
50.440        13
50.450        27
50.460        27
50.470        33
50.480        27
50.490        13
50.500        27
50.510        20
50.520         7
50.530         7
50.540        13
50.550        20
50.560        13
50.570        33
50.580        13
50.590        13
50.600         7
50.610         7
50.620        20
50.630        13
50.640        27
50.650        20
50.660         7
50.670        13
50.680        33
50.690        20
50.700        20
50.710        20
50.720        33
50.730        20
50.740        40
50.750        27
50.760        13
50.770        47
50.780        20
50.790        13
50.800        27
50.810        20
50.820        20
50.830         7
50.840        20
50.850        13
50.860        20
50.870        47
50.880        33
50.890        27
50.900        13
50.910        13
50.920        13
50.930        13
50.940        27
50.950        13
50.960         0
50.970        47
50.980         7
50.990        20
51.000        40
51.010        27
51.020        27
51.030        13
51.040        13
51.050        33
51.060        33
51.070        20
51.080        27
51.090        13
51.100        27
51.110        20
51.120         7
51.130        13
51.140        33
51.150         7
51.160         7
51.170        27
51.180        47
51.190        33
51.200         7
51.210        33
51.220        20
51.230        13
51.240        40
51.250         7
51.260        20
51.270        13
51.280        33
51.290        47
51.300        27
51.310        27
51.320        27
51.330        27
51.340        13
51.350        20
51.360         0
51.370        27
51.380        33
51.390        33
51.400        27
51.410        27
51.420        27
51.430        27
51.440        47
51.450        27
51.460        13
51.470        47
51.480        33
51.490        13
51.500        33
51.510        13
51.520        33
51.530         7
51.540        33
51.550        33
51.560        20
51.570         7
51.580        40
51.590        20
51.600        13
51.610        13
51.620        20
51.630        20
51.640        33
51.650        27
51.660        13
51.670        33
51.680         7
51.690        60
51.700        40
51.710         7
51.720        20
51.730        20
51.740        27
51.750        13
51.760        27
51.770        13
51.780        47
51.790        40
51.800        20
51.810        20
51.820        33
51.830        40
51.840        33
51.850        60
51.860        47
51.870        60
51.880        40
51.890        40
51.900        33
51.910        40
51.920        80
51.930        53
51.940        27
51.950        67
51.960        40
51.970        47
51.980        40
51.990        67
52.000        33
52.010        53
52.020        47
52.030        27
52.040        47
52.050        47
52.060        53
52.070        20
52.080        60
52.090        67
52.100        33
52.110        87
52.120        80
52.130        47
52.140        87
52.150        20
52.160        53
52.170        33
52.180        47
52.190        80
52.200        60
52.210        33
52.220        33
52.230        27
52.240         7
52.250        53
52.260        40
52.270        13
52.280        47
52.290        47
52.300        80
52.310        33
52.320        40
52.330        40
52.340        20
52.350        33
52.360        40
52.370        20
52.380        20
52.390        20
52.400        47
52.410        67
52.420        33
52.430        53
52.440        33
52.450        53
52.460        27
52.470        27
52.480        53
52.490        73
52.500        13
52.510        20
52.520        53
52.530        27
52.540        47
52.550        53
52.560        60
52.570        73
52.580        93
52.590        87
52.600        87
52.610        47
52.620        53
52.630        33
52.640        73
52.650        67
52.660        60
52.670        40
52.680        33
52.690        40
52.700        47
52.710        93
52.720        47
52.730        40
52.740        47
52.750        27
52.760        33
52.770        47
52.780        53
52.790        33
52.800        40
52.810        40
52.820        20
52.830        20
52.840         7
52.850        33
52.860        53
52.870        40
52.880        27
52.890        27
52.900        27
52.910        33
52.920        33
52.930        27
52.940        13
52.950        27
52.960        33
52.970        33
52.980        53
52.990        33
53.000        20
53.010        27
53.020         7
53.030        27
53.040        20
53.050        53
53.060        13
53.070         0
53.080        33
53.090        20
53.100        27
53.110        20
53.120        33
53.130        53
53.140         7
53.150        20
53.160        20
53.170        27
53.180        27
53.190        20
53.200        27
53.210        20
53.220        20
53.230        13
53.240        27
53.250        20
53.260         0
53.270        13
53.280        33
53.290        27
53.300        20
53.310        20
53.320        47
53.330        60
53.340        27
53.350         7
53.360        53
53.370         7
53.380         7
53.390        13
53.400        27
53.410        20
53.420        53
53.430        13
53.440        20
53.450        27
53.460        13
53.470         0
53.480        13
53.490         0
53.500        20
53.510        20
53.520        40
53.530        20
53.540        20
53.550        40
53.560        27
53.570         7
53.580        33
53.590        33
53.600        27
53.610        27
53.620        20
53.630        67
53.640        13
53.650        33
53.660         7
53.670        40
53.680        33
53.690        33
53.700         7
53.710        33
53.720        27
53.730        27
53.740        20
53.750         7
53.760        40
53.770        27
53.780        33
53.790         7
53.800        27
53.810        13
53.820        27
53.830        27
53.840        20
53.850        27
53.860         7
53.870        40
53.880        27
53.890         7
53.900        33
53.910        27
53.920        13
53.930        20
53.940        20
53.950        13
53.960        33
53.970        20
53.980        33
53.990        40
54.000        40
54.010        13
54.020        13
54.030        40
54.040        40
54.050        33
54.060        47
54.070        13
54.080        27
54.090        33
54.100        20
54.110        33
54.120         7
54.130        33
54.140         7
54.150        60
54.160        13
54.170        27
54.180        27
54.190        20
54.200        27
54.210        20
54.220         7
54.230        33
54.240        27
54.250        20
54.260         0
54.270        13
54.280        33
54.290        53
54.300        33
54.310         7
54.320        13
54.330         7
54.340        27
54.350        20
54.360        53
54.370        20
54.380        47
54.390        27
54.400        20
54.410        20
54.420        53
54.430         7
54.440        47
54.450        47
54.460         7
54.470        20
54.480        33
54.490         0
54.500        13
54.510        33
54.520        40
54.530        33
54.540        13
54.550        13
54.560        33
54.570        33
54.580        33
54.590         0
54.600        33
54.610         7
54.620        13
54.630        27
54.640        27
54.650        27
54.660        20
54.670        60
54.680        27
54.690        47
54.700        27
54.710        33
54.720         7
54.730        53
54.740        20
54.750        53
54.760        13
54.770        33
54.780        33
54.790        27
54.800        27
54.810        27
54.820         7
54.830        33
54.840        20
54.850         7
54.860        20
54.870         7
54.880        13
54.890        20
54.900        40
54.910         7
54.920        13
54.930        20
54.940        13
54.950        27
54.960         7
54.970        20
54.980        27
54.990        27
55.000        13
55.010        20
55.020        27
55.030        13
55.040        27
55.050        13
55.060        20
55.070        13
55.080        20
55.090        33
55.100         7
55.110        33
55.120         0
55.130         7
55.140         7
55.150        33
55.160        27
55.170        20
55.180        47
55.190        40
55.200        27
55.210        13
55.220        20
55.230        27
55.240        20
55.250        40
55.260        13
55.270        13
55.280         7
55.290        13
55.300        33
55.310        27
55.320        13
55.330         7
55.340        13
55.350         0
55.360         0
55.370        13
55.380        40
55.390         7
55.400        20
55.410        40
55.420        27
55.430        53
55.440        13
55.450        33
55.460        27
55.470        13
55.480        13
55.490         7
55.500        33
55.510        13
55.520        47
55.530        13
55.540        27
55.550        20
55.560        20
55.570        33
55.580         7
55.590        27
55.600        13
55.610        20
55.620        27
55.630        13
55.640        20
55.650         7
55.660        20
55.670        13
55.680        20
55.690        20
55.700        13
55.710        33
55.720         7
55.730         7
55.740         7
55.750         7
55.760        13
55.770        33
55.780        13
55.790        13
55.800        20
55.810        20
55.820        33
55.830         7
55.840        13
55.850        20
55.860        27
55.870         7
55.880        13
55.890        20
55.900        13
55.910        47
55.920         7
55.930        13
55.940        53
55.950        27
55.960        13
55.970        20
55.980        20
55.990        27
56.000        40
56.010        20
56.020        27
56.030        33
56.040        27
56.050        33
56.060        20
56.070        13
56.080        13
56.090        20
56.100        20
56.110        27
56.120        53
56.130        27
56.140        33
56.150        27
56.160        40
56.170        20
56.180        27
56.190         0
56.200        27
56.210        27
56.220        33
56.230        13
56.240        13
56.250        27
56.260        20
56.270        20
56.280        20
56.290         7
56.300         7
56.310        47
56.320         0
56.330        27
56.340        33
56.350        27
56.360         7
56.370         7
56.380        20
56.390        20
56.400        40
56.410         7
56.420        13
56.430        33
56.440        20
56.450        13
56.460        13
56.470        27
56.480         7
56.490        13
56.500        13
56.510        27
56.520        40
56.530        27
56.540         7
56.550        20
56.560        27
56.570        20
56.580        47
56.590        33
56.600        13
56.610        53
56.620        20
56.630        13
56.640        40
56.650         7
56.660        20
56.670         7
56.680        27
56.690         7
56.700        33
56.710        47
56.720        20
56.730        13
56.740        33
56.750         7
56.760        13
56.770         0
56.780         0
56.790        27
56.800        53
56.810        20
56.820        27
56.830        20
56.840        20
56.850        27
56.860        13
56.870        20
56.880        13
56.890        20
56.900        13
56.910        27
56.920         7
56.930         7
56.940         0
56.950        13
56.960        27
56.970        13
56.980        27
56.990         7
57.000        27
57.010        13
57.020        13
57.030        20
57.040        13
57.050        20
57.060        27
57.070        13
57.080         7
57.090        40
57.100        20
57.110        27
57.120        40
57.130         0
57.140        20
57.150        27
57.160        20
57.170        20
57.180        27
57.190        33
57.200        27
57.210         0
57.220        20
57.230        13
57.240         7
57.250        27
57.260        27
57.270        20
57.280        20
57.290        27
57.300        33
57.310        27
57.320        20
57.330        47
57.340        20
57.350         7
57.360        27
57.370        27
57.380        27
57.390        20
57.400        13
57.410        40
57.420        27
57.430        27
57.440         0
57.450        33
57.460        27
57.470        27
57.480         0
57.490         0
57.500        40
57.510         7
57.520        20
57.530        27
57.540        27
57.550         7
57.560        33
57.570        13
57.580        27
57.590        13
57.600        40
57.610        40
57.620        20
57.630        33
57.640        27
57.650        20
57.660         0
57.670        27
57.680        20
57.690        20
57.700        20
57.710        33
57.720        27
57.730        20
57.740        27
57.750        13
57.760        33
57.770        40
57.780        27
57.790        40
57.800        33
57.810         7
57.820         7
57.830        27
57.840        20
57.850         7
57.860         7
57.870        20
57.880        13
57.890         0
57.900        20
57.910        27
57.920        20
57.930         7
57.940        13
57.950         7
57.960        20
57.970        20
57.980        20
57.990        20
58.000        13
58.010        20
58.020        13
58.030        33
58.040         0
58.050        27
58.060        13
58.070        13
58.080        20
58.090         7
58.100         0
58.110        13
58.120        40
58.130        20
58.140        13
58.150        20
58.160         7
58.170         7
58.180        27
58.190        20
58.200         7
58.210         7
58.220        20
58.230        13
58.240        13
58.250        27
58.260        20
58.270        13
58.280        20
58.290         7
58.300         7
58.310         0
58.320        20
58.330        20
58.340        20
58.350        20
58.360        13
58.370        20
58.380         7
58.390        20
58.400        13
58.410        20
58.420        13
58.430        20
58.440         0
58.450         7
58.460        20
58.470        13
58.480         7
58.490        13
58.500        27
58.510        13
58.520        20
58.530        20
58.540        27
58.550         0
58.560         0
58.570        13
58.580        40
58.590        13
58.600         7
58.610         7
58.620         7
58.630        27
58.640         0
58.650        13
58.660         0
58.670         7
58.680        27
58.690        20
58.700        20
58.710        13
58.720        13
58.730        13
58.740        27
58.750        13
58.760        13
58.770         0
58.780         7
58.790        13
58.800        13
58.810         7
58.820        13
58.830        13
58.840        13
58.850         7
58.860         7
58.870         0
58.880        47
58.890        20
58.900        13
58.910         7
58.920        27
58.930        13
58.940         7
58.950         0
58.960         7
58.970        47
58.980        13
58.990         7
59.000        20
59.010        20
59.020        20
59.030         0
59.040         0
59.050         0
59.060         0
59.070        27
59.080         7
59.090        13
59.100         0
59.110        13
59.120         7
59.130        27
59.140         0
59.150         0
59.160        13
59.170        20
59.180        47
59.190         0
59.200        20
59.210         0
59.220         7
59.230         0
59.240        20
59.250         7
59.260        13
59.270        27
59.280        13
59.290         0
59.300        20
59.310        13
59.320        13
59.330        33
59.340        27
59.350         7
59.360        13
59.370        13
59.380        33
59.390         0
59.400         7
59.410        13
59.420        27
59.430        13
59.440         0
59.450        33
59.460        13
59.470         7
59.480        20
59.490        13
59.500         7
59.510         7
59.520        13
59.530         7
59.540        33
59.550         7
59.560        20
59.570        27
59.580         7
59.590         7
59.600         0
59.610         0
59.620        13
59.630        13
59.640        47
59.650        20
59.660        33
59.670        27
59.680         7
59.690        20
59.700        20
59.710        13
59.720        33
59.730         7
59.740         7
59.750        20
59.760        27
59.770        13
59.780         0
59.790        20
59.800        40
59.810        13
59.820        13
59.830         7
59.840        20
59.850         7
59.860        27
59.870        27
59.880        13
59.890        27
59.900         0
59.910        33
59.920         7
59.930        27
59.940         7
59.950        27
59.960         7
59.970        13
59.980        20
59.990        20
60.000         0
