20.000        53
20.010        53
20.020        20
20.030        33
20.040        73
20.050        53
20.060        47
20.070        40
20.080        27
20.090        13
20.100        13
20.110        33
20.120        53
20.130        40
20.140        27
20.150        47
20.160        40
20.170        47
20.180        47
20.190        53
20.200        13
20.210        20
20.220        73
20.230        47
20.240        53
20.250        20
20.260        33
20.270        33
20.280        40
20.290        67
20.300        47
20.310        40
20.320        20
20.330        27
20.340        27
20.350        40
20.360        27
20.370        33
20.380        20
20.390        53
20.400        40
20.410        40
20.420        40
20.430        47
20.440        53
20.450        20
20.460        33
20.470        47
20.480        47
20.490        53
20.500         7
20.510        60
20.520        60
20.530        20
20.540        33
20.550        20
20.560        40
20.570        27
20.580        33
20.590        33
20.600        47
20.610        33
20.620         7
20.630        47
20.640        33
20.650        20
20.660        40
20.670        27
20.680        27
20.690        27
20.700        20
20.710        33
20.720        27
20.730        27
20.740        47
20.750        33
20.760        33
20.770        13
20.780        27
20.790        40
20.800        20
20.810        27
20.820        27
20.830        27
20.840        27
20.850        20
20.860        27
20.870        87
20.880        20
20.890        60
20.900        47
20.910        33
20.920        53
20.930        60
20.940        33
20.950        27
20.960        67
20.970        47
20.980        33
20.990        33
21.000        40
21.010        20
21.020        13
21.030        40
21.040        47
21.050        33
21.060        40
21.070        13
21.080        27
21.090        33
21.100        67
21.110        60
21.120        40
21.130        27
21.140        33
21.150        27
21.160        33
21.170        40
21.180        40
21.190        13
21.200        73
21.210        47
21.220        33
21.230        27
21.240        40
21.250        33
21.260        27
21.270        53
21.280        33
21.290        40
21.300        27
21.310        53
21.320        40
21.330        27
21.340        13
21.350        40
21.360        27
21.370        27
21.380        13
21.390        60
21.400        13
21.410        47
21.420        53
21.430        13
21.440        47
21.450        27
21.460        40
21.470        40
21.480        13
21.490        47
21.500        40
21.510        40
21.520        33
21.530        33
21.540        27
21.550        60
21.560        27
21.570        47
21.580        47
21.590        20
21.600        20
21.610        40
21.620        27
21.630        47
21.640        20
21.650        53
21.660        20
21.670        20
21.680        33
21.690        33
21.700        60
21.710        20
21.720        40
21.730        60
21.740        40
21.750        27
21.760        40
21.770        33
21.780        40
21.790        33
21.800        13
21.810        47
21.820        27
21.830        33
21.840        33
21.850        13
21.860        13
21.870        27
21.880        40
21.890        33
21.900        13
21.910        20
21.920        60
21.930        47
21.940         7
21.950        20
21.960        53
21.970        13
21.980        27
21.990        20
22.000        53
22.010        33
22.020         7
22.030        27
22.040        13
22.050        33
22.060        40
22.070        47
22.080        33
22.090        20
22.100        27
22.110        40
22.120        40
22.130        47
22.140         7
22.150         7
22.160        47
22.170        33
22.180        47
22.190        20
22.200        40
22.210        27
22.220        33
22.230        53
22.240        53
22.250        40
22.260        40
22.270        47
22.280        40
22.290        20
22.300        53
22.310        20
22.320        33
22.330        33
22.340        40
22.350        20
22.360        13
22.370        33
22.380        33
22.390        27
22.400        20
22.410        60
22.420        33
22.430        20
22.440        47
22.450        20
22.460        33
22.470        47
22.480        67
22.490        33
22.500        20
22.510        40
22.520        33
22.530        60
22.540        40
22.550        20
22.560        53
22.570        40
22.580        27
22.590        27
22.600        67
22.610        20
22.620        47
22.630        67
22.640        53
22.650        67
22.660        13
22.670        40
22.680        67
22.690        40
22.700        53
22.710        53
22.720        73
22.730        33
22.740        20
22.750        47
22.760        80
22.770        20
22.780        27
22.790        33
22.800        60
22.810        47
22.820        53
22.830        47
22.840        47
22.850        33
22.860        40
22.870        13
22.880        40
22.890        40
22.900        40
22.910        53
22.920         7
22.930        20
22.940        67
22.950        40
22.960        40
22.970         7
22.980         7
22.990        27
23.000        20
23.010        47
23.020        27
23.030        60
23.040        47
23.050        53
23.060        67
23.070        60
23.080        33
23.090        27
23.100        13
23.110        33
23.120        40
23.130        27
23.140        27
23.150        33
23.160        33
23.170        33
23.180        27
23.190        47
23.200        33
23.210        27
23.220        27
23.230        27
23.240        40
23.250        53
23.260        13
23.270        20
23.280        40
23.290        33
23.300        27
23.310        20
23.320        27
23.330        20
23.340        13
23.350        47
23.360        33
23.370        27
23.380        53
23.390        40
23.400        53
23.410        40
23.420        47
23.430        47
23.440        40
23.450        27
23.460        13
23.470        20
23.480        27
23.490        33
23.500        20
23.510        27
23.520        13
23.530        27
23.540        33
23.550         7
23.560        20
23.570        60
23.580        53
23.590        27
23.600        80
23.610        40
23.620        33
23.630        27
23.640        60
23.650        27
23.660        27
23.670        40
23.680        27
23.690        13
23.700        33
23.710        40
23.720        53
23.730        13
23.740         0
23.750        33
23.760        27
23.770        47
23.780        40
23.790         7
23.800        60
23.810        13
23.820        40
23.830        27
23.840        40
23.850        20
23.860        53
23.870        20
23.880        20
23.890        47
23.900        13
23.910        27
23.920        67
23.930        20
23.940        20
23.950        33
23.960        33
23.970        27
23.980        20
23.990        40
24.000        13
24.010        40
24.020        47
24.030        27
24.040        27
24.050        20
24.060        33
24.070        13
24.080        27
24.090        33
24.100        13
24.110        47
24.120        13
24.130        20
24.140        20
24.150        20
24.160        27
24.170        13
24.180        27
24.190        27
24.200        20
24.210        27
24.220        40
24.230        33
24.240        33
24.250        20
24.260        20
24.270        20
24.280        33
24.290        33
24.300        20
24.310        13
24.320        20
24.330        27
24.340        20
24.350         7
24.360        47
24.370        33
24.380        47
24.390        13
24.400        27
24.410        13
24.420        53
24.430        60
24.440         7
24.450        20
24.460        73
24.470        27
24.480        20
24.490         7
24.500        27
24.510        27
24.520        13
24.530        27
24.540        40
24.550        53
24.560        60
24.570        40
24.580        27
24.590        33
24.600        13
24.610        47
24.620        20
24.630        47
24.640        27
24.650        33
24.660        27
24.670        47
24.680        20
24.690        33
24.700        20
24.710        33
24.720        13
24.730        20
24.740        60
24.750        53
24.760        40
24.770         7
24.780        53
24.790        13
24.800        20
24.810        53
24.820        60
24.830        40
24.840         7
24.850        47
24.860        33
24.870        27
24.880        20
24.890        47
24.900        47
24.910        47
24.920        33
24.930        13
24.940        40
24.950        33
24.960        33
24.970        20
24.980        53
24.990        33
25.000        47
25.010        27
25.020         0
25.030        20
25.040        40
25.050        53
25.060         0
25.070        20
25.080        33
25.090        20
25.100        27
25.110        47
25.120        47
25.130        20
25.140        40
25.150        33
25.160        20
25.170        27
25.180        47
25.190        33
25.200        53
25.210        20
25.220         7
25.230        20
25.240        47
25.250        13
25.260        27
25.270        20
25.280        20
25.290        33
25.300        13
25.310         7
25.320        33
25.330        33
25.340        33
25.350        13
25.360        47
25.370        33
25.380        20
25.390        13
25.400        33
25.410        33
25.420        20
25.430        33
25.440        33
25.450         7
25.460        53
25.470        33
25.480         7
25.490        40
25.500        33
25.510        27
25.520        33
25.530        13
25.540        13
25.550        53
25.560        67
25.570         7
25.580        67
25.590        67
25.600        40
25.610       100
25.620        47
25.630        93
25.640        67
25.650       100
25.660        40
25.670        20
25.680        33
25.690        40
25.700        53
25.710        33
25.720        60
25.730        27
25.740        20
25.750        47
25.760        27
25.770        47
25.780        53
25.790        67
25.800        47
25.810        33
25.820        53
25.830        60
25.840        13
25.850        53
25.860        53
25.870        20
25.880        53
25.890        27
25.900        47
25.910        33
25.920        27
25.930        20
25.940        20
25.950        27
25.960        13
25.970        33
25.980        27
25.990        47
26.000        20
26.010        40
26.020        13
26.030        53
26.040        20
26.050        47
26.060        20
26.070        27
26.080        20
26.090        27
26.100         7
26.110        20
26.120        40
26.130        33
26.140        13
26.150        33
26.160        20
26.170        13
26.180        27
26.190        13
26.200         7
26.210        27
26.220        20
26.230        27
26.240        33
26.250        53
26.260        47
26.270        20
26.280        27
26.290        20
26.300         7
26.310        13
26.320        40
26.330        20
26.340        27
26.350        27
26.360        13
26.370         7
26.380        40
26.390        40
26.400        27
26.410        20
26.420         7
26.430        53
26.440        40
26.450        13
26.460        20
26.470        53
26.480        40
26.490        13
26.500        67
26.510        33
26.520        27
26.530        33
26.540         7
26.550        13
26.560        13
26.570        27
26.580        20
26.590        13
26.600        20
26.610        40
26.620        27
26.630        53
26.640        33
26.650        27
26.660        27
26.670        13
26.680        20
26.690        13
26.700        20
26.710        27
26.720        40
26.730        20
26.740        20
26.750        20
26.760        20
26.770        13
26.780        13
26.790        20
26.800        33
26.810        33
26.820        20
26.830        47
26.840        13
26.850        33
26.860        40
26.870        27
26.880        33
26.890        13
26.900        33
26.910        13
26.920        20
26.930        20
26.940        33
26.950         7
26.960        13
26.970        47
26.980        13
26.990        27
27.000        27
27.010        20
27.020        33
27.030        33
27.040        13
27.050        27
27.060        13
27.070        27
27.080        53
27.090        27
27.100        20
27.110        27
27.120         7
27.130        13
27.140         7
27.150        27
27.160        27
27.170        27
27.180        27
27.190        73
27.200        20
27.210        47
27.220        33
27.230        27
27.240        27
27.250        13
27.260        20
27.270        33
27.280         7
27.290         7
27.300        27
27.310        33
27.320        33
27.330        20
27.340        13
27.350        20
27.360        27
27.370        27
27.380        33
27.390        20
27.400        40
27.410        33
27.420        27
27.430        13
27.440        27
27.450        33
27.460        20
27.470         7
27.480        13
27.490        13
27.500        27
27.510        33
27.520        53
27.530        20
27.540        27
27.550        27
27.560        47
27.570         7
27.580        47
27.590        27
27.600        40
27.610        53
27.620        27
27.630        13
27.640        27
27.650        27
27.660         7
27.670        20
27.680        33
27.690        27
27.700        40
27.710        13
27.720        60
27.730        53
27.740        53
27.750        33
27.760        73
27.770        13
27.780        53
27.790        40
27.800        60
27.810        53
27.820        80
27.830        40
27.840        80
27.850        53
27.860        73
27.870        33
27.880        73
27.890        73
27.900        73
27.910        60
27.920        40
27.930        87
27.940        33
27.950        60
27.960        33
27.970        47
27.980        33
27.990        40
28.000        40
28.010        33
28.020        20
28.030        40
28.040        27
28.050        13
28.060        27
28.070        20
28.080        13
28.090        20
28.100        27
28.110         7
28.120        20
28.130        27
28.140         7
28.150        13
28.160        27
28.170         7
28.180        33
28.190        27
28.200        40
28.210         7
28.220        13
28.230        27
28.240        33
28.250        60
28.260        20
28.270        27
28.280        20
28.290        20
28.300        20
28.310        33
28.320        20
28.330        27
28.340        33
28.350        20
28.360        40
28.370        33
28.380        47
28.390        20
28.400        47
28.410        13
28.420        40
28.430        47
28.440        27
28.450        40
28.460        47
28.470        13
28.480        27
28.490        27
28.500        13
28.510        13
28.520        13
28.530        40
28.540        27
28.550        13
28.560        40
28.570        27
28.580        27
28.590        20
28.600        27
28.610        20
28.620        33
28.630        13
28.640        27
28.650        47
28.660        33
28.670        27
28.680        27
28.690         7
28.700        33
28.710        20
28.720        27
28.730        80
28.740        40
28.750        47
28.760        33
28.770        40
28.780        13
28.790        40
28.800        40
28.810        20
28.820        27
28.830        67
28.840        33
28.850        40
28.860        47
28.870        13
28.880        33
28.890        27
28.900        40
28.910        53
28.920        60
28.930        67
28.940        60
28.950        40
28.960        73
28.970        40
28.980        53
28.990        60
29.000        67
29.010        60
29.020        80
29.030        47
29.040        73
29.050        73
29.060        40
29.070        93
29.080        87
29.090        87
29.100       107
29.110        87
29.120       113
29.130        93
29.140        93
29.150        87
29.160        87
29.170       100
29.180        53
29.190        47
29.200        47
29.210        93
29.220        53
29.230        27
29.240        33
29.250        33
29.260        60
29.270        80
29.280        53
29.290        40
29.300        40
29.310        53
29.320        40
29.330        40
29.340        47
29.350        60
29.360        73
29.370        33
29.380        40
29.390         0
29.400        53
29.410        53
29.420        40
29.430        20
29.440        60
29.450        33
29.460        33
29.470        13
29.480         7
29.490        33
29.500        40
29.510        33
29.520        40
29.530        53
29.540        60
29.550        33
29.560        27
29.570        47
29.580        47
29.590        33
29.600        67
29.610        47
29.620        33
29.630        47
29.640        40
29.650        13
29.660        40
29.670        73
29.680        47
29.690        53
29.700        27
29.710        47
29.720        27
29.730        27
29.740        27
29.750        27
29.760        20
29.770        33
29.780        33
29.790         7
29.800        20
29.810         7
29.820        40
29.830        27
29.840        47
29.850         7
29.860        27
29.870        20
29.880        27
29.890        20
29.900        33
29.910        40
29.920        40
29.930         7
29.940        53
29.950        20
29.960        20
29.970        20
29.980        20
29.990        13
30.000        20
30.010         0
30.020        13
30.030        27
30.040        33
30.050        27
30.060        27
30.070        40
30.080        27
30.090        33
30.100        20
30.110        33
30.120        13
30.130         7
30.140        27
30.150         7
30.160        40
30.170        20
30.180        20
30.190        13
30.200        13
30.210        13
30.220         7
30.230        20
30.240        13
30.250        27
30.260        20
30.270        13
30.280        20
30.290        40
30.300        20
30.310        53
30.320        33
30.330        27
30.340        13
30.350         0
30.360        13
30.370        20
30.380        40
30.390        20
30.400        20
30.410        20
30.420        33
30.430        40
30.440        40
30.450        47
30.460        53
30.470        27
30.480        47
30.490        33
30.500        20
30.510        13
30.520        40
30.530        53
30.540        20
30.550        27
30.560        20
30.570        20
30.580        13
30.590        13
30.600        27
30.610        20
30.620        33
30.630        27
30.640        53
30.650        20
30.660        60
30.670        53
30.680        40
30.690         0
30.700        13
30.710         7
30.720         0
30.730        13
30.740        33
30.750        20
30.760         7
30.770        13
30.780        13
30.790        27
30.800         7
30.810        20
30.820        20
30.830        13
30.840         7
30.850        40
30.860        13
30.870        13
30.880         0
30.890        20
30.900        27
30.910        20
30.920        13
30.930        13
30.940        27
30.950         0
30.960        13
30.970        33
30.980        20
30.990        33
31.000        27
31.010        20
31.020        13
31.030        27
31.040        40
31.050         7
31.060         7
31.070        20
31.080        13
31.090        27
31.100        40
31.110        13
31.120        47
31.130        20
31.140        20
31.150        40
31.160        13
31.170        47
31.180         7
31.190        13
31.200        20
31.210        20
31.220        27
31.230        33
31.240        27
31.250        27
31.260        40
31.270        13
31.280        67
31.290        40
31.300        20
31.310        27
31.320        33
31.330        53
31.340        13
31.350        33
31.360        20
31.370        27
31.380        27
31.390        33
31.400        20
31.410        47
31.420        27
31.430        27
31.440        40
31.450        27
31.460        40
31.470         7
31.480        47
31.490        20
31.500        27
31.510        33
31.520        47
31.530        33
31.540         7
31.550        27
31.560        13
31.570        27
31.580        47
31.590        13
31.600        33
31.610        40
31.620        27
31.630        27
31.640        13
31.650        27
31.660        27
31.670        27
31.680        27
31.690         7
31.700        13
31.710         7
31.720        20
31.730        33
31.740         7
31.750        40
31.760        40
31.770        27
31.780        13
31.790        40
31.800        13
31.810        20
31.820        20
31.830        20
31.840        27
31.850        27
31.860        13
31.870        40
31.880        13
31.890        20
31.900        27
31.910        20
31.920        33
31.930        33
31.940         0
31.950        20
31.960        27
31.970        20
31.980        13
31.990         7
32.000        40
32.010        53
32.020        20
32.030        20
32.040        20
32.050        27
32.060        33
32.070        33
32.080        47
32.090        33
32.100        40
32.110        27
32.120        47
32.130        20
32.140        93
32.150        73
32.160        47
32.170        13
32.180        73
32.190        60
32.200        27
32.210        40
32.220        33
32.230        73
32.240        27
32.250        73
32.260        53
32.270        80
32.280       107
32.290        40
32.300        47
32.310        47
32.320        87
32.330        67
32.340        53
32.350        40
32.360        47
32.370        27
32.380        33
32.390        27
32.400        40
32.410        27
32.420        20
32.430        13
32.440        33
32.450        27
32.460        27
32.470        53
32.480        20
32.490        13
32.500        27
32.510        13
32.520        13
32.530        20
32.540        20
32.550        27
32.560        20
32.570        27
32.580        20
32.590        20
32.600        13
32.610        60
32.620        13
32.630         7
32.640        33
32.650        60
32.660        27
32.670        27
32.680        13
32.690        27
32.700        53
32.710        20
32.720        47
32.730        40
32.740        40
32.750        33
32.760        20
32.770        47
32.780        47
32.790        33
32.800        13
32.810        20
32.820        20
32.830        40
32.840         7
32.850        40
32.860        33
32.870        13
32.880        47
32.890         7
32.900        40
32.910        13
32.920        20
32.930        40
32.940        27
32.950        20
32.960        40
32.970        27
32.980        20
32.990        20
33.000         7
33.010        27
33.020         7
33.030         7
33.040        13
33.050        27
33.060        33
33.070        40
33.080        13
33.090        47
33.100        33
33.110        27
33.120        20
33.130         0
33.140        13
33.150         7
33.160        27
33.170        27
33.180         0
33.190        20
33.200        13
33.210        33
33.220        20
33.230        27
33.240         0
33.250         7
33.260         0
33.270         7
33.280         7
33.290        20
33.300        13
33.310        20
33.320        13
33.330        20
33.340        20
33.350        27
33.360         7
33.370        13
33.380        33
33.390        13
33.400         0
33.410         7
33.420        20
33.430         7
33.440         0
33.450        33
33.460        27
33.470        27
33.480        13
33.490         7
33.500         7
33.510        13
33.520        27
33.530         7
33.540        33
33.550        13
33.560         7
33.570        20
33.580         0
33.590        33
33.600        20
33.610        13
33.620         7
33.630        13
33.640        13
33.650        20
33.660        20
33.670        27
33.680        13
33.690         7
33.700        13
33.710        13
33.720        13
33.730        13
33.740        13
33.750         7
33.760        33
33.770         7
33.780         0
33.790        27
33.800        20
33.810        13
33.820        13
33.830         7
33.840         0
33.850        20
33.860        13
33.870        13
33.880        13
33.890        13
33.900         7
33.910        27
33.920        33
33.930        20
33.940         7
33.950         7
33.960        33
33.970         7
33.980        20
33.990        20
34.000        33
34.010         0
34.020        13
34.030        27
34.040        27
34.050         7
34.060        13
34.070        13
34.080        13
34.090        13
34.100        13
34.110         0
34.120        27
34.130        13
34.140        13
34.150         7
34.160        13
34.170         7
34.180        20
34.190        13
34.200        13
34.210        13
34.220        20
34.230        20
34.240        27
34.250        13
34.260         7
34.270        13
34.280        20
34.290        13
34.300        20
34.310         0
34.320         0
34.330         7
34.340         0
34.350         7
34.360        13
34.370        20
34.380        27
34.390        13
34.400        27
34.410        33
34.420        47
34.430        40
34.440        27
34.450        13
34.460        13
34.470         7
34.480        33
34.490        13
34.500        13
34.510        47
34.520        20
34.530         0
34.540        20
34.550        20
34.560        13
34.570        27
34.580        40
34.590        20
34.600        27
34.610         7
34.620        47
34.630         0
34.640        33
34.650        13
34.660         7
34.670        13
34.680         7
34.690        27
34.700        20
34.710        33
34.720        33
34.730        33
34.740        27
34.750        13
34.760         0
34.770        27
34.780         0
34.790        13
34.800        47
34.810        20
34.820         7
34.830         7
34.840         7
34.850        13
34.860        27
34.870        40
34.880        27
34.890        20
34.900        33
34.910         7
34.920        13
34.930        13
34.940        20
34.950        13
34.960        13
34.970        13
34.980         7
34.990        20
35.000        40
35.010        27
35.020        33
35.030        13
35.040         0
35.050         0
35.060         0
35.070        27
35.080        13
35.090         7
35.100         0
35.110         7
35.120         7
35.130        20
35.140        13
35.150        33
35.160        13
35.170         7
35.180         0
35.190        20
35.200         7
35.210         7
35.220        13
35.230        20
35.240        13
35.250        47
35.260        20
35.270         7
35.280        20
35.290        27
35.300         7
35.310        13
35.320        20
35.330        33
35.340        20
35.350        27
35.360        27
35.370        27
35.380        13
35.390         7
35.400        13
35.410        33
35.420         7
35.430        13
35.440         7
35.450         7
35.460         7
35.470         7
35.480         7
35.490         0
35.500        20
35.510         7
35.520        27
35.530        20
35.540        33
35.550        13
35.560        20
35.570         7
35.580         0
35.590        13
35.600        20
35.610         7
35.620        13
35.630         7
35.640        40
35.650         7
35.660         7
35.670        13
35.680         0
35.690        27
35.700         7
35.710        40
35.720        13
35.730        20
35.740        27
35.750         7
35.760        13
35.770         7
35.780        27
35.790        20
35.800         7
35.810         0
35.820         7
35.830        33
35.840        13
35.850        13
35.860        20
35.870        13
35.880        13
35.890        13
35.900        27
35.910         7
35.920        40
35.930         7
35.940        40
35.950        13
35.960         7
35.970        13
35.980         7
35.990        13
36.000        33
36.010        27
36.020        33
36.030        13
36.040        40
36.050        27
36.060        20
36.070        13
36.080         7
36.090         7
36.100        27
36.110        27
36.120        27
36.130         7
36.140        13
36.150        20
36.160        27
36.170        47
36.180        13
36.190        20
36.200        20
36.210        13
36.220         0
36.230        13
36.240        13
36.250        20
36.260         0
36.270        27
36.280        27
36.290         7
36.300        13
36.310         7
36.320        27
36.330        40
36.340        27
36.350        13
36.360        20
36.370        20
36.380        33
36.390        20
36.400        33
36.410         7
36.420        20
36.430        13
36.440        20
36.450        13
36.460        13
36.470        20
36.480        13
36.490        20
36.500         7
36.510        13
36.520         7
36.530         7
36.540        27
36.550         7
36.560        13
36.570         7
36.580        33
36.590        40
36.600        27
36.610        53
36.620         7
36.630        13
36.640        20
36.650        20
36.660        20
36.670        13
36.680        20
36.690        13
36.700        13
36.710         7
36.720         0
36.730        20
36.740        20
36.750        20
36.760        33
36.770        13
36.780        13
36.790         7
36.800        27
36.810        27
36.820        20
36.830        20
36.840         7
36.850        13
36.860        27
36.870        27
36.880         0
36.890        13
36.900        20
36.910        33
36.920        20
36.930        27
36.940        20
36.950        20
36.960        33
36.970        13
36.980         0
36.990        20
37.000        13
37.010        13
37.020        40
37.030         0
37.040        20
37.050        13
37.060        13
37.070        67
37.080        27
37.090         7
37.100         7
37.110         7
37.120        13
37.130        27
37.140        20
37.150        20
37.160        27
37.170         7
37.180        33
37.190        27
37.200        27
37.210        13
37.220        13
37.230        13
37.240         7
37.250         7
37.260        13
37.270        13
37.280         7
37.290        27
37.300         0
37.310        27
37.320        13
37.330        13
37.340        13
37.350        33
37.360         7
37.370        27
37.380        20
37.390         7
37.400        20
37.410        13
37.420         7
37.430        20
37.440         0
37.450        13
37.460         7
37.470        13
37.480        13
37.490        20
37.500        13
37.510         7
37.520        13
37.530        33
37.540        27
37.550         7
37.560        13
37.570        40
37.580         0
37.590        27
37.600         7
37.610        13
37.620        13
37.630        33
37.640         7
37.650         0
37.660        13
37.670        13
37.680        13
37.690         0
37.700        13
37.710         7
37.720        40
37.730         7
37.740        20
37.750        13
37.760        47
37.770         7
37.780         7
37.790        33
37.800        20
37.810         7
37.820        13
37.830         0
37.840        20
37.850        13
37.860         7
37.870         7
37.880         7
37.890        13
37.900        13
37.910        20
37.920        20
37.930        13
37.940         0
37.950        27
37.960        20
37.970        47
37.980        20
37.990        13
38.000         7
38.010         7
38.020        13
38.030        20
38.040         7
38.050        20
38.060         0
38.070         7
38.080         0
38.090        13
38.100        33
38.110        13
38.120        20
38.130        20
38.140        13
38.150         0
38.160        33
38.170        27
38.180        13
38.190        27
38.200        13
38.210        27
38.220        13
38.230        27
38.240         7
38.250        33
38.260        20
38.270        27
38.280        13
38.290        27
38.300        20
38.310         7
38.320         7
38.330         0
38.340        27
38.350         0
38.360        27
38.370        33
38.380         7
38.390         7
38.400        20
38.410        20
38.420        47
38.430        33
38.440        27
38.450         0
38.460        20
38.470        13
38.480        20
38.490        27
38.500        20
38.510         7
38.520        27
38.530         0
38.540        13
38.550        13
38.560         7
38.570        20
38.580         7
38.590         7
38.600        27
38.610         7
38.620        13
38.630        13
38.640         0
38.650        13
38.660        20
38.670        13
38.680        27
38.690        13
38.700        13
38.710        40
38.720        33
38.730        20
38.740         7
38.750         7
38.760         7
38.770        13
38.780        20
38.790        20
38.800        27
38.810         7
38.820        33
38.830        13
38.840        13
38.850         7
38.860        40
38.870        13
38.880        13
38.890        53
38.900        27
38.910         7
38.920        27
38.930        53
38.940        27
38.950        33
38.960        27
38.970        20
38.980        20
38.990        20
39.000        27
39.010        20
39.020        27
39.030         7
39.040        27
39.050        33
39.060        13
39.070         7
39.080        27
39.090        33
39.100        40
39.110        13
39.120        27
39.130        13
39.140        13
39.150        20
39.160         7
39.170        13
39.180        40
39.190        53
39.200        20
39.210        13
39.220        20
39.230        27
39.240        13
39.250         0
39.260        33
39.270        40
39.280        27
39.290        13
39.300        40
39.310        33
39.320        33
39.330         7
39.340        20
39.350        13
39.360        13
39.370        33
39.380        20
39.390        13
39.400         7
39.410        27
39.420        47
39.430        13
39.440         7
39.450        27
39.460        13
39.470        27
39.480         0
39.490        20
39.500         7
39.510         7
39.520        20
39.530         7
39.540         0
39.550         0
39.560        20
39.570        27
39.580        20
39.590         0
39.600        40
39.610        13
39.620        13
39.630        20
39.640        13
39.650        27
39.660         7
39.670        20
39.680        40
39.690         0
39.700        13
39.710         7
39.720        13
39.730        27
39.740        40
39.750         7
39.760        13
39.770        33
39.780        27
39.790        13
39.800         7
39.810         7
39.820        13
39.830         7
39.840        13
39.850        33
39.860        13
39.870        33
39.880        27
39.890        27
39.900        20
39.910         7
39.920        13
39.930         7
39.940         0
39.950         7
39.960        27
39.970        20
39.980        27
39.990        27
40.000        27
40.010        13
40.020         7
40.030        47
40.040         0
40.050        20
40.060        27
40.070        33
40.080        20
40.090        13
40.100        27
40.110        40
40.120        33
40.130        33
40.140        40
40.150        27
40.160        27
40.170        33
40.180         0
40.190        27
40.200        13
40.210        47
40.220        13
40.230        20
40.240        13
40.250        33
40.260        27
40.270        33
40.280        20
40.290         7
40.300        27
40.310        20
40.320         7
40.330         0
40.340        27
40.350        33
40.360        27
40.370        20
40.380        40
40.390        33
40.400        20
40.410        33
40.420        20
40.430        20
40.440        13
40.450        40
40.460         0
40.470        33
40.480        20
40.490        13
40.500        27
40.510        20
40.520        33
40.530        13
40.540         7
40.550        27
40.560        13
40.570        20
40.580        20
40.590         7
40.600        27
40.610        20
40.620        13
40.630        40
40.640        33
40.650        33
40.660        47
40.670        33
40.680         7
40.690        20
40.700        47
40.710         7
40.720        13
40.730        13
40.740        20
40.750        20
40.760         7
40.770        33
40.780        20
40.790        13
40.800         7
40.810         7
40.820        33
40.830        27
40.840         7
40.850        20
40.860        13
40.870         0
40.880         0
40.890        20
40.900        20
40.910        13
40.920         7
40.930        27
40.940         7
40.950        13
40.960        20
40.970        13
40.980         7
40.990        27
41.000        13
41.010        27
41.020         7
41.030        27
41.040         7
41.050        27
41.060        27
41.070        13
41.080        33
41.090         0
41.100        13
41.110        20
41.120        33
41.130        13
41.140        33
41.150        20
41.160        33
41.170        20
41.180        20
41.190        27
41.200        27
41.210        27
41.220        13
41.230        20
41.240         0
41.250        33
41.260         7
41.270        20
41.280        20
41.290         0
41.300        27
41.310         7
41.320         7
41.330        13
41.340         7
41.350        13
41.360         7
41.370        20
41.380        47
41.390         7
41.400         7
41.410        13
41.420         0
41.430        33
41.440         7
41.450        20
41.460        20
41.470         7
41.480        20
41.490        13
41.500        20
41.510        27
41.520        20
41.530        13
41.540        33
41.550        20
41.560         7
41.570        13
41.580        20
41.590         0
41.600        13
41.610        13
41.620        13
41.630        13
41.640        33
41.650        20
41.660        27
41.670        13
41.680        27
41.690         7
41.700        13
41.710         7
41.720        13
41.730         7
41.740        13
41.750         7
41.760        27
41.770        13
41.780        33
41.790        13
41.800        27
41.810        13
41.820         7
41.830        13
41.840        27
41.850         7
41.860        20
41.870         7
41.880        13
41.890        20
41.900        13
41.910        13
41.920        13
41.930         7
41.940        20
41.950        33
41.960        20
41.970        13
41.980        33
41.990        13
42.000        13
42.010        27
42.020        13
42.030        20
42.040        33
42.050        20
42.060        27
42.070        13
42.080        20
42.090        27
42.100        20
42.110        20
42.120        27
42.130        13
42.140        27
42.150        27
42.160         7
42.170         0
42.180         7
42.190        33
42.200        40
42.210        20
42.220        33
42.230        53
42.240        20
42.250        13
42.260         7
42.270        13
42.280        27
42.290        27
42.300         0
42.310         0
42.320        27
42.330        13
42.340        13
42.350        20
42.360        20
42.370        33
42.380        27
42.390         7
42.400        20
42.410        13
42.420         7
42.430        27
42.440        20
42.450         0
42.460        27
42.470        20
42.480         7
42.490        13
42.500        27
42.510        40
42.520        27
42.530         7
42.540        20
42.550        13
42.560        20
42.570        20
42.580        33
42.590        33
42.600         7
42.610        13
42.620         7
42.630        20
42.640        13
42.650        53
42.660        13
42.670         7
42.680        20
42.690        40
42.700        13
42.710        33
42.720         7
42.730        40
42.740        33
42.750         7
42.760        27
42.770        20
42.780        27
42.790        53
42.800        40
42.810         7
42.820        27
42.830        13
42.840        33
42.850        27
42.860         7
42.870         7
42.880         7
42.890        13
42.900         7
42.910        40
42.920        20
42.930        13
42.940        40
42.950        20
42.960        27
42.970        20
42.980        47
42.990        40
43.000        27
43.010        20
43.020         7
43.030         0
43.040        13
43.050        27
43.060        47
43.070        13
43.080        27
43.090        13
43.100         7
43.110        27
43.120        20
43.130        27
43.140        27
43.150        13
43.160        33
43.170        27
43.180        33
43.190         7
43.200         7
43.210        33
43.220        20
43.230        13
43.240        20
43.250        27
43.260        20
43.270        13
43.280        20
43.290        13
43.300        27
43.310         0
43.320        13
43.330        27
43.340         0
43.350        40
43.360        40
43.370        13
43.380        13
43.390         0
43.400        13
43.410        13
43.420        13
43.430        33
43.440        13
43.450        13
43.460        20
43.470        27
43.480        47
43.490        20
43.500        13
43.510         0
43.520        33
43.530        33
43.540         0
43.550         0
43.560        20
43.570        13
43.580        27
43.590        27
43.600        27
43.610        20
43.620        33
43.630        27
43.640        20
43.650         7
43.660        27
43.670        20
43.680        20
43.690        33
43.700        33
43.710        13
43.720        13
43.730        13
43.740        20
43.750        20
43.760        20
43.770         0
43.780         7
43.790        33
43.800        13
43.810        27
43.820         0
43.830        13
43.840        20
43.850        40
43.860        20
43.870        13
43.880         0
43.890         7
43.900        13
43.910        20
43.920        13
43.930        20
43.940        40
43.950        13
43.960         7
43.970        13
43.980         0
43.990        13
44.000        20
44.010        13
44.020        13
44.030        20
44.040        40
44.050        27
44.060        13
44.070        13
44.080         7
44.090        20
44.100        40
44.110        33
44.120        20
44.130        27
44.140        13
44.150        13
44.160        20
44.170        20
44.180         7
44.190        27
44.200         7
44.210        47
44.220         0
44.230        20
44.240        33
44.250        13
44.260         7
44.270        27
44.280        27
44.290        20
44.300        13
44.310        27
44.320        27
44.330         7
44.340        33
44.350         0
44.360        60
44.370         0
44.380        27
44.390         7
44.400         0
44.410        40
44.420        33
44.430         7
44.440         7
44.450        20
44.460        13
44.470        13
44.480         0
44.490         7
44.500        27
44.510        13
44.520        20
44.530        13
44.540         7
44.550        13
44.560        20
44.570        20
44.580        27
44.590        20
44.600        27
44.610        40
44.620        20
44.630        27
44.640        27
44.650         7
44.660        13
44.670        27
44.680        13
44.690        20
44.700         7
44.710        20
44.720        13
44.730         0
44.740         7
44.750        13
44.760         7
44.770        20
44.780        20
44.790         7
44.800        40
44.810        20
44.820         0
44.830         7
44.840        20
44.850        53
44.860        27
44.870        20
44.880         7
44.890        13
44.900        13
44.910        20
44.920         7
44.930        27
44.940        33
44.950        27
44.960         0
44.970        13
44.980         7
44.990        40
45.000         0
45.010        13
45.020         7
45.030        13
45.040        13
45.050        13
45.060        27
45.070        40
45.080        20
45.090        13
45.100        13
45.110        20
45.120         0
45.130         7
45.140        20
45.150        33
45.160        20
45.170        13
45.180         7
45.190        27
45.200         7
45.210        13
45.220         7
45.230        47
45.240        27
45.250        13
45.260        27
45.270        20
45.280        33
45.290         7
45.300        20
45.310        13
45.320        27
45.330        13
45.340        40
45.350         7
45.360        20
45.370        20
45.380        20
45.390         0
45.400         7
45.410        13
45.420        27
45.430        13
45.440        33
45.450         7
45.460         7
45.470        33
45.480         7
45.490        13
45.500         0
45.510        20
45.520        20
45.530        20
45.540         7
45.550        27
45.560        13
45.570        13
45.580         7
45.590        33
45.600         7
45.610        20
45.620        20
45.630        27
45.640         7
45.650        20
45.660        20
45.670        13
45.680         7
45.690        20
45.700        13
45.710        47
45.720        20
45.730        33
45.740        20
45.750         7
45.760         7
45.770         7
45.780        13
45.790        40
45.800        20
45.810        33
45.820        60
45.830        13
45.840         7
45.850        13
45.860        20
45.870        20
45.880        33
45.890        20
45.900        33
45.910        27
45.920        20
45.930        20
45.940        33
45.950        20
45.960        40
45.970        20
45.980        20
45.990        13
46.000        20
46.010         7
46.020        20
46.030        20
46.040        33
46.050        27
46.060        13
46.070        13
46.080        27
46.090        20
46.100         7
46.110         7
46.120        27
46.130         7
46.140        27
46.150        40
46.160        13
46.170        13
46.180        60
46.190         7
46.200        33
46.210        20
46.220        27
46.230        20
46.240        20
46.250         0
46.260        13
46.270        27
46.280        20
46.290        13
46.300        33
46.310        13
46.320        13
46.330        13
46.340        13
46.350        27
46.360        40
46.370        53
46.380        13
46.390        27
46.400         7
46.410        53
46.420        33
46.430        47
46.440        20
46.450        27
46.460        20
46.470         7
46.480        20
46.490        20
46.500        13
46.510        33
46.520        33
46.530         7
46.540        40
46.550         7
46.560        27
46.570        40
46.580        27
46.590        20
46.600         0
46.610        27
46.620        20
46.630        20
46.640        33
46.650         0
46.660        20
46.670        27
46.680        27
46.690        20
46.700        13
46.710        27
46.720        33
46.730         7
46.740        13
46.750        27
46.760        27
46.770        27
46.780        47
46.790        20
46.800        20
46.810        20
46.820        20
46.830         7
46.840        20
46.850         7
46.860         7
46.870         7
46.880         7
46.890         7
46.900        27
46.910        27
46.920         7
46.930        40
46.940        20
46.950        40
46.960         7
46.970        33
46.980        27
46.990        13
47.000        20
47.010        13
47.020        13
47.030         0
47.040        27
47.050        20
47.060        20
47.070         0
47.080        27
47.090        27
47.100         7
47.110        47
47.120        20
47.130         7
47.140        13
47.150        20
47.160         7
47.170        20
47.180        13
47.190        20
47.200        13
47.210        27
47.220        33
47.230        27
47.240         7
47.250        20
47.260         7
47.270        27
47.280        20
47.290        40
47.300        47
47.310        13
47.320        27
47.330        13
47.340        33
47.350        33
47.360         0
47.370        27
47.380        13
47.390        13
47.400        20
47.410        40
47.420        27
47.430        13
47.440         7
47.450        33
47.460        13
47.470        33
47.480        20
47.490        20
47.500         7
47.510        33
47.520        20
47.530        20
47.540        40
47.550        13
47.560        20
47.570        20
47.580        20
47.590        13
47.600        13
47.610        27
47.620         7
47.630        20
47.640        13
47.650         7
47.660        13
47.670        20
47.680        20
47.690        13
47.700        20
47.710         7
47.720        13
47.730         7
47.740        20
47.750         7
47.760        13
47.770        27
47.780         7
47.790        13
47.800         7
47.810        20
47.820        13
47.830        20
47.840         7
47.850        27
47.860        13
47.870        20
47.880        13
47.890        27
47.900        20
47.910         0
47.920         7
47.930        33
47.940        20
47.950         7
47.960         0
47.970        13
47.980        27
47.990        20
48.000        27
48.010         7
48.020         7
48.030        20
48.040         0
48.050         0
48.060        13
48.070        20
48.080        47
48.090        33
48.100        33
48.110        33
48.120        33
48.130        13
48.140        13
48.150        13
48.160        20
48.170         0
48.180        47
48.190         7
48.200        13
48.210        53
48.220        33
48.230         0
48.240        20
48.250        13
48.260        13
48.270        27
48.280        13
48.290        13
48.300        40
48.310        40
48.320        33
48.330        27
48.340        33
48.350        13
48.360        33
48.370        27
48.380        27
48.390        20
48.400         7
48.410        33
48.420        20
48.430        27
48.440        40
48.450        33
48.460        47
48.470        20
48.480         0
48.490        20
48.500        20
48.510        13
48.520        20
48.530        20
48.540        20
48.550        20
48.560         7
48.570         7
48.580        20
48.590         7
48.600        33
48.610        20
48.620        27
48.630        20
48.640        27
48.650         7
48.660        33
48.670        33
48.680        33
48.690         0
48.700        40
48.710        27
48.720         7
48.730        13
48.740        13
48.750        27
48.760        27
48.770         7
48.780         7
48.790        33
48.800        27
48.810        20
48.820        27
48.830        20
48.840        13
48.850         7
48.860        33
48.870        40
48.880         0
48.890         7
48.900         0
48.910        27
48.920        20
48.930        27
48.940        33
48.950         0
48.960        33
48.970         0
48.980        13
48.990        13
49.000         7
49.010        27
49.020         7
49.030        13
49.040         7
49.050        27
49.060        20
49.070         0
49.080        13
49.090        40
49.100        33
49.110        33
49.120        27
49.130        13
49.140        20
49.150        40
49.160         0
49.170        20
49.180        27
49.190        20
49.200        20
49.210         7
49.220         0
49.230        20
49.240        13
49.250        13
49.260        27
49.270        20
49.280        27
49.290        13
49.300        40
49.310        13
49.320        13
49.330        27
49.340        13
49.350        27
49.360        27
49.370         7
49.380         7
49.390        13
49.400        20
49.410         7
49.420         7
49.430        40
49.440        27
49.450        13
49.460        20
49.470        20
49.480        27
49.490        13
49.500        13
49.510        20
49.520        20
49.530        20
49.540        20
49.550         0
49.560         0
49.570         7
49.580        13
49.590         0
49.600        20
49.610         7
49.620        13
49.630        20
49.640        13
49.650        13
49.660        20
49.670        20
49.680        33
49.690        13
49.700        13
49.710        13
49.720        33
49.730        33
49.740        13
49.750        27
49.760        33
49.770        20
49.780        13
49.790        13
49.800        13
49.810        40
49.820        40
49.830        20
49.840        33
49.850        13
49.860        40
49.870        53
49.880        27
49.890        47
49.900        27
49.910        13
49.920         0
49.930        20
49.940         7
49.950        27
49.960        13
49.970        27
49.980        27
49.990        40
50.000        13
50.010        53
50.020        27
50.030        40
50.040        20
50.050        13
50.060        40
50.070        40
50.080        47
50.090        20
50.100        33
50.110        13
50.120        27
50.130        13
50.140        27
50.150        13
50.160        47
50.170        53
50.180        27
50.190         7
50.200         7
50.210        20
50.220        27
50.230        20
50.240        20
50.250         7
50.260         7
50.270        27
50.280         0
50.290        33
50.300        27
50.310        20
50.320        13
50.330        13
50.340         7
50.350        27
50.360        27
50.370        27
50.380        20
50.390        13
50.400        27
50.410        20
50.420         0
50.430        20
50.440        27
50.450        47
50.460        27
50.470         7
50.480        13
50.490        27
50.500        27
50.510        13
50.520         7
50.530        13
50.540        27
50.550        20
50.560        33
50.570        13
50.580        20
50.590         7
50.600        20
50.610         7
50.620        27
50.630         7
50.640        33
50.650        40
50.660         0
50.670        33
50.680        13
50.690        33
50.700        13
50.710        20
50.720        13
50.730        20
50.740         0
50.750        13
50.760        27
50.770         0
50.780        33
50.790        27
50.800        13
50.810        13
50.820        13
50.830        47
50.840        20
50.850        27
50.860        13
50.870        13
50.880        20
50.890        33
50.900        20
50.910         7
50.920        20
50.930        33
50.940         7
50.950        27
50.960         7
50.970        20
50.980        27
50.990         7
51.000        13
51.010        33
51.020         7
51.030        33
51.040        33
51.050         0
51.060        13
51.070        13
51.080        33
51.090        27
51.100        20
51.110         0
51.120        40
51.130        20
51.140        27
51.150        13
51.160        47
51.170        13
51.180        20
51.190         7
51.200        33
51.210        27
51.220        40
51.230        13
51.240         0
51.250        47
51.260        13
51.270        20
51.280        13
51.290        27
51.300        20
51.310        20
51.320        47
51.330        13
51.340         7
51.350        13
51.360         0
51.370        53
51.380        13
51.390        40
51.400        20
51.410        20
51.420        40
51.430        40
51.440        33
51.450        40
51.460        33
51.470        13
51.480        20
51.490        27
51.500        13
51.510        40
51.520         7
51.530         7
51.540        20
51.550        40
51.560        40
51.570        20
51.580        27
51.590        47
51.600        20
51.610        13
51.620        27
51.630         0
51.640        27
51.650        27
51.660        20
51.670        33
51.680        33
51.690        20
51.700        20
51.710         7
51.720        13
51.730        20
51.740         7
51.750        13
51.760        33
51.770         7
51.780        27
51.790        27
51.800        27
51.810        33
51.820        33
51.830        27
51.840        27
51.850        33
51.860        33
51.870        27
51.880        40
51.890        40
51.900        87
51.910        27
51.920        33
51.930        13
51.940        53
51.950        40
51.960        27
51.970        67
51.980        60
51.990        27
52.000        73
52.010        47
52.020        80
52.030        73
52.040        33
52.050        60
52.060       113
52.070        53
52.080        67
52.090        13
52.100        20
52.110        60
52.120        40
52.130        47
52.140        40
52.150        40
52.160        33
52.170        67
52.180        53
52.190        13
52.200        33
52.210        40
52.220        60
52.230        33
52.240        53
52.250        20
52.260        53
52.270        33
52.280        13
52.290        13
52.300        33
52.310        33
52.320        47
52.330        40
52.340        47
52.350        60
52.360        33
52.370        40
52.380        20
52.390        67
52.400        33
52.410        27
52.420        33
52.430        33
52.440        47
52.450       107
52.460        40
52.470        67
52.480       147
52.490       160
52.500       147
52.510       280
52.520       293
52.530       393
52.540       620
52.550       573
52.560       666
52.570       553
52.580       613
52.590       533
52.600       453
52.610       453
52.620       293
52.630       213
52.640       193
52.650       200
52.660       300
52.670       220
52.680       400
52.690       333
52.700       500
52.710       300
52.720       400
52.730       347
52.740       353
52.750       227
52.760       200
52.770       153
52.780       127
52.790        93
52.800        53
52.810       120
52.820        87
52.830        53
52.840        47
52.850        80
52.860        73
52.870        60
52.880        20
52.890        40
52.900         0
52.910        40
52.920        53
52.930        60
52.940        53
52.950        27
52.960        40
52.970        33
52.980        13
52.990        47
53.000        27
53.010        13
53.020        13
53.030        40
53.040        27
53.050        33
53.060        33
53.070         7
53.080        13
53.090        40
53.100        20
53.110        40
53.120        20
53.130        27
53.140        33
53.150        20
53.160        60
53.170        13
53.180        47
53.190        27
53.200        33
53.210        53
53.220        20
53.230        20
53.240        20
53.250         7
53.260         7
53.270        13
53.280        27
53.290        33
53.300        13
53.310        20
53.320        13
53.330        20
53.340        20
53.350        27
53.360        20
53.370        40
53.380        13
53.390        33
53.400        33
53.410        20
53.420        13
53.430        40
53.440        20
53.450        20
53.460        40
53.470        27
53.480        20
53.490        27
53.500        27
53.510        20
53.520        20
53.530        20
53.540        20
53.550        27
53.560        40
53.570        20
53.580        27
53.590         7
53.600        27
53.610        20
53.620         7
53.630        13
53.640        27
53.650        13
53.660        33
53.670        20
53.680         7
53.690        40
53.700        13
53.710        20
53.720        13
53.730        40
53.740        27
53.750         7
53.760        27
53.770        40
53.780        27
53.790        20
53.800         7
53.810        20
53.820        27
53.830        13
53.840        33
53.850        40
53.860        20
53.870        47
53.880         7
53.890        47
53.900        33
53.910        40
53.920         7
53.930         7
53.940        20
53.950         7
53.960        20
53.970        13
53.980        20
53.990         0
54.000        33
54.010        13
54.020        27
54.030         0
54.040        27
54.050        27
54.060        40
54.070        47
54.080        13
54.090        13
54.100        33
54.110        20
54.120        13
54.130        33
54.140        33
54.150        20
54.160        20
54.170        33
54.180        20
54.190        27
54.200        33
54.210        20
54.220        27
54.230        33
54.240        20
54.250         7
54.260        27
54.270        40
54.280        33
54.290        27
54.300        13
54.310        27
54.320        47
54.330        20
54.340        40
54.350        27
54.360        33
54.370        13
54.380        53
54.390        27
54.400        13
54.410        27
54.420        40
54.430        40
54.440        27
54.450        20
54.460        13
54.470        40
54.480        13
54.490        20
54.500        80
54.510         7
54.520        40
54.530        27
54.540        20
54.550        47
54.560        40
54.570         7
54.580        33
54.590        40
54.600        47
54.610         0
54.620        27
54.630        20
54.640        20
54.650        13
54.660        20
54.670        27
54.680        13
54.690        33
54.700        27
54.710        47
54.720        20
54.730         7
54.740        33
54.750        47
54.760        47
54.770        27
54.780        27
54.790        20
54.800        20
54.810        20
54.820         7
54.830        33
54.840        53
54.850        40
54.860        47
54.870        40
54.880        27
54.890        27
54.900        33
54.910        13
54.920         7
54.930        13
54.940        33
54.950        20
54.960        40
54.970        53
54.980         7
54.990         0
55.000         0
55.010        47
55.020        40
55.030        47
55.040        20
55.050        13
55.060        13
55.070        47
55.080         0
55.090         0
55.100        20
55.110        13
55.120        20
55.130        27
55.140         0
55.150        33
55.160        13
55.170        60
55.180         0
55.190        27
55.200         7
55.210        20
55.220        60
55.230        13
55.240        20
55.250        20
55.260         7
55.270        40
55.280        27
55.290        33
55.300        27
55.310        20
55.320         7
55.330        27
55.340        53
55.350        13
55.360         7
55.370        27
55.380        27
55.390         7
55.400        13
55.410         7
55.420        13
55.430         7
55.440        20
55.450        20
55.460         7
55.470        13
55.480        13
55.490        13
55.500         7
55.510        20
55.520         7
55.530        33
55.540        13
55.550        13
55.560        33
55.570         7
55.580        20
55.590         0
55.600        27
55.610        27
55.620        20
55.630        40
55.640        13
55.650        13
55.660        20
55.670         7
55.680         7
55.690         0
55.700         0
55.710        13
55.720        27
55.730         0
55.740        13
55.750        13
55.760        20
55.770        20
55.780        20
55.790         0
55.800        33
55.810        20
55.820        13
55.830        20
55.840        13
55.850        20
55.860        13
55.870        20
55.880        20
55.890         7
55.900        27
55.910        27
55.920         7
55.930        20
55.940         0
55.950        20
55.960        33
55.970        20
55.980        13
55.990        33
56.000        33
56.010        27
56.020        20
56.030        20
56.040        33
56.050        33
56.060        20
56.070        33
56.080         7
56.090        20
56.100        60
56.110        20
56.120        27
56.130        27
56.140        27
56.150        20
56.160        40
56.170        13
56.180        27
56.190         7
56.200        33
56.210        20
56.220         7
56.230        60
56.240        20
56.250        13
56.260        47
56.270        53
56.280        27
56.290        33
56.300        20
56.310        27
56.320        20
56.330        13
56.340        13
56.350         0
56.360        13
56.370        27
56.380        53
56.390        20
56.400        27
56.410        27
56.420        20
56.430        33
56.440        33
56.450        47
56.460        33
56.470        20
56.480        20
56.490        27
56.500        40
56.510         0
56.520        20
56.530         7
56.540        33
56.550        33
56.560        27
56.570        20
56.580         7
56.590        27
56.600        27
56.610        33
56.620        27
56.630         7
56.640         7
56.650        20
56.660         0
56.670        13
56.680        40
56.690        13
56.700        40
56.710        20
56.720        13
56.730        20
56.740        20
56.750        53
56.760        13
56.770         7
56.780        13
56.790         0
56.800         0
56.810         0
56.820        27
56.830        13
56.840        13
56.850        27
56.860         7
56.870         7
56.880        33
56.890         7
56.900         7
56.910        47
56.920        20
56.930        13
56.940        27
56.950        33
56.960        13
56.970        27
56.980        20
56.990        13
57.000        27
57.010        20
57.020        27
57.030         7
57.040        13
57.050        20
57.060        27
57.070        20
57.080         0
57.090        13
57.100         0
57.110         7
57.120         7
57.130        13
57.140        27
57.150        13
57.160        27
57.170        27
57.180        13
57.190        20
57.200        27
57.210         7
57.220        13
57.230        33
57.240        20
57.250        33
57.260        33
57.270        13
57.280         7
57.290        40
57.300         0
57.310        47
57.320        40
57.330        27
57.340        27
57.350        40
57.360        13
57.370        13
57.380        53
57.390        13
57.400         7
57.410        20
57.420         0
57.430        47
57.440        20
57.450        47
57.460        20
57.470        20
57.480        13
57.490        13
57.500        13
57.510         7
57.520        20
57.530        27
57.540        13
57.550        33
57.560        13
57.570         7
57.580        33
57.590         7
57.600        20
57.610        20
57.620        13
57.630        27
57.640        13
57.650         7
57.660         7
57.670        13
57.680        20
57.690        33
57.700        13
57.710         7
57.720        13
57.730        13
57.740         7
57.750         0
57.760        13
57.770        13
57.780         0
57.790        27
57.800         7
57.810         7
57.820        40
57.830        20
57.840         0
57.850        27
57.860        27
57.870        13
57.880        13
57.890        27
57.900        13
57.910        33
57.920        27
57.930        33
57.940        33
57.950        40
57.960        33
57.970        13
57.980         7
57.990        13
58.000        13
58.010         7
58.020        13
58.030        20
58.040        13
58.050        13
58.060        13
58.070        13
58.080         0
58.090        13
58.100        33
58.110        27
58.120        20
58.130        20
58.140         7
58.150        33
58.160        20
58.170         7
58.180         0
58.190        20
58.200        13
58.210         7
58.220        13
58.230         7
58.240        20
58.250        20
58.260         7
58.270         0
58.280         7
58.290         7
58.300         0
58.310        13
58.320        33
58.330        13
58.340        33
58.350        13
58.360         7
58.370        13
58.380        13
58.390        27
58.400         7
58.410         7
58.420         7
58.430        27
58.440        13
58.450        13
58.460         0
58.470        27
58.480        20
58.490         7
58.500        20
58.510         0
58.520        20
58.530         7
58.540         7
58.550         7
58.560        20
58.570         7
58.580         7
58.590        20
58.600         0
58.610        20
58.620         7
58.630        20
58.640        13
58.650         0
58.660         0
58.670        13
58.680         0
58.690        33
58.700        20
58.710         7
58.720        13
58.730        20
58.740        27
58.750        20
58.760        20
58.770         7
58.780         0
58.790        13
58.800        27
58.810        27
58.820        20
58.830         0
58.840        13
58.850        13
58.860        20
58.870        20
58.880        13
58.890        20
58.900        27
58.910        20
58.920        20
58.930        33
58.940         7
58.950        20
58.960        13
58.970         7
58.980        27
58.990        13
59.000        20
59.010         7
59.020         7
59.030         7
59.040        80
59.050        13
59.060        20
59.070         7
59.080        33
59.090        27
59.100        20
59.110        40
59.120         7
59.130        20
59.140         7
59.150        13
59.160        13
59.170         7
59.180         0
59.190        13
59.200         7
59.210        20
59.220        27
59.230        13
59.240         0
59.250        33
59.260         0
59.270        20
59.280        40
59.290         7
59.300        13
59.310         0
59.320        13
59.330        20
59.340        20
59.350        20
59.360        27
59.370         7
59.380         7
59.390        33
59.400        13
59.410        13
59.420         7
59.430        27
59.440         7
59.450        20
59.460        13
59.470        13
59.480         0
59.490        33
59.500         0
59.510         7
59.520        13
59.530        13
59.540        13
59.550         0
59.560        13
59.570        20
59.580         7
59.590        33
59.600         0
59.610         7
59.620        20
59.630        47
59.640        13
59.650        13
59.660        13
59.670        27
59.680        13
59.690        27
59.700         7
59.710        13
59.720        20
59.730        40
59.740        20
59.750        27
59.760        20
59.770        20
59.780         0
59.790        27
59.800        13
59.810        20
59.820        20
59.830        27
59.840         7
59.850        13
59.860        27
59.870        13
59.880        20
59.890        33
59.900         7
59.910         7
59.920         0
59.930         0
59.940        27
59.950         7
59.960         7
59.970        20
59.980        20
59.990         7
60.000         7
