20.000       133
20.010        87
20.020       100
20.030       160
20.040       120
20.050        87
20.060        87
20.070       140
20.080       153
20.090       160
20.100       133
20.110       113
20.120        87
20.130       127
20.140       140
20.150       160
20.160       140
20.170       133
20.180       113
20.190       107
20.200       140
20.210       127
20.220        80
20.230       120
20.240       113
20.250        93
20.260       160
20.270       100
20.280       120
20.290       120
20.300       113
20.310       127
20.320        87
20.330       107
20.340       120
20.350       153
20.360       120
20.370       113
20.380       133
20.390        80
20.400       140
20.410       173
20.420       133
20.430        80
20.440       120
20.450       107
20.460       107
20.470        80
20.480       127
20.490       113
20.500       107
20.510       100
20.520       133
20.530       213
20.540        80
20.550       167
20.560       153
20.570       113
20.580       100
20.590       133
20.600       153
20.610       127
20.620       113
20.630       133
20.640        93
20.650       133
20.660       100
20.670        60
20.680        93
20.690        73
20.700        67
20.710       100
20.720       107
20.730        67
20.740       107
20.750       180
20.760       147
20.770       147
20.780       107
20.790       140
20.800       187
20.810        73
20.820       173
20.830       113
20.840       120
20.850       153
20.860       127
20.870       147
20.880        93
20.890       100
20.900       127
20.910       100
20.920       207
20.930       140
20.940        87
20.950       113
20.960       107
20.970        67
20.980        67
20.990       107
21.000       153
21.010       127
21.020       113
21.030       100
21.040        93
21.050       187
21.060       120
21.070       113
21.080       127
21.090       153
21.100       113
21.110       113
21.120       100
21.130       107
21.140       127
21.150       113
21.160       167
21.170        93
21.180       147
21.190       133
21.200        93
21.210       107
21.220       113
21.230       133
21.240       113
21.250       100
21.260       173
21.270       140
21.280        80
21.290        87
21.300       107
21.310        80
21.320       160
21.330       113
21.340       133
21.350       100
21.360       153
21.370       127
21.380        40
21.390       100
21.400       113
21.410       133
21.420        53
21.430        87
21.440        67
21.450       133
21.460       127
21.470       133
21.480       160
21.490       113
21.500        73
21.510       107
21.520       160
21.530        93
21.540        73
21.550        87
21.560       100
21.570       127
21.580       100
21.590       120
21.600       100
21.610       133
21.620       140
21.630       100
21.640       113
21.650       107
21.660       180
21.670       147
21.680        87
21.690        93
21.700       133
21.710       153
21.720       100
21.730       140
21.740       147
21.750       160
21.760       113
21.770       147
21.780       133
21.790        93
21.800       113
21.810       173
21.820       167
21.830       120
21.840       120
21.850       160
21.860       160
21.870       153
21.880       160
21.890       180
21.900       167
21.910       180
21.920       100
21.930       153
21.940       127
21.950       133
21.960       200
21.970        87
21.980       180
21.990       120
22.000       200
22.010       153
22.020        93
22.030       200
22.040       227
22.050       147
22.060       100
22.070        87
22.080       173
22.090       153
22.100       140
22.110       180
22.120       120
22.130       113
22.140       173
22.150       127
22.160       140
22.170       127
22.180       153
22.190       127
22.200       153
22.210       140
22.220       173
22.230        93
22.240       133
22.250       173
22.260       140
22.270       167
22.280       133
22.290       160
22.300       160
22.310       127
22.320       120
22.330       140
22.340       153
22.350       100
22.360       107
22.370       153
22.380       140
22.390       180
22.400       127
22.410        93
22.420       133
22.430       187
22.440       147
22.450       133
22.460       127
22.470       167
22.480       173
22.490       153
22.500       200
22.510       187
22.520       113
22.530       140
22.540       200
22.550       140
22.560       173
22.570       147
22.580       140
22.590       180
22.600       167
22.610       207
22.620       193
22.630       213
22.640       220
22.650       147
22.660       160
22.670       260
22.680       153
22.690       207
22.700       160
22.710       207
22.720       180
22.730       133
22.740       180
22.750       133
22.760       167
22.770       247
22.780       153
22.790       227
22.800       173
22.810       140
22.820       207
22.830       213
22.840       187
22.850       160
22.860       300
22.870       193
22.880       147
22.890       207
22.900       267
22.910       340
22.920       273
22.930       193
22.940       280
22.950       240
22.960       227
22.970       327
22.980       280
22.990       253
23.000       353
23.010       340
23.020       247
23.030       387
23.040       313
23.050       320
23.060       486
23.070       367
23.080       646
23.090      1100
23.100      1573
23.110      2019
23.120      2352
23.130      2486
23.140      2386
23.150      2379
23.160      1799
23.170      1359
23.180       800
23.190       600
23.200       500
23.210       440
23.220       353
23.230       387
23.240       253
23.250       227
23.260       287
23.270       233
23.280       273
23.290       327
23.300       227
23.310       260
23.320       207
23.330       200
23.340       293
23.350       200
23.360       273
23.370       227
23.380       247
23.390       293
23.400       140
23.410       233
23.420       280
23.430       240
23.440       287
23.450       193
23.460       260
23.470       200
23.480       287
23.490       180
23.500       293
23.510       120
23.520       247
23.530       293
23.540       193
23.550       207
23.560       213
23.570       213
23.580       227
23.590       247
23.600       247
23.610       240
23.620       307
23.630       293
23.640       187
23.650       187
23.660       287
23.670       220
23.680       200
23.690       273
23.700       153
23.710       187
23.720       213
23.730       267
23.740       187
23.750       213
23.760       233
23.770       220
23.780       253
23.790       213
23.800       173
23.810       267
23.820       227
23.830       193
23.840       180
23.850       260
23.860       213
23.870       227
23.880       213
23.890       200
23.900       213
23.910       233
23.920       193
23.930       273
23.940       160
23.950       267
23.960       180
23.970       207
23.980       180
23.990       200
24.000       200
24.010       187
24.020       173
24.030       213
24.040       240
24.050       247
24.060       273
24.070       133
24.080       220
24.090       180
24.100       240
24.110       167
24.120       240
24.130       207
24.140       233
24.150       160
24.160       253
24.170       233
24.180       247
24.190       273
24.200       240
24.210       220
24.220       193
24.230       227
24.240       167
24.250       267
24.260       180
24.270       247
24.280       233
24.290       267
24.300       260
24.310       193
24.320       200
24.330       280
24.340       253
24.350       193
24.360       147
24.370       253
24.380       180
24.390       193
24.400       200
24.410       220
24.420       173
24.430       280
24.440       240
24.450       233
24.460       220
24.470       213
24.480       220
24.490       153
24.500       207
24.510       193
24.520       187
24.530       207
24.540       240
24.550       240
24.560       207
24.570       187
24.580       207
24.590       267
24.600       233
24.610       247
24.620       227
24.630       227
24.640       260
24.650       240
24.660       207
24.670       240
24.680       233
24.690       280
24.700       300
24.710       460
24.720       446
24.730       566
24.740       673
24.750       833
24.760       773
24.770       973
24.780       960
24.790      1140
24.800      1166
24.810       980
24.820       960
24.830       880
24.840      1160
24.850      1240
24.860       893
24.870      1040
24.880       946
24.890      1153
24.900      1166
24.910      1353
24.920      1200
24.930      1120
24.940      1006
24.950      1220
24.960       993
24.970       933
24.980      1153
24.990      1086
25.000       973
25.010      1213
25.020      1106
25.030      1126
25.040      1200
25.050      1033
25.060      1140
25.070      1240
25.080      1153
25.090      1299
25.100      1173
25.110      1066
25.120      1213
25.130      1053
25.140      1120
25.150      1359
25.160      1173
25.170      1266
25.180      1259
25.190      1279
25.200      1226
25.210      1339
25.220      1279
25.230      1399
25.240      1060
25.250      1240
25.260      1426
25.270      1180
25.280      1266
25.290      1473
25.300      1366
25.310      1493
25.320      1519
25.330      1473
25.340      1813
25.350      1626
25.360      2206
25.370      2492
25.380      3252
25.390      3619
25.400      4578
25.410      5118
25.420      6071
25.430      7324
25.440      8330
25.450      9276
25.460     10602
25.470     11302
25.480     13621
25.490     13834
25.500     14907
25.510     15387
25.520     16993
25.530     17753
25.540     19086
25.550     20678
25.560     24377
25.570     35639
25.580     65667
25.590    111335
25.600    158617
25.610    189358
25.620    203199
25.630    209956
25.640    214108
25.650    216447
25.660    208970
25.670    187538
25.680    161275
25.690    143156
25.700    135979
25.710    130041
25.720    116467
25.730     93316
25.740     62415
25.750     35086
25.760     21138
25.770     15487
25.780     11056
25.790      8923
25.800      7877
25.810      6018
25.820      5125
25.830      4678
25.840      3932
25.850      3325
25.860      2879
25.870      2492
25.880      2306
25.890      2192
25.900      1993
25.910      1966
25.920      1666
25.930      1659
25.940      1626
25.950      1739
25.960      1739
25.970      1779
25.980      1619
25.990      1466
26.000      1393
26.010      1519
26.020      1346
26.030      1399
26.040      1433
26.050      1399
26.060      1186
26.070      1366
26.080      1253
26.090      1233
26.100      1246
26.110      1153
26.120      1373
26.130      1173
26.140      1146
26.150      1306
26.160      1193
26.170      1086
26.180      1093
26.190      1006
26.200      1106
26.210      1173
26.220      1020
26.230      1153
26.240      1100
26.250      1073
26.260       980
26.270      1126
26.280      1166
26.290      1046
26.300       920
26.310      1053
26.320       866
26.330       926
26.340       973
26.350       920
26.360       946
26.370       873
26.380       900
26.390      1033
26.400       940
26.410       746
26.420       926
26.430      1066
26.440       953
26.450       946
26.460       773
26.470       853
26.480       886
26.490      1033
26.500       940
26.510       833
26.520       846
26.530       953
26.540       913
26.550       900
26.560       933
26.570       826
26.580       853
26.590       613
26.600       833
26.610       820
26.620       826
26.630       840
26.640       926
26.650       840
26.660       893
26.670       746
26.680       733
26.690       826
26.700       746
26.710       746
26.720       733
26.730       886
26.740       800
26.750       840
26.760       846
26.770       733
26.780       746
26.790       786
26.800       793
26.810       726
26.820       806
26.830       726
26.840       686
26.850       773
26.860       793
26.870       720
26.880       866
26.890       833
26.900       666
26.910       746
26.920       813
26.930       766
26.940       700
26.950       706
26.960       780
26.970       746
26.980       733
26.990       746
27.000       780
27.010       746
27.020       660
27.030       720
27.040       813
27.050       626
27.060       706
27.070       800
27.080       720
27.090       706
27.100       726
27.110       773
27.120       653
27.130       706
27.140       726
27.150       906
27.160       713
27.170       753
27.180       586
27.190       613
27.200       733
27.210       613
27.220       826
27.230       760
27.240       666
27.250       640
27.260       826
27.270       766
27.280       640
27.290       673
27.300       493
27.310       700
27.320       640
27.330       620
27.340       800
27.350       706
27.360       666
27.370       686
27.380       526
27.390       706
27.400       606
27.410       686
27.420       580
27.430       626
27.440       633
27.450       613
27.460       693
27.470       646
27.480       713
27.490       766
27.500       673
27.510       620
27.520       560
27.530       640
27.540       586
27.550       620
27.560       626
27.570       606
27.580       706
27.590       720
27.600       686
27.610       580
27.620       673
27.630       706
27.640       553
27.650       600
27.660       593
27.670       626
27.680       500
27.690       646
27.700       573
27.710       740
27.720       626
27.730       693
27.740       580
27.750       666
27.760       666
27.770       660
27.780       660
27.790       693
27.800       593
27.810       693
27.820       673
27.830       673
27.840       593
27.850       673
27.860       600
27.870       640
27.880       826
27.890       653
27.900       686
27.910       653
27.920       740
27.930       586
27.940       546
27.950       733
27.960       593
27.970       580
27.980       666
27.990       713
28.000       660
28.010       480
28.020       593
28.030       773
28.040       540
28.050       606
28.060       580
28.070       633
28.080       553
28.090       460
28.100       540
28.110       566
28.120       580
28.130       466
28.140       560
28.150       593
28.160       440
28.170       613
28.180       586
28.190       480
28.200       526
28.210       387
28.220       533
28.230       546
28.240       593
28.250       526
28.260       686
28.270       573
28.280       493
28.290       533
28.300       560
28.310       626
28.320       533
28.330       493
28.340       546
28.350       367
28.360       573
28.370       713
28.380       493
28.390       566
28.400       546
28.410       560
28.420       526
28.430       580
28.440       533
28.450       420
28.460       533
28.470       606
28.480       526
28.490       500
28.500       513
28.510       553
28.520       546
28.530       540
28.540       513
28.550       540
28.560       593
28.570       520
28.580       606
28.590       573
28.600       653
28.610       546
28.620       566
28.630       620
28.640       533
28.650       580
28.660       560
28.670       580
28.680       693
28.690       653
28.700       520
28.710       493
28.720       520
28.730       666
28.740       533
28.750       580
28.760       513
28.770       613
28.780       506
28.790       433
28.800       580
28.810       686
28.820       626
28.830       466
28.840       440
28.850       473
28.860       546
28.870       513
28.880       586
28.890       546
28.900       520
28.910       573
28.920       626
28.930       526
28.940       520
28.950       593
28.960       653
28.970       706
28.980       626
28.990       640
29.000       566
29.010       560
29.020       653
29.030       700
29.040       566
29.050       720
29.060       600
29.070       566
29.080       620
29.090       600
29.100       646
29.110       680
29.120       693
29.130       593
29.140       600
29.150       833
29.160       553
29.170       500
29.180       533
29.190       586
29.200       553
29.210       580
29.220       546
29.230       546
29.240       566
29.250       580
29.260       606
29.270       633
29.280       560
29.290       513
29.300       493
29.310       506
29.320       486
29.330       473
29.340       513
29.350       513
29.360       480
29.370       486
29.380       526
29.390       526
29.400       540
29.410       493
29.420       400
29.430       493
29.440       520
29.450       407
29.460       520
29.470       513
29.480       460
29.490       400
29.500       506
29.510       500
29.520       426
29.530       446
29.540       620
29.550       473
29.560       540
29.570       486
29.580       387
29.590       493
29.600       500
29.610       540
29.620       533
29.630       486
29.640       526
29.650       540
29.660       513
29.670       606
29.680       460
29.690       486
29.700       473
29.710       466
29.720       500
29.730       500
29.740       413
29.750       446
29.760       440
29.770       466
29.780       380
29.790       393
29.800       526
29.810       387
29.820       573
29.830       380
29.840       387
29.850       573
29.860       293
29.870       473
29.880       420
29.890       486
29.900       413
29.910       407
29.920       473
29.930       460
29.940       380
29.950       420
29.960       413
29.970       433
29.980       353
29.990       426
30.000       407
30.010       453
30.020       433
30.030       426
30.040       360
30.050       500
30.060       453
30.070       453
30.080       433
30.090       433
30.100       400
30.110       387
30.120       433
30.130       466
30.140       426
30.150       360
30.160       480
30.170       360
30.180       407
30.190       473
30.200       473
30.210       420
30.220       373
30.230       387
30.240       400
30.250       466
30.260       387
30.270       413
30.280       220
30.290       466
30.300       327
30.310       407
30.320       433
30.330       440
30.340       453
30.350       486
30.360       453
30.370       413
30.380       420
30.390       453
30.400       367
30.410       440
30.420       393
30.430       500
30.440       373
30.450       480
30.460       353
30.470       407
30.480       347
30.490       426
30.500       393
30.510       540
30.520       407
30.530       407
30.540       460
30.550       446
30.560       393
30.570       373
30.580       433
30.590       413
30.600       407
30.610       360
30.620       353
30.630       506
30.640       360
30.650       360
30.660       307
30.670       420
30.680       446
30.690       353
30.700       367
30.710       287
30.720       413
30.730       367
30.740       426
30.750       387
30.760       320
30.770       347
30.780       373
30.790       313
30.800       333
30.810       360
30.820       466
30.830       407
30.840       340
30.850       407
30.860       367
30.870       300
30.880       426
30.890       353
30.900       293
30.910       327
30.920       287
30.930       373
30.940       307
30.950       313
30.960       353
30.970       333
30.980       393
30.990       440
31.000       347
31.010       347
31.020       367
31.030       340
31.040       340
31.050       320
31.060       360
31.070       307
31.080       333
31.090       347
31.100       373
31.110       300
31.120       340
31.130       347
31.140       313
31.150       353
31.160       320
31.170       373
31.180       373
31.190       313
31.200       307
31.210       413
31.220       380
31.230       380
31.240       280
31.250       353
31.260       247
31.270       340
31.280       353
31.290       333
31.300       373
31.310       353
31.320       360
31.330       320
31.340       233
31.350       433
31.360       267
31.370       260
31.380       353
31.390       340
31.400       387
31.410       367
31.420       340
31.430       320
31.440       287
31.450       280
31.460       313
31.470       320
31.480       287
31.490       347
31.500       360
31.510       313
31.520       280
31.530       327
31.540       333
31.550       293
31.560       347
31.570       253
31.580       320
31.590       280
31.600       280
31.610       280
31.620       273
31.630       360
31.640       367
31.650       273
31.660       300
31.670       373
31.680       227
31.690       407
31.700       313
31.710       267
31.720       280
31.730       293
31.740       220
31.750       340
31.760       300
31.770       253
31.780       313
31.790       313
31.800       333
31.810       313
31.820       313
31.830       273
31.840       320
31.850       313
31.860       267
31.870       267
31.880       267
31.890       327
31.900       320
31.910       313
31.920       347
31.930       207
31.940       273
31.950       287
31.960       300
31.970       313
31.980       253
31.990       320
32.000       273
32.010       233
32.020       273
32.030       320
32.040       373
32.050       267
32.060       300
32.070       240
32.080       367
32.090       287
32.100       233
32.110       307
32.120       347
32.130       333
32.140       360
32.150       347
32.160       307
32.170       360
32.180       307
32.190       373
32.200       426
32.210       373
32.220       353
32.230       420
32.240       407
32.250       340
32.260       367
32.270       300
32.280       300
32.290       347
32.300       360
32.310       360
32.320       300
32.330       340
32.340       353
32.350       300
32.360       287
32.370       307
32.380       287
32.390       260
32.400       327
32.410       253
32.420       293
32.430       227
32.440       360
32.450       227
32.460       247
32.470       300
32.480       373
32.490       280
32.500       340
32.510       287
32.520       220
32.530       207
32.540       240
32.550       233
32.560       327
32.570       240
32.580       227
32.590       260
32.600       293
32.610       313
32.620       307
32.630       313
32.640       240
32.650       267
32.660       320
32.670       313
32.680       260
32.690       260
32.700       260
32.710       333
32.720       320
32.730       233
32.740       267
32.750       233
32.760       227
32.770       273
32.780       247
32.790       267
32.800       280
32.810       280
32.820       300
32.830       247
32.840       273
32.850       267
32.860       233
32.870       180
32.880       227
32.890       247
32.900       307
32.910       213
32.920       213
32.930       187
32.940       180
32.950       193
32.960       207
32.970       247
32.980       280
32.990       220
33.000       200
33.010       180
33.020       207
33.030       220
33.040       200
33.050       260
33.060       207
33.070       207
33.080       240
33.090       233
33.100       240
33.110       320
33.120       167
33.130       267
33.140       240
33.150       220
33.160       153
33.170       220
33.180       273
33.190       147
33.200       253
33.210       240
33.220       207
33.230       233
33.240       160
33.250       207
33.260       300
33.270       173
33.280       160
33.290       207
33.300       173
33.310       233
33.320       233
33.330       180
33.340       227
33.350       193
33.360       240
33.370       260
33.380       173
33.390       227
33.400       220
33.410       233
33.420       200
33.430       200
33.440       213
33.450       207
33.460       233
33.470       233
33.480       153
33.490       220
33.500       260
33.510       187
33.520       253
33.530       207
33.540       173
33.550       160
33.560       153
33.570       227
33.580       233
33.590       233
33.600       160
33.610       147
33.620       193
33.630       247
33.640       160
33.650       173
33.660       260
33.670       267
33.680       207
33.690       120
33.700       240
33.710       200
33.720       260
33.730       173
33.740       227
33.750       167
33.760       193
33.770       273
33.780       293
33.790       193
33.800       173
33.810       207
33.820       313
33.830       173
33.840       193
33.850       240
33.860       160
33.870       147
33.880       233
33.890       140
33.900       253
33.910       147
33.920       213
33.930       153
33.940       240
33.950       200
33.960       147
33.970       253
33.980       160
33.990       187
34.000       220
34.010       233
34.020       180
34.030       207
34.040       227
34.050       167
34.060       187
34.070       213
34.080       207
34.090       207
34.100       213
34.110       147
34.120       193
34.130       227
34.140       120
34.150       140
34.160       153
34.170       160
34.180       160
34.190       187
34.200       180
34.210       173
34.220       147
34.230       173
34.240       153
34.250       213
34.260       213
34.270       133
34.280       153
34.290       153
34.300       180
34.310       240
34.320       187
34.330       213
34.340       273
34.350       160
34.360       107
34.370       193
34.380       260
34.390       153
34.400       167
34.410       140
34.420       193
34.430       153
34.440       180
34.450       187
34.460       207
34.470       187
34.480       153
34.490       160
34.500       187
34.510       193
34.520       207
34.530       173
34.540       200
34.550       227
34.560       233
34.570       153
34.580       147
34.590       193
34.600       207
34.610       153
34.620       200
34.630       173
34.640       213
34.650       193
34.660       240
34.670       193
34.680       200
34.690       193
34.700       147
34.710       167
34.720       107
34.730       107
34.740       140
34.750       180
34.760       153
34.770       227
34.780       187
34.790       160
34.800       193
34.810       193
34.820       173
34.830       187
34.840       193
34.850       127
34.860       167
34.870       207
34.880       153
34.890       180
34.900       133
34.910       167
34.920       193
34.930       200
34.940       140
34.950       180
34.960       200
34.970        87
34.980       100
34.990       133
35.000       127
35.010       167
35.020        73
35.030       227
35.040       147
35.050       133
35.060       147
35.070       180
35.080        93
35.090       120
35.100       133
35.110       187
35.120       220
35.130       160
35.140       173
35.150       187
35.160       167
35.170       187
35.180       140
35.190       193
35.200       180
35.210       127
35.220       233
35.230       180
35.240       127
35.250       193
35.260       167
35.270       113
35.280       193
35.290       140
35.300       140
35.310       153
35.320       133
35.330       120
35.340       153
35.350       113
35.360       140
35.370       120
35.380       167
35.390       160
35.400       127
35.410       153
35.420       207
35.430       100
35.440       113
35.450       127
35.460       133
35.470       113
35.480       167
35.490       227
35.500       167
35.510       133
35.520       133
35.530       233
35.540       167
35.550       147
35.560       120
35.570       167
35.580       140
35.590       140
35.600       180
35.610       173
35.620       140
35.630       140
35.640       100
35.650       127
35.660       180
35.670       180
35.680       140
35.690        93
35.700       107
35.710       120
35.720       167
35.730       120
35.740       167
35.750       160
35.760       113
35.770       200
35.780       120
35.790       173
35.800       193
35.810       120
35.820       153
35.830       133
35.840        87
35.850       100
35.860       160
35.870       173
35.880       180
35.890       173
35.900       153
35.910       120
35.920       147
35.930       107
35.940       113
35.950       160
35.960       140
35.970       133
35.980       100
35.990       120
36.000       153
36.010       153
36.020       133
36.030       127
36.040       160
36.050       160
36.060       107
36.070       153
36.080       167
36.090       120
36.100        80
36.110       127
36.120       120
36.130       167
36.140       160
36.150       187
36.160       100
36.170       133
36.180       120
36.190       120
36.200        93
36.210       153
36.220       153
36.230        87
36.240       127
36.250       133
36.260       167
36.270       107
36.280       193
36.290       173
36.300       120
36.310       160
36.320       127
36.330       133
36.340        93
36.350       120
36.360       160
36.370       120
36.380       140
36.390        93
36.400       127
36.410        87
36.420       147
36.430       160
36.440       113
36.450        80
36.460       133
36.470       140
36.480       113
36.490       167
36.500       180
36.510        87
36.520       140
36.530       107
36.540       140
36.550       100
36.560        93
36.570       140
36.580       200
36.590       140
36.600       153
36.610       120
36.620        93
36.630       147
36.640       180
36.650       140
36.660       133
36.670       100
36.680       127
36.690       173
36.700       140
36.710       100
36.720       200
36.730        93
36.740       100
36.750       120
36.760        87
36.770       107
36.780        93
36.790        93
36.800       133
36.810        93
36.820       133
36.830        87
36.840        80
36.850       160
36.860       133
36.870       140
36.880       107
36.890       173
36.900       120
36.910       120
36.920       107
36.930       133
36.940        87
36.950        93
36.960        60
36.970       107
36.980        60
36.990       120
37.000       140
37.010       140
37.020       140
37.030       113
37.040        67
37.050       167
37.060       147
37.070       133
37.080        93
37.090        93
37.100        53
37.110       107
37.120       113
37.130       107
37.140       100
37.150        93
37.160       120
37.170        87
37.180        80
37.190       100
37.200        93
37.210        87
37.220       120
37.230       113
37.240       120
37.250       113
37.260       107
37.270       107
37.280       107
37.290       107
37.300        80
37.310       107
37.320       100
37.330       133
37.340        80
37.350        80
37.360       147
37.370       107
37.380       113
37.390       133
37.400       100
37.410       127
37.420        60
37.430        80
37.440       153
37.450        93
37.460        33
37.470       127
37.480       113
37.490       107
37.500        47
37.510       120
37.520       113
37.530       100
37.540        87
37.550        67
37.560        73
37.570       107
37.580       100
37.590       100
37.600       127
37.610        93
37.620       100
37.630        80
37.640        93
37.650       167
37.660        67
37.670       113
37.680       100
37.690        73
37.700        80
37.710       107
37.720        67
37.730        60
37.740       147
37.750        47
37.760       107
37.770        67
37.780        80
37.790       120
37.800       100
37.810        80
37.820        93
37.830       100
37.840       120
37.850        73
37.860        67
37.870        93
37.880       107
37.890        93
37.900       140
37.910       113
37.920        87
37.930        93
37.940        53
37.950        53
37.960        93
37.970       120
37.980       120
37.990       113
38.000        93
38.010       107
38.020        47
38.030       133
38.040        73
38.050       120
38.060        40
38.070       180
38.080       107
38.090       140
38.100        67
38.110        80
38.120        80
38.130       127
38.140       100
38.150       100
38.160       100
38.170       140
38.180       127
38.190        93
38.200        93
38.210        93
38.220        87
38.230        93
38.240       107
38.250        67
38.260        67
38.270        47
38.280        87
38.290        67
38.300        80
38.310        87
38.320        53
38.330        53
38.340       107
38.350        67
38.360        87
38.370        87
38.380       113
38.390       113
38.400       100
38.410        87
38.420        60
38.430        93
38.440        40
38.450       113
38.460        87
38.470       107
38.480       120
38.490        53
38.500        80
38.510        67
38.520        53
38.530        53
38.540        87
38.550        53
38.560        87
38.570        60
38.580        60
38.590       107
38.600       107
38.610       133
38.620        80
38.630        53
38.640        87
38.650        67
38.660        27
38.670        67
38.680        33
38.690       100
38.700       113
38.710        80
38.720        67
38.730       100
38.740       113
38.750        87
38.760       120
38.770        80
38.780        87
38.790        80
38.800        93
38.810        53
38.820        33
38.830        53
38.840        60
38.850        73
38.860        53
38.870        60
38.880        53
38.890       100
38.900        93
38.910        33
38.920        47
38.930        87
38.940        40
38.950       133
38.960        60
38.970        73
38.980        80
38.990        47
39.000        73
39.010        80
39.020       107
39.030        27
39.040        60
39.050        67
39.060        73
39.070        60
39.080        53
39.090        53
39.100        53
39.110        80
39.120        87
39.130        87
39.140        93
39.150        47
39.160        93
39.170       100
39.180        80
39.190        47
39.200        80
39.210        60
39.220       107
39.230        93
39.240        53
39.250        73
39.260        93
39.270        87
39.280        80
39.290        67
39.300        27
39.310        67
39.320        73
39.330        60
39.340        93
39.350        67
39.360        67
39.370        87
39.380        73
39.390        73
39.400        67
39.410        80
39.420        47
39.430        93
39.440        53
39.450        40
39.460        87
39.470        33
39.480        73
39.490        60
39.500        73
39.510        47
39.520        60
39.530        60
39.540        67
39.550        33
39.560        67
39.570        67
39.580        53
39.590        73
39.600        53
39.610        33
39.620        93
39.630        47
39.640        60
39.650        47
39.660        80
39.670        47
39.680        40
39.690        87
39.700       100
39.710        53
39.720        80
39.730        60
39.740        73
39.750        47
39.760        87
39.770        67
39.780        60
39.790        80
39.800        60
39.810       100
39.820        60
39.830       100
39.840        40
39.850        93
39.860        40
39.870        47
39.880        73
39.890        73
39.900        60
39.910        33
39.920        73
39.930        67
39.940        73
39.950       107
39.960        60
39.970        20
39.980        33
39.990        73
40.000        53
40.010        53
40.020        67
40.030        40
40.040       100
40.050        60
40.060        87
40.070       113
40.080        60
40.090        73
40.100        80
40.110        40
40.120        73
40.130        27
40.140        93
40.150        53
40.160        40
40.170        93
40.180       120
40.190        60
40.200        73
40.210        73
40.220        47
40.230        73
40.240        87
40.250       107
40.260        73
40.270        67
40.280       100
40.290        80
40.300       100
40.310        60
40.320        60
40.330        53
40.340        67
40.350       120
40.360        33
40.370        73
40.380        60
40.390        33
40.400        47
40.410        53
40.420        47
40.430        60
40.440        80
40.450        87
40.460        53
40.470        80
40.480        93
40.490        60
40.500        60
40.510        80
40.520        53
40.530        73
40.540        53
40.550        93
40.560        47
40.570        47
40.580        33
40.590       107
40.600        47
40.610        93
40.620        53
40.630        47
40.640        47
40.650        40
40.660        67
40.670        40
40.680        47
40.690       113
40.700        80
40.710        53
40.720       100
40.730        60
40.740        67
40.750        33
40.760        33
40.770        73
40.780        53
40.790        53
40.800        47
40.810        47
40.820        27
40.830        47
40.840        40
40.850       113
40.860        80
40.870        60
40.880        47
40.890        47
40.900        47
40.910        60
40.920        47
40.930        47
40.940        53
40.950        47
40.960        87
40.970        47
40.980        80
40.990        20
41.000        80
41.010        47
41.020        60
41.030        73
41.040        53
41.050        80
41.060        47
41.070        47
41.080        53
41.090        60
41.100        40
41.110        73
41.120        20
41.130        13
41.140        73
41.150        93
41.160        67
41.170        27
41.180        87
41.190        60
41.200        53
41.210        87
41.220        33
41.230        33
41.240        73
41.250        33
41.260        73
41.270        47
41.280        73
41.290        40
41.300        53
41.310        40
41.320        80
41.330        27
41.340        60
41.350        27
41.360        40
41.370        27
41.380        33
41.390        60
41.400        33
41.410        60
41.420        53
41.430        40
41.440        47
41.450        67
41.460        47
41.470        60
41.480        67
41.490        40
41.500        47
41.510        67
41.520        33
41.530        40
41.540        47
41.550        40
41.560        53
41.570        33
41.580        33
41.590        40
41.600        47
41.610        73
41.620        33
41.630        53
41.640        40
41.650        40
41.660        47
41.670        87
41.680        80
41.690        27
41.700       100
41.710        53
41.720        47
41.730        40
41.740        93
41.750        27
41.760        47
41.770        33
41.780        33
41.790        60
41.800        73
41.810        67
41.820        60
41.830        53
41.840        53
41.850        53
41.860        40
41.870       113
41.880        73
41.890        60
41.900        27
41.910        80
41.920        60
41.930        93
41.940        20
41.950        40
41.960        73
41.970        53
41.980        60
41.990        40
42.000        73
42.010        73
42.020        67
42.030        53
42.040        60
42.050        73
42.060        67
42.070        20
42.080        40
42.090        80
42.100        60
42.110        20
42.120        13
42.130        73
42.140        67
42.150        73
42.160        47
42.170        47
42.180        60
42.190        80
42.200        60
42.210        67
42.220        60
42.230        93
42.240        80
42.250        73
42.260        53
42.270        33
42.280        67
42.290        67
42.300        27
42.310        47
42.320        33
42.330        87
42.340        47
42.350        13
42.360        40
42.370        80
42.380        47
42.390        27
42.400        40
42.410        73
42.420        53
42.430        80
42.440        27
42.450        53
42.460        27
42.470        87
42.480        40
42.490        60
42.500        27
42.510        53
42.520        60
42.530        40
42.540        47
42.550        53
42.560        53
42.570        47
42.580        47
42.590        53
42.600        73
42.610        73
42.620        27
42.630        60
42.640        87
42.650        33
42.660        27
42.670        80
42.680        20
42.690        53
42.700        27
42.710        47
42.720        60
42.730        27
42.740        20
42.750        40
42.760        67
42.770        40
42.780        60
42.790        53
42.800        47
42.810        27
42.820        40
42.830        67
42.840        33
42.850        20
42.860        47
42.870        33
42.880        47
42.890        33
42.900        53
42.910        60
42.920        27
42.930        53
42.940        27
42.950        27
42.960        33
42.970        60
42.980        47
42.990        47
43.000        47
43.010        27
43.020        27
43.030        47
43.040        67
43.050        27
43.060        40
43.070        60
43.080        33
43.090        20
43.100        60
43.110        40
43.120        53
43.130        13
43.140        20
43.150        47
43.160        13
43.170        27
43.180        40
43.190        40
43.200        40
43.210        53
43.220        40
43.230        47
43.240        33
43.250        60
43.260        47
43.270        40
43.280        40
43.290        20
43.300        53
43.310        47
43.320        27
43.330        20
43.340        40
43.350        53
43.360        53
43.370        53
43.380        33
43.390        20
43.400        33
43.410        40
43.420        53
43.430        20
43.440        67
43.450        27
43.460        47
43.470        47
43.480        27
43.490        27
43.500        33
43.510        27
43.520        13
43.530        53
43.540        33
43.550        33
43.560        20
43.570        33
43.580        33
43.590        40
43.600        40
43.610        67
43.620        40
43.630        27
43.640        73
43.650        20
43.660        47
43.670        27
43.680        40
43.690        67
43.700        60
43.710        60
43.720        33
43.730        53
43.740        20
43.750        20
43.760        67
43.770        60
43.780        40
43.790        27
43.800        67
43.810        33
43.820        53
43.830        47
43.840        47
43.850        33
43.860        53
43.870        67
43.880        33
43.890        40
43.900        27
43.910        40
43.920        73
43.930        67
43.940        33
43.950        27
43.960        67
43.970        53
43.980        40
43.990        40
44.000        20
44.010        40
44.020        27
44.030        40
44.040        33
44.050        47
44.060        40
44.070        40
44.080        40
44.090        20
44.100        13
44.110        33
44.120        40
44.130        47
44.140        13
44.150        73
44.160        47
44.170        20
44.180        20
44.190        33
44.200        33
44.210        53
44.220        33
44.230        33
44.240        60
44.250        27
44.260        40
44.270        33
44.280        53
44.290        40
44.300        60
44.310        53
44.320        40
44.330        13
44.340        53
44.350        40
44.360        33
44.370        40
44.380        53
44.390        33
44.400        40
44.410        67
44.420        47
44.430        40
44.440        53
44.450        40
44.460        47
44.470        47
44.480        27
44.490        40
44.500        20
44.510        53
44.520        33
44.530        47
44.540        67
44.550        47
44.560        27
44.570        20
44.580        33
44.590         7
44.600        20
44.610        33
44.620        27
44.630        53
44.640        47
44.650        20
44.660        73
44.670        40
44.680        47
44.690        27
44.700        53
44.710        67
44.720        60
44.730        33
44.740        67
44.750        53
44.760        47
44.770        20
44.780        67
44.790        27
44.800        53
44.810        20
44.820        60
44.830        47
44.840        27
44.850        40
44.860        20
44.870        53
44.880        40
44.890        60
44.900        47
44.910        13
44.920        33
44.930        87
44.940        13
44.950        40
44.960        47
44.970        13
44.980        33
44.990        60
45.000        67
45.010        40
45.020        20
45.030        40
45.040        47
45.050        27
45.060        27
45.070        33
45.080        33
45.090        33
45.100        20
45.110        40
45.120        27
45.130        40
45.140        60
45.150        27
45.160        33
45.170        33
45.180        27
45.190        73
45.200        27
45.210        40
45.220        47
45.230        40
45.240        60
45.250        40
45.260        33
45.270        33
45.280        13
45.290        20
45.300        47
45.310        20
45.320        40
45.330        33
45.340        27
45.350        67
45.360        47
45.370        20
45.380        27
45.390        27
45.400        40
45.410        13
45.420        27
45.430        20
45.440        33
45.450         7
45.460         7
45.470        73
45.480        27
45.490        27
45.500        20
45.510        20
45.520        40
45.530        13
45.540        13
45.550        33
45.560        20
45.570        20
45.580        33
45.590        33
45.600        73
45.610        60
45.620        40
45.630        27
45.640        33
45.650        47
45.660        47
45.670        33
45.680        53
45.690        33
45.700        40
45.710        20
45.720        13
45.730        20
45.740        27
45.750        60
45.760        40
45.770        60
45.780        60
45.790        47
45.800        47
45.810        33
45.820        27
45.830        33
45.840        33
45.850        33
45.860        13
45.870         0
45.880        40
45.890        60
45.900        33
45.910        67
45.920        47
45.930        20
45.940        20
45.950        47
45.960        33
45.970        60
45.980        47
45.990        33
46.000        27
46.010        53
46.020        33
46.030        40
46.040        20
46.050        60
46.060        33
46.070        40
46.080        40
46.090        33
46.100        27
46.110        87
46.120        40
46.130        33
46.140        40
46.150        53
46.160        20
46.170        53
46.180        40
46.190        20
46.200        60
46.210        27
46.220        33
46.230        20
46.240        27
46.250        73
46.260        27
46.270        67
46.280        87
46.290        47
46.300        40
46.310        53
46.320        73
46.330        53
46.340        27
46.350        27
46.360        47
46.370        67
46.380        47
46.390        40
46.400        13
46.410        53
46.420        20
46.430        33
46.440        47
46.450        47
46.460        40
46.470        60
46.480        40
46.490        40
46.500        20
46.510        40
46.520        40
46.530        27
46.540        33
46.550        53
46.560        33
46.570        27
46.580        73
46.590        27
46.600        20
46.610        47
46.620        27
46.630        40
46.640        60
46.650        47
46.660        13
46.670        53
46.680        73
46.690        60
46.700        40
46.710        73
46.720        60
46.730        53
46.740        33
46.750        87
46.760       107
46.770        33
46.780        93
46.790       133
46.800        80
46.810        93
46.820       160
46.830       127
46.840        80
46.850       107
46.860       140
46.870       187
46.880        47
46.890        87
46.900        67
46.910        80
46.920        80
46.930        87
46.940       120
46.950        93
46.960        60
46.970       127
46.980       113
46.990       107
47.000       113
47.010       167
47.020       147
47.030       147
47.040       140
47.050       140
47.060       193
47.070       227
47.080       220
47.090       140
47.100       187
47.110       187
47.120       280
47.130       220
47.140       373
47.150       367
47.160       486
47.170       886
47.180      1299
47.190      1599
47.200      1913
47.210      2079
47.220      2119
47.230      2019
47.240      2073
47.250      1873
47.260      1486
47.270      1000
47.280       686
47.290       580
47.300       393
47.310       307
47.320       273
47.330       260
47.340       233
47.350       153
47.360       153
47.370       160
47.380       160
47.390       127
47.400       127
47.410       100
47.420       127
47.430        73
47.440        93
47.450       120
47.460        60
47.470       100
47.480       133
47.490        73
47.500        73
47.510       160
47.520        73
47.530        73
47.540        53
47.550        93
47.560       107
47.570        87
47.580       120
47.590       113
47.600        93
47.610        93
47.620        60
47.630        67
47.640        53
47.650        87
47.660        53
47.670        73
47.680        87
47.690       147
47.700       113
47.710        53
47.720        40
47.730        47
47.740        33
47.750        60
47.760        67
47.770        47
47.780        73
47.790        60
47.800        93
47.810        67
47.820        13
47.830        47
47.840        40
47.850        53
47.860        53
47.870        47
47.880        87
47.890        47
47.900        87
47.910        40
47.920        40
47.930        80
47.940        53
47.950        80
47.960        47
47.970        67
47.980        53
47.990        40
48.000        27
48.010        47
48.020        47
48.030        60
48.040        53
48.050        33
48.060        73
48.070        27
48.080        67
48.090        33
48.100        33
48.110        33
48.120        33
48.130        27
48.140       107
48.150        53
48.160        47
48.170        40
48.180        47
48.190        33
48.200        87
48.210        27
48.220        33
48.230        33
48.240        27
48.250        40
48.260        60
48.270        73
48.280        67
48.290        60
48.300        40
48.310        87
48.320        47
48.330        33
48.340        33
48.350        20
48.360        40
48.370        67
48.380        27
48.390        53
48.400        67
48.410        53
48.420        27
48.430        60
48.440        47
48.450        27
48.460        60
48.470        53
48.480        40
48.490        40
48.500        87
48.510        60
48.520        40
48.530        33
48.540        53
48.550        13
48.560        27
48.570        67
48.580        60
48.590        60
48.600        40
48.610        33
48.620        20
48.630        33
48.640        40
48.650        73
48.660        40
48.670        80
48.680        67
48.690        47
48.700        60
48.710        87
48.720        73
48.730        47
48.740        60
48.750        27
48.760        40
48.770        27
48.780        47
48.790        40
48.800        33
48.810        27
48.820        33
48.830        20
48.840        60
48.850        73
48.860        60
48.870        53
48.880        40
48.890        53
48.900        73
48.910       100
48.920        47
48.930        20
48.940        27
48.950        60
48.960        53
48.970        27
48.980        33
48.990        40
49.000        60
49.010        60
49.020        33
49.030        40
49.040        80
49.050        33
49.060        47
49.070         7
49.080        27
49.090        60
49.100        20
49.110        47
49.120        47
49.130        20
49.140        67
49.150        27
49.160        27
49.170        53
49.180        47
49.190        47
49.200        60
49.210        60
49.220        33
49.230        27
49.240        40
49.250        33
49.260        47
49.270        67
49.280        53
49.290        73
49.300        47
49.310        60
49.320        20
49.330        47
49.340        27
49.350        60
49.360        60
49.370        53
49.380        33
49.390        33
49.400        47
49.410        53
49.420        33
49.430        53
49.440        47
49.450        60
49.460        40
49.470        60
49.480        47
49.490        73
49.500        60
49.510        33
49.520        40
49.530        33
49.540        27
49.550        73
49.560        27
49.570        27
49.580        40
49.590        53
49.600        33
49.610        33
49.620        47
49.630        73
49.640        53
49.650        87
49.660        47
49.670        27
49.680        33
49.690        47
49.700        40
49.710        47
49.720        53
49.730        53
49.740        67
49.750        67
49.760        20
49.770        53
49.780        33
49.790        67
49.800        67
49.810        20
49.820        40
49.830        40
49.840        47
49.850        73
49.860        73
49.870        80
49.880        47
49.890        33
49.900        80
49.910        47
49.920        80
49.930        47
49.940        40
49.950        73
49.960        27
49.970        47
49.980        40
49.990        20
50.000        47
50.010        47
50.020        40
50.030        40
50.040        33
50.050        47
50.060        40
50.070        67
50.080        33
50.090        60
50.100        53
50.110        67
50.120        53
50.130        60
50.140        60
50.150        53
50.160        33
50.170        60
50.180        40
50.190        53
50.200        73
50.210        13
50.220        47
50.230        53
50.240        60
50.250        87
50.260        27
50.270        13
50.280        40
50.290        47
50.300        33
50.310        33
50.320        27
50.330        47
50.340        27
50.350        73
50.360        33
50.370        40
50.380        47
50.390        33
50.400        33
50.410        40
50.420        47
50.430        20
50.440        60
50.450        20
50.460        67
50.470        47
50.480        27
50.490        67
50.500        33
50.510        60
50.520        47
50.530        47
50.540        73
50.550        67
50.560        67
50.570        67
50.580        47
50.590        53
50.600        67
50.610        87
50.620        87
50.630        67
50.640       113
50.650        93
50.660       207
50.670       227
50.680       240
50.690       307
50.700       293
50.710       440
50.720       433
50.730       466
50.740       506
50.750       533
50.760       493
50.770       613
50.780       460
50.790       513
50.800       566
50.810       593
50.820       573
50.830       613
50.840       560
50.850       500
50.860       560
50.870       546
50.880       666
50.890       546
50.900       606
50.910       513
50.920       506
50.930       580
50.940       646
50.950       526
50.960       573
50.970       380
50.980       480
50.990       593
51.000       540
51.010       407
51.020       426
51.030       466
51.040       646
51.050       586
51.060       573
51.070       506
51.080       566
51.090       580
51.100       680
51.110       466
51.120       593
51.130       546
51.140       440
51.150       633
51.160       466
51.170       493
51.180       566
51.190       466
51.200       586
51.210       640
51.220       493
51.230       586
51.240       500
51.250       540
51.260       633
51.270       506
51.280       493
51.290       573
51.300       553
51.310       673
51.320       560
51.330       533
51.340       526
51.350       506
51.360       600
51.370       466
51.380       553
51.390       580
51.400       546
51.410       520
51.420       486
51.430       526
51.440       566
51.450       466
51.460       553
51.470       593
51.480       540
51.490       533
51.500       513
51.510       546
51.520       560
51.530       546
51.540       640
51.550       666
51.560       640
51.570       553
51.580       580
51.590       613
51.600       540
51.610       626
51.620       513
51.630       606
51.640       733
51.650       500
51.660       586
51.670       593
51.680       666
51.690       560
51.700       546
51.710       620
51.720       613
51.730       580
51.740       580
51.750       680
51.760       680
51.770       693
51.780       733
51.790       666
51.800       646
51.810       666
51.820       686
51.830       626
51.840       746
51.850       726
51.860       840
51.870       613
51.880       613
51.890       746
51.900       693
51.910       700
51.920       580
51.930       706
51.940       706
51.950       686
51.960       780
51.970       746
51.980       800
51.990       873
52.000       713
52.010       906
52.020       806
52.030       826
52.040       686
52.050       860
52.060       873
52.070       893
52.080       886
52.090       913
52.100       966
52.110      1013
52.120      1053
52.130       933
52.140      1113
52.150       886
52.160      1093
52.170      1020
52.180      1180
52.190      1080
52.200      1200
52.210      1326
52.220      1266
52.230      1459
52.240      1453
52.250      1379
52.260      1666
52.270      1799
52.280      1913
52.290      2106
52.300      2359
52.310      2746
52.320      2999
52.330      3765
52.340      4032
52.350      4651
52.360      5644
52.370      6011
52.380      7004
52.390      8190
52.400      9250
52.410      9883
52.420     10742
52.430     11502
52.440     12288
52.450     12908
52.460     13515
52.470     14574
52.480     15514
52.490     15814
52.500     18353
52.510     19772
52.520     23317
52.530     27329
52.540     36199
52.550     49447
52.560     76549
52.570    112848
52.580    153492
52.590    182314
52.600    204685
52.610    214901
52.620    213768
52.630    209263
52.640    194296
52.650    159996
52.660    119919
52.670     85912
52.680     63455
52.690     55911
52.700     60549
52.710     73804
52.720     94182
52.730    110203
52.740    125010
52.750    131661
52.760    131381
52.770    127349
52.780    112588
52.790     90984
52.800     64927
52.810     43743
52.820     30121
52.830     20978
52.840     15307
52.850     12422
52.860     10343
52.870      8623
52.880      7317
52.890      6304
52.900      5664
52.910      4432
52.920      3958
52.930      3512
52.940      3219
52.950      3005
52.960      2632
52.970      2492
52.980      2332
52.990      2092
53.000      1953
53.010      1766
53.020      1433
53.030      1706
53.040      1553
53.050      1713
53.060      1439
53.070      1619
53.080      1319
53.090      1293
53.100      1419
53.110      1253
53.120      1293
53.130      1126
53.140      1220
53.150      1120
53.160       953
53.170      1220
53.180      1126
53.190      1193
53.200      1013
53.210      1006
53.220      1040
53.230       900
53.240       933
53.250       986
53.260       853
53.270       986
53.280       813
53.290       833
53.300       860
53.310       986
53.320       840
53.330       873
53.340       886
53.350       920
53.360       780
53.370       740
53.380       786
53.390       700
53.400       793
53.410       773
53.420       946
53.430       740
53.440       766
53.450       706
53.460       560
53.470       793
53.480       653
53.490       760
53.500       646
53.510       686
53.520       640
53.530       626
53.540       606
53.550       640
53.560       606
53.570       520
53.580       560
53.590       646
53.600       593
53.610       706
53.620       700
53.630       500
53.640       633
53.650       593
53.660       573
53.670       500
53.680       480
53.690       620
53.700       526
53.710       573
53.720       560
53.730       520
53.740       460
53.750       440
53.760       680
53.770       533
53.780       633
53.790       460
53.800       493
53.810       573
53.820       553
53.830       506
53.840       573
53.850       480
53.860       593
53.870       453
53.880       560
53.890       533
53.900       420
53.910       526
53.920       506
53.930       500
53.940       480
53.950       526
53.960       540
53.970       393
53.980       480
53.990       486
54.000       553
54.010       460
54.020       506
54.030       440
54.040       433
54.050       566
54.060       340
54.070       506
54.080       440
54.090       446
54.100       440
54.110       413
54.120       453
54.130       460
54.140       486
54.150       300
54.160       520
54.170       466
54.180       407
54.190       340
54.200       453
54.210       426
54.220       453
54.230       400
54.240       453
54.250       413
54.260       426
54.270       407
54.280       440
54.290       340
54.300       353
54.310       393
54.320       433
54.330       466
54.340       407
54.350       453
54.360       513
54.370       426
54.380       367
54.390       480
54.400       493
54.410       420
54.420       387
54.430       300
54.440       440
54.450       440
54.460       426
54.470       420
54.480       380
54.490       380
54.500       500
54.510       446
54.520       407
54.530       367
54.540       347
54.550       293
54.560       460
54.570       293
54.580       340
54.590       373
54.600       367
54.610       400
54.620       460
54.630       387
54.640       320
54.650       393
54.660       367
54.670       380
54.680       327
54.690       340
54.700       420
54.710       413
54.720       420
54.730       373
54.740       307
54.750       440
54.760       393
54.770       313
54.780       347
54.790       373
54.800       373
54.810       373
54.820       426
54.830       313
54.840       407
54.850       413
54.860       400
54.870       320
54.880       433
54.890       387
54.900       387
54.910       440
54.920       400
54.930       273
54.940       320
54.950       320
54.960       273
54.970       313
54.980       313
54.990       327
55.000       340
55.010       313
55.020       333
55.030       420
55.040       353
55.050       327
55.060       320
55.070       253
55.080       333
55.090       347
55.100       347
55.110       393
55.120       393
55.130       360
55.140       400
55.150       360
55.160       347
55.170       293
55.180       313
55.190       300
55.200       300
55.210       387
55.220       373
55.230       267
55.240       320
55.250       273
55.260       273
55.270       260
55.280       360
55.290       233
55.300       260
55.310       347
55.320       313
55.330       327
55.340       267
55.350       380
55.360       307
55.370       307
55.380       307
55.390       293
55.400       260
55.410       333
55.420       400
55.430       287
55.440       253
55.450       380
55.460       200
55.470       327
55.480       267
55.490       340
55.500       273
55.510       267
55.520       353
55.530       347
55.540       273
55.550       380
55.560       267
55.570       287
55.580       293
55.590       340
55.600       387
55.610       300
55.620       380
55.630       240
55.640       267
55.650       327
55.660       333
55.670       280
55.680       287
55.690       293
55.700       287
55.710       233
55.720       287
55.730       347
55.740       307
55.750       313
55.760       280
55.770       313
55.780       307
55.790       373
55.800       320
55.810       340
55.820       313
55.830       280
55.840       340
55.850       320
55.860       260
55.870       313
55.880       280
55.890       260
55.900       293
55.910       267
55.920       247
55.930       327
55.940       347
55.950       247
55.960       353
55.970       247
55.980       280
55.990       313
56.000       247
56.010       360
56.020       273
56.030       313
56.040       313
56.050       400
56.060       333
56.070       293
56.080       293
56.090       220
56.100       253
56.110       333
56.120       247
56.130       293
56.140       293
56.150       307
56.160       327
56.170       260
56.180       267
56.190       253
56.200       393
56.210       267
56.220       213
56.230       273
56.240       233
56.250       367
56.260       267
56.270       227
56.280       413
56.290       227
56.300       213
56.310       273
56.320       233
56.330       293
56.340       213
56.350       307
56.360       293
56.370       260
56.380       240
56.390       347
56.400       300
56.410       240
56.420       280
56.430       253
56.440       287
56.450       307
56.460       300
56.470       253
56.480       253
56.490       287
56.500       233
56.510       233
56.520       253
56.530       207
56.540       260
56.550       313
56.560       307
56.570       293
56.580       300
56.590       260
56.600       220
56.610       300
56.620       307
56.630       313
56.640       287
56.650       227
56.660       233
56.670       320
56.680       193
56.690       320
56.700       260
56.710       253
56.720       300
56.730       200
56.740       233
56.750       253
56.760       260
56.770       253
56.780       293
56.790       300
56.800       247
56.810       273
56.820       260
56.830       267
56.840       187
56.850       287
56.860       147
56.870       233
56.880       307
56.890       253
56.900       167
56.910       233
56.920       247
56.930       273
56.940       213
56.950       220
56.960       293
56.970       247
56.980       180
56.990       200
57.000       220
57.010       233
57.020       200
57.030       147
57.040       200
57.050       260
57.060       247
57.070       260
57.080       260
57.090       313
57.100       200
57.110       300
57.120       253
57.130       253
57.140       213
57.150       227
57.160       233
57.170       260
57.180       267
57.190       193
57.200       220
57.210       293
57.220       227
57.230       147
57.240       227
57.250       287
57.260       273
57.270       160
57.280       200
57.290       247
57.300       313
57.310       193
57.320       247
57.330       213
57.340       273
57.350       267
57.360       180
57.370       180
57.380       220
57.390       240
57.400       253
57.410       280
57.420       260
57.430       267
57.440       260
57.450       233
57.460       253
57.470       207
57.480       253
57.490       193
57.500       180
57.510       280
57.520       220
57.530       173
57.540       213
57.550       273
57.560       180
57.570       220
57.580       220
57.590       267
57.600       327
57.610       287
57.620       267
57.630       207
57.640       213
57.650       247
57.660       240
57.670       187
57.680       213
57.690       187
57.700       227
57.710       267
57.720       213
57.730       287
57.740       133
57.750       240
57.760       213
57.770       213
57.780       227
57.790       193
57.800       227
57.810       187
57.820       213
57.830       260
57.840       207
57.850       193
57.860       167
57.870       220
57.880       240
57.890       173
57.900       167
57.910       207
57.920       227
57.930       207
57.940       273
57.950       273
57.960       260
57.970       273
57.980       153
57.990       213
58.000       207
58.010       247
58.020       167
58.030       193
58.040       167
58.050       173
58.060       253
58.070       240
58.080       187
58.090       173
58.100       140
58.110       180
58.120       200
58.130       180
58.140       187
58.150       240
58.160       213
58.170       273
58.180       153
58.190       187
58.200       193
58.210       200
58.220       160
58.230       267
58.240       207
58.250       167
58.260       253
58.270       167
58.280       140
58.290       253
58.300       173
58.310       233
58.320       260
58.330       273
58.340       247
58.350       227
58.360       180
58.370       240
58.380       160
58.390       220
58.400       200
58.410       213
58.420       200
58.430       193
58.440       167
58.450       233
58.460       180
58.470       193
58.480       160
58.490       253
58.500       187
58.510       147
58.520       147
58.530       207
58.540       213
58.550       233
58.560       173
58.570       227
58.580       240
58.590       213
58.600       147
58.610       160
58.620       147
58.630       207
58.640       193
58.650       207
58.660       173
58.670       173
58.680       200
58.690       227
58.700       140
58.710       207
58.720       267
58.730       207
58.740       167
58.750       260
58.760       167
58.770       160
58.780       167
58.790       167
58.800       227
58.810       187
58.820       227
58.830       173
58.840       187
58.850       160
58.860       147
58.870       140
58.880       207
58.890       133
58.900       167
58.910       147
58.920       160
58.930       160
58.940       207
58.950       233
58.960       207
58.970       220
58.980       167
58.990       193
59.000       173
59.010       227
59.020       140
59.030       220
59.040       187
59.050       187
59.060       187
59.070       133
59.080       127
59.090       147
59.100       253
59.110       207
59.120       107
59.130       187
59.140       180
59.150       260
59.160       180
59.170       187
59.180       227
59.190       193
59.200       153
59.210       213
59.220       153
59.230       173
59.240       193
59.250       200
59.260       240
59.270       140
59.280       207
59.290       133
59.300       113
59.310       173
59.320       167
59.330       173
59.340       187
59.350       133
59.360       173
59.370       127
59.380       153
59.390       180
59.400       193
59.410       160
59.420       127
59.430       133
59.440       133
59.450       147
59.460       200
59.470       140
59.480       180
59.490       180
59.500       100
59.510       180
59.520       213
59.530       180
59.540       160
59.550       153
59.560       127
59.570       153
59.580       180
59.590       280
59.600       213
59.610       173
59.620       233
59.630       187
59.640       173
59.650       200
59.660       167
59.670       193
59.680       153
59.690       147
59.700       173
59.710       167
59.720       153
59.730       187
59.740       207
59.750       140
59.760       153
59.770       167
59.780       167
59.790       180
59.800       127
59.810       220
59.820       173
59.830       233
59.840       113
59.850       220
59.860       180
59.870       187
59.880        93
59.890       133
59.900       127
59.910       127
59.920       120
59.930       167
59.940       193
59.950       153
59.960       187
59.970       120
59.980       160
59.990        80
60.000        80
