20.000         0
20.010         0
20.020         7
20.030         0
20.040         0
20.050         0
20.060         0
20.070        20
20.080       113
20.090        93
20.100       100
20.110        93
20.120       140
20.130       133
20.140        73
20.150        80
20.160       107
20.170       107
20.180       160
20.190       120
20.200        73
20.210       147
20.220        87
20.230        73
20.240       100
20.250       113
20.260       113
20.270       120
20.280        93
20.290        87
20.300        67
20.310       127
20.320       127
20.330       113
20.340       120
20.350       147
20.360       113
20.370       100
20.380        67
20.390        73
20.400       153
20.410       107
20.420        87
20.430       207
20.440        93
20.450       100
20.460       113
20.470        93
20.480       173
20.490       100
20.500       100
20.510        73
20.520        67
20.530       113
20.540       167
20.550        67
20.560       100
20.570       100
20.580       113
20.590        93
20.600       153
20.610       147
20.620       147
20.630       120
20.640       120
20.650        80
20.660       153
20.670        87
20.680       120
20.690       127
20.700       107
20.710        93
20.720       160
20.730       113
20.740       120
20.750       113
20.760       127
20.770       153
20.780        87
20.790       153
20.800       120
20.810        87
20.820        80
20.830       100
20.840        80
20.850       140
20.860        93
20.870       153
20.880       140
20.890       113
20.900        60
20.910       120
20.920       120
20.930       133
20.940       167
20.950       127
20.960       140
20.970       133
20.980       147
20.990       153
21.000       100
21.010       120
21.020       127
21.030        73
21.040       113
21.050       107
21.060       127
21.070       113
21.080       140
21.090        93
21.100       133
21.110        87
21.120        93
21.130        67
21.140        67
21.150       153
21.160        80
21.170       167
21.180       133
21.190       100
21.200       100
21.210       160
21.220       120
21.230       133
21.240       120
21.250       113
21.260        93
21.270       113
21.280       113
21.290       133
21.300       120
21.310       127
21.320       107
21.330       107
21.340       107
21.350        87
21.360       167
21.370        93
21.380       100
21.390       167
21.400        93
21.410       107
21.420       107
21.430       193
21.440        73
21.450       147
21.460        93
21.470       133
21.480       160
21.490       107
21.500        87
21.510       113
21.520       120
21.530        53
21.540        87
21.550       127
21.560       140
21.570       127
21.580       160
21.590       120
21.600       133
21.610       127
21.620       133
21.630        93
21.640        93
21.650       127
21.660       147
21.670       113
21.680        87
21.690       153
21.700       107
21.710       100
21.720       127
21.730       120
21.740        67
21.750       167
21.760       153
21.770       173
21.780       140
21.790       147
21.800       100
21.810        87
21.820       133
21.830       160
21.840       153
21.850       153
21.860       133
21.870       107
21.880       193
21.890       153
21.900       120
21.910       140
21.920       133
21.930        93
21.940       127
21.950       147
21.960       140
21.970       173
21.980       147
21.990       107
22.000       167
22.010       153
22.020       167
22.030        93
22.040       140
22.050       187
22.060       153
22.070       173
22.080       160
22.090       127
22.100       153
22.110       107
22.120       133
22.130       140
22.140       173
22.150       120
22.160       180
22.170       113
22.180       113
22.190       113
22.200       140
22.210        93
22.220       187
22.230       147
22.240        67
22.250       113
22.260       107
22.270       193
22.280       173
22.290       107
22.300       153
22.310       133
22.320       147
22.330       160
22.340       153
22.350       133
22.360       120
22.370       207
22.380       113
22.390       120
22.400       133
22.410       173
22.420       153
22.430       153
22.440       160
22.450       140
22.460       147
22.470       187
22.480       180
22.490       160
22.500       100
22.510       173
22.520       187
22.530       187
22.540       173
22.550       147
22.560       167
22.570       227
22.580       147
22.590       160
22.600       220
22.610       200
22.620       127
22.630       193
22.640       220
22.650       153
22.660       213
22.670       220
22.680       200
22.690       213
22.700       133
22.710       173
22.720       207
22.730       200
22.740       167
22.750       220
22.760       167
22.770       200
22.780       207
22.790       167
22.800       233
22.810       213
22.820       207
22.830       187
22.840       187
22.850       193
22.860       187
22.870       100
22.880       187
22.890       160
22.900       273
22.910       260
22.920       233
22.930       233
22.940       213
22.950       273
22.960       227
22.970       253
22.980       227
22.990       307
23.000       267
23.010       287
23.020       313
23.030       247
23.040       320
23.050       353
23.060       433
23.070       500
23.080       773
23.090      1313
23.100      1779
23.110      1939
23.120      2139
23.130      2339
23.140      2119
23.150      1706
23.160      1933
23.170      1060
23.180       913
23.190       473
23.200       340
23.210       380
23.220       426
23.230       367
23.240       327
23.250       293
23.260       360
23.270       233
23.280       327
23.290       340
23.300       333
23.310       213
23.320       253
23.330       293
23.340       260
23.350       293
23.360       247
23.370       200
23.380       267
23.390       267
23.400       260
23.410       213
23.420       167
23.430       327
23.440       220
23.450       187
23.460       207
23.470       227
23.480       207
23.490       213
23.500       320
23.510       247
23.520       220
23.530       180
23.540       187
23.550       253
23.560       273
23.570       240
23.580       187
23.590       247
23.600       267
23.610       273
23.620       227
23.630       273
23.640       240
23.650       220
23.660       247
23.670       133
23.680       153
23.690       153
23.700       187
23.710       260
23.720       153
23.730       187
23.740       113
23.750       240
23.760       167
23.770       200
23.780       207
23.790       247
23.800       200
23.810       200
23.820       227
23.830       220
23.840       127
23.850       227
23.860       287
23.870       193
23.880       233
23.890       207
23.900       260
23.910       147
23.920       320
23.930       240
23.940       227
23.950       180
23.960       240
23.970       247
23.980       280
23.990       200
24.000       207
24.010       247
24.020       180
24.030       220
24.040       220
24.050       260
24.060       153
24.070       213
24.080       200
24.090       247
24.100       240
24.110       207
24.120       173
24.130       240
24.140       187
24.150       200
24.160       200
24.170       220
24.180       227
24.190       187
24.200       200
24.210       240
24.220       207
24.230       180
24.240       180
24.250       213
24.260       200
24.270       213
24.280       200
24.290       220
24.300       173
24.310       193
24.320       200
24.330       307
24.340       213
24.350       207
24.360       247
24.370       260
24.380       200
24.390       233
24.400       213
24.410       207
24.420       133
24.430       180
24.440       187
24.450       207
24.460       193
24.470       233
24.480       213
24.490       280
24.500       180
24.510       173
24.520       187
24.530       287
24.540       193
24.550       253
24.560       213
24.570       207
24.580       227
24.590       260
24.600       187
24.610       233
24.620       220
24.630       280
24.640       247
24.650       240
24.660       227
24.670       213
24.680       273
24.690       233
24.700       293
24.710       260
24.720       407
24.730       566
24.740       560
24.750       680
24.760       800
24.770      1013
24.780      1000
24.790       986
24.800      1060
24.810       953
24.820       960
24.830       973
24.840      1033
24.850      1080
24.860       940
24.870      1006
24.880      1046
24.890      1046
24.900       893
24.910       980
24.920       946
24.930      1073
24.940      1226
24.950      1080
24.960      1193
24.970      1146
24.980       906
24.990       966
25.000      1006
25.010       933
25.020      1060
25.030      1133
25.040      1106
25.050       973
25.060      1200
25.070      1253
25.080      1006
25.090      1093
25.100       953
25.110       940
25.120      1080
25.130      1126
25.140      1133
25.150      1086
25.160      1266
25.170      1093
25.180      1133
25.190       986
25.200      1186
25.210      1126
25.220      1286
25.230      1126
25.240      1080
25.250      1193
25.260      1100
25.270      1286
25.280      1040
25.290      1186
25.300      1206
25.310      1406
25.320      1213
25.330      1346
25.340      1439
25.350      1240
25.360      1599
25.370      1526
25.380      1659
25.390      1539
25.400      1573
25.410      1853
25.420      2046
25.430      2119
25.440      2166
25.450      2619
25.460      3005
25.470      3885
25.480      4811
25.490      6537
25.500      8150
25.510      9256
25.520     10476
25.530     11362
25.540     13814
25.550     15934
25.560     20365
25.570     30041
25.580     57997
25.590    101786
25.600    149287
25.610    181761
25.620    196235
25.630    199713
25.640    201799
25.650    204572
25.660    196955
25.670    176423
25.680    151093
25.690    134953
25.700    129828
25.710    122444
25.720    108157
25.730     84293
25.740     55564
25.750     34253
25.760     22491
25.770     17606
25.780     15480
25.790     12835
25.800     11642
25.810      9470
25.820      8217
25.830      6564
25.840      6331
25.850      5458
25.860      4438
25.870      3852
25.880      2859
25.890      2672
25.900      2246
25.910      2066
25.920      2019
25.930      1466
25.940      1613
25.950      1619
25.960      1466
25.970      1453
25.980      1506
25.990      1333
26.000      1413
26.010      1486
26.020      1186
26.030      1166
26.040      1246
26.050      1233
26.060      1126
26.070      1326
26.080      1313
26.090      1193
26.100      1120
26.110      1100
26.120      1086
26.130      1160
26.140      1040
26.150      1020
26.160      1126
26.170      1000
26.180      1020
26.190      1046
26.200       986
26.210       940
26.220       993
26.230      1020
26.240       973
26.250       966
26.260      1086
26.270       860
26.280       906
26.290       800
26.300       846
26.310       833
26.320       860
26.330       773
26.340       973
26.350       906
26.360       826
26.370       946
26.380       833
26.390       900
26.400       793
26.410       840
26.420       820
26.430       806
26.440       880
26.450       893
26.460       786
26.470       813
26.480       953
26.490       886
26.500       786
26.510       753
26.520       813
26.530       726
26.540       706
26.550       680
26.560       786
26.570       753
26.580       833
26.590       746
26.600       813
26.610       780
26.620       673
26.630       760
26.640       660
26.650       813
26.660       706
26.670       780
26.680       693
26.690       673
26.700       886
26.710       813
26.720       820
26.730       873
26.740       666
26.750       720
26.760       693
26.770       806
26.780       840
26.790       713
26.800       726
26.810       680
26.820       706
26.830       706
26.840       773
26.850       626
26.860       740
26.870       553
26.880       686
26.890       766
26.900       800
26.910       626
26.920       626
26.930       753
26.940       526
26.950       713
26.960       646
26.970       700
26.980       686
26.990       646
27.000       753
27.010       693
27.020       666
27.030       613
27.040       680
27.050       660
27.060       680
27.070       720
27.080       680
27.090       560
27.100       713
27.110       700
27.120       673
27.130       606
27.140       513
27.150       660
27.160       626
27.170       666
27.180       620
27.190       673
27.200       640
27.210       593
27.220       540
27.230       653
27.240       686
27.250       700
27.260       660
27.270       620
27.280       660
27.290       600
27.300       613
27.310       566
27.320       646
27.330       553
27.340       820
27.350       660
27.360       540
27.370       680
27.380       606
27.390       706
27.400       593
27.410       620
27.420       553
27.430       673
27.440       640
27.450       580
27.460       686
27.470       606
27.480       573
27.490       546
27.500       540
27.510       553
27.520       660
27.530       580
27.540       560
27.550       666
27.560       626
27.570       666
27.580       633
27.590       593
27.600       546
27.610       593
27.620       686
27.630       706
27.640       566
27.650       673
27.660       620
27.670       680
27.680       640
27.690       700
27.700       613
27.710       640
27.720       626
27.730       546
27.740       506
27.750       633
27.760       480
27.770       633
27.780       673
27.790       666
27.800       606
27.810       726
27.820       593
27.830       586
27.840       720
27.850       660
27.860       606
27.870       706
27.880       573
27.890       593
27.900       620
27.910       826
27.920       653
27.930       626
27.940       500
27.950       706
27.960       600
27.970       633
27.980       680
27.990       546
28.000       640
28.010       553
28.020       653
28.030       600
28.040       546
28.050       520
28.060       460
28.070       520
28.080       540
28.090       580
28.100       620
28.110       560
28.120       473
28.130       560
28.140       540
28.150       580
28.160       480
28.170       566
28.180       526
28.190       506
28.200       573
28.210       593
28.220       540
28.230       520
28.240       713
28.250       506
28.260       540
28.270       606
28.280       480
28.290       506
28.300       713
28.310       460
28.320       613
28.330       513
28.340       500
28.350       453
28.360       606
28.370       526
28.380       520
28.390       453
28.400       500
28.410       546
28.420       486
28.430       533
28.440       593
28.450       473
28.460       400
28.470       553
28.480       500
28.490       453
28.500       460
28.510       520
28.520       413
28.530       546
28.540       480
28.550       533
28.560       500
28.570       533
28.580       520
28.590       466
28.600       466
28.610       600
28.620       400
28.630       480
28.640       466
28.650       653
28.660       586
28.670       486
28.680       586
28.690       513
28.700       446
28.710       600
28.720       520
28.730       540
28.740       533
28.750       573
28.760       526
28.770       426
28.780       560
28.790       433
28.800       553
28.810       453
28.820       520
28.830       473
28.840       460
28.850       533
28.860       580
28.870       486
28.880       560
28.890       593
28.900       566
28.910       620
28.920       493
28.930       553
28.940       586
28.950       613
28.960       673
28.970       580
28.980       593
28.990       673
29.000       540
29.010       713
29.020       626
29.030       626
29.040       586
29.050       673
29.060       700
29.070       640
29.080       580
29.090       620
29.100       826
29.110       720
29.120       640
29.130       740
29.140       760
29.150       626
29.160       680
29.170       613
29.180       660
29.190       493
29.200       686
29.210       733
29.220       493
29.230       573
29.240       660
29.250       546
29.260       513
29.270       480
29.280       493
29.290       580
29.300       393
29.310       486
29.320       533
29.330       580
29.340       566
29.350       560
29.360       566
29.370       453
29.380       387
29.390       466
29.400       520
29.410       493
29.420       446
29.430       453
29.440       533
29.450       446
29.460       513
29.470       440
29.480       493
29.490       400
29.500       433
29.510       500
29.520       513
29.530       533
29.540       586
29.550       313
29.560      2286
29.570       526
29.580       473
29.590       380
29.600       493
29.610       433
29.620       453
29.630       620
29.640       453
29.650       586
29.660       426
29.670       446
29.680       446
29.690       400
29.700       373
29.710       393
29.720       400
29.730       520
29.740       413
29.750       426
29.760       327
29.770       360
29.780       500
29.790       360
29.800       367
29.810       446
29.820       407
29.830       400
29.840       373
29.850       413
29.860       400
29.870       387
29.880       347
29.890       400
29.900       400
29.910       347
29.920       333
29.930       413
29.940       446
29.950       446
29.960       420
29.970       347
29.980       353
29.990       353
30.000       387
30.010       453
30.020       307
30.030       340
30.040       393
30.050       373
30.060       293
30.070       293
30.080       267
30.090       327
30.100       307
30.110       486
30.120       353
30.130       353
30.140       320
30.150       347
30.160       407
30.170       360
30.180       300
30.190       367
30.200       420
30.210       433
30.220       387
30.230       367
30.240       380
30.250       387
30.260       347
30.270       407
30.280       433
30.290       320
30.300       426
30.310       327
30.320       400
30.330       393
30.340       413
30.350       360
30.360       287
30.370       460
30.380       320
30.390       340
30.400       253
30.410       460
30.420       407
30.430       353
30.440       353
30.450       380
30.460       407
30.470       360
30.480       367
30.490       273
30.500       340
30.510       400
30.520       347
30.530       387
30.540       433
30.550       380
30.560       327
30.570       420
30.580       440
30.590       433
30.600       400
30.610       440
30.620       426
30.630       426
30.640       327
30.650       293
30.660       300
30.670       413
30.680       420
30.690       340
30.700       367
30.710       473
30.720       320
30.730       347
30.740       327
30.750       333
30.760       360
30.770       313
30.780       340
30.790       426
30.800       333
30.810       380
30.820       347
30.830       387
30.840       426
30.850       347
30.860       340
30.870       260
30.880       300
30.890       293
30.900       360
30.910       313
30.920       340
30.930       413
30.940       373
30.950       333
30.960       320
30.970       373
30.980       313
30.990       433
31.000       373
31.010       407
31.020       360
31.030       327
31.040       300
31.050       393
31.060       353
31.070       233
31.080       340
31.090       253
31.100       267
31.110       327
31.120       307
31.130       360
31.140       353
31.150       320
31.160       333
31.170       367
31.180       273
31.190       293
31.200       280
31.210       333
31.220       360
31.230       367
31.240       347
31.250       340
31.260       293
31.270       347
31.280       380
31.290       280
31.300       360
31.310       373
31.320       273
31.330       313
31.340       333
31.350       313
31.360       260
31.370       373
31.380       300
31.390       287
31.400       407
31.410       327
31.420       273
31.430       280
31.440       293
31.450       253
31.460       273
31.470       273
31.480       320
31.490       407
31.500       347
31.510       280
31.520       300
31.530       327
31.540       240
31.550       307
31.560       333
31.570       287
31.580       387
31.590       333
31.600       307
31.610       307
31.620       367
31.630       333
31.640       287
31.650       273
31.660       287
31.670       213
31.680       273
31.690       260
31.700       307
31.710       353
31.720       280
31.730       247
31.740       300
31.750       273
31.760       347
31.770       293
31.780       340
31.790       273
31.800       267
31.810       213
31.820       273
31.830       300
31.840       293
31.850       327
31.860       267
31.870       307
31.880       267
31.890       247
31.900       267
31.910       333
31.920       233
31.930       240
31.940       253
31.950       247
31.960       273
31.970       233
31.980       213
31.990       247
32.000       313
32.010       320
32.020       287
32.030       307
32.040       313
32.050       220
32.060       207
32.070       320
32.080       207
32.090       307
32.100       280
32.110       280
32.120       333
32.130       280
32.140       307
32.150       287
32.160       307
32.170       273
32.180       260
32.190       300
32.200       313
32.210       300
32.220       347
32.230       313
32.240       307
32.250       387
32.260       347
32.270       307
32.280       446
32.290       227
32.300       433
32.310       347
32.320       380
32.330       267
32.340       327
32.350       367
32.360       333
32.370       253
32.380       233
32.390       340
32.400       300
32.410       227
32.420       280
32.430       207
32.440       267
32.450       207
32.460       307
32.470       233
32.480       280
32.490       240
32.500       200
32.510       220
32.520       240
32.530       220
32.540       260
32.550       247
32.560       307
32.570       240
32.580       260
32.590       287
32.600       273
32.610       180
32.620       207
32.630       327
32.640       293
32.650       213
32.660       260
32.670       247
32.680       313
32.690       280
32.700       300
32.710       333
32.720       287
32.730       313
32.740       187
32.750       260
32.760       313
32.770       247
32.780       247
32.790       313
32.800       227
32.810       173
32.820       280
32.830       307
32.840       193
32.850       247
32.860       220
32.870       153
32.880       287
32.890       273
32.900       193
32.910       293
32.920       193
32.930       227
32.940       173
32.950       220
32.960       193
32.970       320
32.980       213
32.990       220
33.000       253
33.010       260
33.020       247
33.030       247
33.040       260
33.050       200
33.060       200
33.070       147
33.080       233
33.090       253
33.100       207
33.110       293
33.120       287
33.130       187
33.140       160
33.150       140
33.160       227
33.170       267
33.180       293
33.190       200
33.200       247
33.210       120
33.220       227
33.230       260
33.240       240
33.250       280
33.260       213
33.270       200
33.280       300
33.290       227
33.300       187
33.310       187
33.320       233
33.330       247
33.340       167
33.350       173
33.360       207
33.370       180
33.380       220
33.390       220
33.400       160
33.410       220
33.420       207
33.430       180
33.440       233
33.450       200
33.460       213
33.470       180
33.480       227
33.490       213
33.500       187
33.510       153
33.520       127
33.530       300
33.540       167
33.550       207
33.560       120
33.570       173
33.580       127
33.590       180
33.600       173
33.610       240
33.620       213
33.630       227
33.640       193
33.650       193
33.660       193
33.670       207
33.680       213
33.690       213
33.700       200
33.710       180
33.720       240
33.730       173
33.740       160
33.750       187
33.760       160
33.770       173
33.780       127
33.790       133
33.800       180
33.810       113
33.820       160
33.830       227
33.840       213
33.850       173
33.860       153
33.870       140
33.880       180
33.890       227
33.900       227
33.910       200
33.920       227
33.930       233
33.940       120
33.950       120
33.960       167
33.970       193
33.980       140
33.990       147
34.000       153
34.010       160
34.020       147
34.030       180
34.040       220
34.050       140
34.060       200
34.070       193
34.080       200
34.090       140
34.100       173
34.110       240
34.120       167
34.130       200
34.140       173
34.150       213
34.160       160
34.170       147
34.180       133
34.190       167
34.200       200
34.210       193
34.220       180
34.230       167
34.240       227
34.250       140
34.260       153
34.270       180
34.280       120
34.290       193
34.300       247
34.310       153
34.320       187
34.330       140
34.340       147
34.350       160
34.360       167
34.370       220
34.380       147
34.390       147
34.400       153
34.410       167
34.420       180
34.430       160
34.440       140
34.450       253
34.460       187
34.470       200
34.480       113
34.490       173
34.500       153
34.510       107
34.520       160
34.530       207
34.540       220
34.550       200
34.560       240
34.570       227
34.580       160
34.590       147
34.600       173
34.610       173
34.620       173
34.630       153
34.640       133
34.650       167
34.660       173
34.670       140
34.680       193
34.690       173
34.700       153
34.710       167
34.720       160
34.730       167
34.740       133
34.750       240
34.760       107
34.770       100
34.780       233
34.790       167
34.800       147
34.810       213
34.820       180
34.830       120
34.840       160
34.850       167
34.860       167
34.870       147
34.880       187
34.890       220
34.900       133
34.910       127
34.920       140
34.930       173
34.940       133
34.950       133
34.960       167
34.970        80
34.980       180
34.990       107
35.000       147
35.010        93
35.020       140
35.030       167
35.040       113
35.050       133
35.060       127
35.070       140
35.080       140
35.090        93
35.100       167
35.110       173
35.120       153
35.130       147
35.140       140
35.150       127
35.160       140
35.170       140
35.180       127
35.190       147
35.200       200
35.210       140
35.220       140
35.230       147
35.240       167
35.250       133
35.260       187
35.270       180
35.280       193
35.290       127
35.300       127
35.310        93
35.320       167
35.330       253
35.340       153
35.350       153
35.360        93
35.370       147
35.380       133
35.390       173
35.400       173
35.410       153
35.420       107
35.430       153
35.440       133
35.450       113
35.460       107
35.470       147
35.480       113
35.490       127
35.500       160
35.510       127
35.520       113
35.530       133
35.540       113
35.550       133
35.560       147
35.570       160
35.580       133
35.590       160
35.600       153
35.610       193
35.620       127
35.630        67
35.640       147
35.650       127
35.660       113
35.670       127
35.680       167
35.690       147
35.700       147
35.710        93
35.720       133
35.730       133
35.740       113
35.750       113
35.760       120
35.770       140
35.780       140
35.790       113
35.800       153
35.810       113
35.820       140
35.830       113
35.840       133
35.850       113
35.860       120
35.870        87
35.880        80
35.890        60
35.900       160
35.910       100
35.920        73
35.930       140
35.940       113
35.950       153
35.960       200
35.970       147
35.980       127
35.990       147
36.000       160
36.010       120
36.020       113
36.030        93
36.040       113
36.050       100
36.060       133
36.070        93
36.080       133
36.090       140
36.100       147
36.110       107
36.120       167
36.130       100
36.140        93
36.150       100
36.160       133
36.170       100
36.180       140
36.190       160
36.200       107
36.210       140
36.220       100
36.230       120
36.240       133
36.250       100
36.260       113
36.270        80
36.280       120
36.290       127
36.300       127
36.310       180
36.320       107
36.330       140
36.340       167
36.350       133
36.360       140
36.370       100
36.380       107
36.390       120
36.400       127
36.410       120
36.420       140
36.430       133
36.440       147
36.450        80
36.460       147
36.470       100
36.480       133
36.490       120
36.500       160
36.510       133
36.520       153
36.530       120
36.540       140
36.550       127
36.560       133
36.570       147
36.580       140
36.590       167
36.600       120
36.610       147
36.620        93
36.630        93
36.640       107
36.650       153
36.660       120
36.670       113
36.680       100
36.690       120
36.700        80
36.710        93
36.720       107
36.730       113
36.740       113
36.750        67
36.760        53
36.770       113
36.780        87
36.790       133
36.800       160
36.810       107
36.820       107
36.830       120
36.840        87
36.850       107
36.860       160
36.870       107
36.880        87
36.890       100
36.900       160
36.910       120
36.920       100
36.930        73
36.940        93
36.950        87
36.960        80
36.970        80
36.980        93
36.990       147
37.000        93
37.010        67
37.020       120
37.030       133
37.040       127
37.050        80
37.060        80
37.070       120
37.080       127
37.090        93
37.100       113
37.110        93
37.120        73
37.130       107
37.140        87
37.150       107
37.160        60
37.170       100
37.180       107
37.190       107
37.200       153
37.210        93
37.220        93
37.230        93
37.240       107
37.250        73
37.260       120
37.270        60
37.280       140
37.290        67
37.300       120
37.310        87
37.320        93
37.330       133
37.340       140
37.350        87
37.360        80
37.370       127
37.380       113
37.390        93
37.400        87
37.410        73
37.420       100
37.430        87
37.440       100
37.450        73
37.460        80
37.470       127
37.480       153
37.490       147
37.500       100
37.510       127
37.520       120
37.530        53
37.540        87
37.550       107
37.560       100
37.570       140
37.580        93
37.590        53
37.600       107
37.610        93
37.620       100
37.630       153
37.640       133
37.650        87
37.660        93
37.670        93
37.680        80
37.690       113
37.700       127
37.710       100
37.720        67
37.730        67
37.740        67
37.750       127
37.760        80
37.770        87
37.780       100
37.790       107
37.800        53
37.810       113
37.820        87
37.830        53
37.840        80
37.850        93
37.860        47
37.870       127
37.880        60
37.890        93
37.900        93
37.910       120
37.920        80
37.930       107
37.940        73
37.950        67
37.960        73
37.970       107
37.980        73
37.990        67
38.000        93
38.010       147
38.020       107
38.030        47
38.040        80
38.050       107
38.060        80
38.070        87
38.080       133
38.090        67
38.100       100
38.110        67
38.120       107
38.130        53
38.140        87
38.150        47
38.160        60
38.170        87
38.180        67
38.190        53
38.200        93
38.210        87
38.220        53
38.230        87
38.240        73
38.250       113
38.260       107
38.270        80
38.280        80
38.290        53
38.300        73
38.310        80
38.320       100
38.330        73
38.340        53
38.350       133
38.360        67
38.370       100
38.380        67
38.390        80
38.400        33
38.410        47
38.420       100
38.430       107
38.440        87
38.450        60
38.460       107
38.470        80
38.480        87
38.490        73
38.500        73
38.510        80
38.520        60
38.530       107
38.540        47
38.550        87
38.560        73
38.570       100
38.580        93
38.590        80
38.600        73
38.610        67
38.620        53
38.630        67
38.640        60
38.650       100
38.660        40
38.670        47
38.680        73
38.690         7
38.700        73
38.710        80
38.720       100
38.730       100
38.740        80
38.750        80
38.760        60
38.770        80
38.780        53
38.790        73
38.800       113
38.810       100
38.820        67
38.830       100
38.840        93
38.850       127
38.860        60
38.870        53
38.880        73
38.890        73
38.900        87
38.910        60
38.920        33
38.930        60
38.940       127
38.950        47
38.960        73
38.970        73
38.980        73
38.990        67
39.000        73
39.010        73
39.020        73
39.030        60
39.040        80
39.050        80
39.060        73
39.070        60
39.080        53
39.090        40
39.100       100
39.110        47
39.120       113
39.130        87
39.140        67
39.150        60
39.160        87
39.170        87
39.180       113
39.190        47
39.200        67
39.210        47
39.220        93
39.230        47
39.240        60
39.250        73
39.260       113
39.270        93
39.280       107
39.290        40
39.300        27
39.310        53
39.320        87
39.330        73
39.340       653
39.350       100
39.360        53
39.370        40
39.380       100
39.390        67
39.400        67
39.410        60
39.420        53
39.430        53
39.440        87
39.450        33
39.460        47
39.470        47
39.480        40
39.490        53
39.500        60
39.510        47
39.520        60
39.530        40
39.540        60
39.550        67
39.560        73
39.570        47
39.580        47
39.590        53
39.600        87
39.610        33
39.620        73
39.630        53
39.640        53
39.650        80
39.660        47
39.670       113
39.680        33
39.690        53
39.700        53
39.710        67
39.720        47
39.730        40
39.740        60
39.750        40
39.760        60
39.770        60
39.780        67
39.790        53
39.800        60
39.810        60
39.820        73
39.830        73
39.840        40
39.850        67
39.860        67
39.870        47
39.880        93
39.890        47
39.900        67
39.910        60
39.920        53
39.930        67
39.940        47
39.950       100
39.960        73
39.970        73
39.980        40
39.990        67
40.000        73
40.010        67
40.020       133
40.030        40
40.040        47
40.050        47
40.060        53
40.070        67
40.080        87
40.090        47
40.100        73
40.110        47
40.120        93
40.130        87
40.140        47
40.150        67
40.160       107
40.170        53
40.180        47
40.190        60
40.200       120
40.210        73
40.220        47
40.230        73
40.240        73
40.250       107
40.260        67
40.270        87
40.280        67
40.290       100
40.300        33
40.310        60
40.320        47
40.330        60
40.340        53
40.350        80
40.360        60
40.370        53
40.380        80
40.390        33
40.400        93
40.410        87
40.420        87
40.430        73
40.440        40
40.450       113
40.460        67
40.470        40
40.480        53
40.490        33
40.500        80
40.510        93
40.520        73
40.530        40
40.540        93
40.550        47
40.560        67
40.570        73
40.580        87
40.590        60
40.600        40
40.610        80
40.620        47
40.630        93
40.640        73
40.650        80
40.660        60
40.670        27
40.680        93
40.690        53
40.700        67
40.710        33
40.720        60
40.730        80
40.740        87
40.750        80
40.760        47
40.770        73
40.780        73
40.790        47
40.800        33
40.810        73
40.820        40
40.830        80
40.840        60
40.850        73
40.860        53
40.870        33
40.880        40
40.890        73
40.900        53
40.910        60
40.920         7
40.930        27
40.940        47
40.950        40
40.960        40
40.970        73
40.980        60
40.990        20
41.000        47
41.010        80
41.020        87
41.030        47
41.040        87
41.050        47
41.060        53
41.070        33
41.080        53
41.090        53
41.100        60
41.110        40
41.120        53
41.130        47
41.140        53
41.150        40
41.160        67
41.170        27
41.180        53
41.190       100
41.200        53
41.210        40
41.220        87
41.230        67
41.240        40
41.250        73
41.260        67
41.270        33
41.280        53
41.290        47
41.300        60
41.310        47
41.320        60
41.330        20
41.340        40
41.350        53
41.360        20
41.370        87
41.380        47
41.390        27
41.400        27
41.410        13
41.420        60
41.430        47
41.440        47
41.450        47
41.460        27
41.470        60
41.480        27
41.490        53
41.500        27
41.510        33
41.520        53
41.530        60
41.540        53
41.550        33
41.560        60
41.570        53
41.580        87
41.590        67
41.600         7
41.610        60
41.620        40
41.630        33
41.640        20
41.650        33
41.660        53
41.670        27
41.680        60
41.690        67
41.700        60
41.710        40
41.720        73
41.730        20
41.740        73
41.750        60
41.760        13
41.770        40
41.780        27
41.790        87
41.800        47
41.810        33
41.820        60
41.830        53
41.840        47
41.850        67
41.860        60
41.870        73
41.880        53
41.890        67
41.900        40
41.910        40
41.920        53
41.930        73
41.940        93
41.950        60
41.960        60
41.970        40
41.980        87
41.990        93
42.000        53
42.010        60
42.020        73
42.030        67
42.040        87
42.050        60
42.060        47
42.070        93
42.080        87
42.090        80
42.100        20
42.110        47
42.120        33
42.130        47
42.140        47
42.150        20
42.160        87
42.170        73
42.180        20
42.190        73
42.200        47
42.210        27
42.220        33
42.230        87
42.240        80
42.250        47
42.260        27
42.270        60
42.280        33
42.290        67
42.300        53
42.310        40
42.320        47
42.330        67
42.340        47
42.350        53
42.360        53
42.370        20
42.380        53
42.390        33
42.400        40
42.410        60
42.420        60
42.430        40
42.440        40
42.450        47
42.460        40
42.470        40
42.480        47
42.490        67
42.500        27
42.510        93
42.520        20
42.530        33
42.540        47
42.550        40
42.560        47
42.570        60
42.580        80
42.590        33
42.600        53
42.610        40
42.620        93
42.630        33
42.640        47
42.650        60
42.660        20
42.670        40
42.680        40
42.690        27
42.700        53
42.710        33
42.720        53
42.730        87
42.740        40
42.750        53
42.760        47
42.770        33
42.780         7
42.790        53
42.800       107
42.810        33
42.820        80
42.830        47
42.840        20
42.850        53
42.860        40
42.870        47
42.880        40
42.890        60
42.900        33
42.910        73
42.920        53
42.930        27
42.940        60
42.950        40
42.960        53
42.970        47
42.980        53
42.990        47
43.000        53
43.010        20
43.020        40
43.030        53
43.040        33
43.050        60
43.060        40
43.070        27
43.080        67
43.090        33
43.100        47
43.110        33
43.120        53
43.130        33
43.140        40
43.150        53
43.160        33
43.170        47
43.180        60
43.190        13
43.200        60
43.210        13
43.220        47
43.230        33
43.240        67
43.250        67
43.260        47
43.270        33
43.280        27
43.290        33
43.300        27
43.310        33
43.320        33
43.330        53
43.340        20
43.350        73
43.360        67
43.370        27
43.380        33
43.390        40
43.400         7
43.410        20
43.420        20
43.430        67
43.440        20
43.450        47
43.460        20
43.470        33
43.480        53
43.490        20
43.500        67
43.510        13
43.520        53
43.530        33
43.540        73
43.550        20
43.560        33
43.570        53
43.580        20
43.590        13
43.600        27
43.610        20
43.620        20
43.630        40
43.640        33
43.650        27
43.660        60
43.670        53
43.680        40
43.690        47
43.700        33
43.710        47
43.720         7
43.730        27
43.740        13
43.750        40
43.760        33
43.770        20
43.780        13
43.790        40
43.800        40
43.810        40
43.820        33
43.830        20
43.840        40
43.850        27
43.860        33
43.870        27
43.880        20
43.890        40
43.900        53
43.910        53
43.920        27
43.930        73
43.940        47
43.950        33
43.960        27
43.970        20
43.980        40
43.990        40
44.000        47
44.010        33
44.020        47
44.030        27
44.040        20
44.050        33
44.060        47
44.070        27
44.080        40
44.090        33
44.100        20
44.110        53
44.120        33
44.130        33
44.140        13
44.150        33
44.160        47
44.170        60
44.180        27
44.190        53
44.200        60
44.210        33
44.220        53
44.230        13
44.240        27
44.250        27
44.260        33
44.270        60
44.280        80
44.290        40
44.300        27
44.310        53
44.320        33
44.330        53
44.340        67
44.350        53
44.360        73
44.370        33
44.380        47
44.390        33
44.400        20
44.410        27
44.420        53
44.430        80
44.440        20
44.450        20
44.460        67
44.470        40
44.480        27
44.490         7
44.500        47
44.510        67
44.520        67
44.530        53
44.540        13
44.550        40
44.560        47
44.570        40
44.580        27
44.590        33
44.600        27
44.610        47
44.620        40
44.630        60
44.640        20
44.650        53
44.660        53
44.670        60
44.680        13
44.690         7
44.700        33
44.710        53
44.720        53
44.730        20
44.740        73
44.750        20
44.760        13
44.770        20
44.780        80
44.790        20
44.800        27
44.810        27
44.820        40
44.830        33
44.840        33
44.850        33
44.860        20
44.870        33
44.880        27
44.890        47
44.900        33
44.910        47
44.920        60
44.930        33
44.940        27
44.950        40
44.960        33
44.970        20
44.980        20
44.990        13
45.000         7
45.010        27
45.020        40
45.030        60
45.040        33
45.050         7
45.060        33
45.070        73
45.080        47
45.090        53
45.100        20
45.110        27
45.120        33
45.130        40
45.140        53
45.150        47
45.160        27
45.170        53
45.180        20
45.190        40
45.200        53
45.210        47
45.220        27
45.230        27
45.240        47
45.250        53
45.260        27
45.270        47
45.280        20
45.290        33
45.300        47
45.310        27
45.320        47
45.330        20
45.340        47
45.350        13
45.360        33
45.370        47
45.380        47
45.390        27
45.400        13
45.410        13
45.420        47
45.430        40
45.440        33
45.450        47
45.460        20
45.470        53
45.480        47
45.490        27
45.500        27
45.510        40
45.520        13
45.530        60
45.540        20
45.550        27
45.560        60
45.570        40
45.580        27
45.590        20
45.600        60
45.610        47
45.620        40
45.630        53
45.640        33
45.650        27
45.660        20
45.670        80
45.680        33
45.690        27
45.700        27
45.710        33
45.720        13
45.730        47
45.740        27
45.750        47
45.760        13
45.770        47
45.780        47
45.790        27
45.800        87
45.810        67
45.820        40
45.830        47
45.840        27
45.850        27
45.860        20
45.870        60
45.880        40
45.890        73
45.900        60
45.910        53
45.920        40
45.930        33
45.940        67
45.950        87
45.960        27
45.970        53
45.980        53
45.990        53
46.000        47
46.010        33
46.020        47
46.030        53
46.040        40
46.050        33
46.060        67
46.070        40
46.080        60
46.090        93
46.100        53
46.110        47
46.120        33
46.130        47
46.140        33
46.150        80
46.160        80
46.170        40
46.180        47
46.190        53
46.200        40
46.210        60
46.220        20
46.230        20
46.240        33
46.250        60
46.260        53
46.270        40
46.280        60
46.290        67
46.300        40
46.310        60
46.320        27
46.330        20
46.340        27
46.350        47
46.360        33
46.370        33
46.380        20
46.390        33
46.400        47
46.410        47
46.420        27
46.430        27
46.440        67
46.450        60
46.460        20
46.470        40
46.480        27
46.490        53
46.500        20
46.510        53
46.520        33
46.530        40
46.540        73
46.550        20
46.560        20
46.570        27
46.580        53
46.590        20
46.600        20
46.610        60
46.620        40
46.630        47
46.640        40
46.650        33
46.660        20
46.670        47
46.680        73
46.690        40
46.700        80
46.710        47
46.720        40
46.730        47
46.740        60
46.750        53
46.760        60
46.770        53
46.780       107
46.790        67
46.800       100
46.810       120
46.820        80
46.830        80
46.840       120
46.850       120
46.860        80
46.870        87
46.880       107
46.890       107
46.900       113
46.910        93
46.920        67
46.930       107
46.940        60
46.950       140
46.960        87
46.970        93
46.980        73
46.990        80
47.000        60
47.010        87
47.020       107
47.030       113
47.040       140
47.050       107
47.060       120
47.070       147
47.080       120
47.090       193
47.100       107
47.110       187
47.120       213
47.130       293
47.140       307
47.150       493
47.160       560
47.170       753
47.180      1046
47.190      1326
47.200      1733
47.210      1993
47.220      2186
47.230      2166
47.240      2286
47.250      1659
47.260      1313
47.270      1126
47.280       906
47.290       666
47.300       387
47.310       367
47.320       400
47.330       320
47.340       233
47.350       233
47.360       153
47.370       153
47.380       173
47.390       120
47.400       187
47.410       133
47.420        47
47.430        93
47.440       100
47.450        53
47.460       100
47.470        67
47.480        73
47.490        87
47.500        80
47.510        87
47.520        87
47.530        47
47.540        80
47.550       127
47.560        40
47.570        67
47.580       100
47.590        60
47.600        60
47.610        80
47.620        60
47.630        73
47.640        60
47.650        87
47.660        80
47.670        53
47.680        87
47.690        73
47.700        73
47.710        53
47.720        53
47.730        60
47.740        60
47.750        40
47.760        80
47.770        80
47.780        67
47.790        53
47.800        47
47.810        60
47.820        40
47.830        40
47.840        40
47.850        60
47.860        20
47.870        47
47.880        27
47.890        67
47.900        60
47.910        27
47.920        47
47.930        73
47.940        20
47.950        60
47.960        40
47.970        60
47.980        60
47.990        87
48.000        67
48.010        20
48.020        60
48.030        80
48.040        60
48.050        60
48.060        20
48.070        27
48.080        13
48.090        60
48.100        40
48.110        80
48.120        60
48.130        33
48.140        53
48.150        13
48.160        67
48.170        87
48.180        40
48.190        67
48.200        73
48.210        67
48.220        27
48.230        87
48.240        87
48.250        67
48.260        13
48.270        73
48.280        47
48.290        13
48.300        53
48.310        53
48.320        53
48.330        33
48.340        40
48.350        47
48.360        27
48.370        40
48.380        40
48.390        27
48.400        33
48.410        33
48.420        53
48.430        60
48.440        47
48.450        53
48.460        53
48.470        33
48.480        27
48.490        40
48.500        60
48.510        20
48.520        53
48.530        47
48.540        33
48.550        33
48.560        53
48.570        53
48.580        20
48.590        60
48.600        13
48.610        13
48.620        60
48.630        53
48.640        67
48.650        40
48.660        40
48.670        60
48.680        47
48.690        60
48.700        67
48.710        40
48.720        60
48.730        53
48.740        67
48.750        40
48.760        33
48.770        27
48.780        53
48.790        40
48.800        27
48.810        73
48.820        33
48.830        20
48.840        47
48.850        20
48.860        67
48.870        33
48.880        47
48.890        27
48.900        60
48.910        60
48.920        67
48.930        40
48.940        27
48.950        67
48.960        27
48.970        20
48.980        33
48.990        80
49.000        67
49.010        40
49.020        60
49.030        40
49.040        73
49.050        40
49.060        20
49.070        80
49.080        33
49.090        27
49.100        27
49.110        67
49.120        40
49.130        67
49.140        40
49.150        47
49.160        53
49.170        40
49.180        20
49.190        53
49.200        40
49.210        87
49.220        60
49.230        20
49.240        33
49.250        53
49.260        13
49.270        13
49.280        80
49.290        60
49.300        13
49.310        13
49.320        47
49.330        20
49.340        73
49.350        47
49.360        40
49.370        60
49.380        53
49.390        53
49.400        33
49.410        33
49.420        47
49.430        20
49.440        47
49.450        53
49.460        20
49.470        53
49.480        47
49.490        40
49.500        20
49.510        67
49.520        40
49.530        53
49.540        60
49.550        27
49.560        47
49.570        60
49.580        53
49.590        40
49.600        40
49.610        40
49.620        27
49.630        53
49.640        40
49.650        53
49.660        33
49.670        13
49.680        20
49.690        87
49.700        47
49.710        33
49.720        33
49.730        47
49.740         7
49.750        40
49.760        60
49.770        73
49.780        40
49.790        47
49.800        27
49.810        53
49.820        33
49.830        40
49.840        53
49.850        53
49.860        47
49.870        67
49.880        47
49.890        47
49.900        53
49.910        27
49.920        33
49.930        53
49.940        60
49.950        60
49.960        40
49.970        53
49.980        40
49.990        67
50.000        33
50.010        60
50.020        53
50.030        33
50.040        73
50.050        40
50.060        33
50.070        40
50.080        33
50.090        47
50.100        27
50.110        33
50.120        47
50.130        27
50.140        40
50.150        53
50.160        47
50.170        60
50.180        40
50.190        40
50.200        40
50.210        13
50.220        53
50.230        47
50.240        53
50.250        53
50.260        53
50.270        40
50.280        33
50.290        27
50.300        47
50.310        27
50.320        27
50.330        60
50.340        20
50.350        67
50.360        33
50.370        53
50.380        87
50.390        53
50.400        67
50.410         7
50.420        33
50.430        53
50.440        47
50.450        47
50.460        33
50.470        53
50.480        40
50.490        27
50.500        33
50.510        53
50.520        33
50.530        40
50.540        40
50.550        47
50.560        87
50.570        13
50.580        27
50.590        40
50.600        60
50.610        80
50.620        80
50.630       107
50.640        80
50.650       107
50.660       120
50.670       173
50.680       220
50.690       280
50.700       240
50.710       347
50.720       407
50.730       353
50.740       493
50.750       407
50.760       513
50.770       533
50.780       513
50.790       533
50.800       533
50.810       533
50.820       400
50.830       580
50.840       540
50.850       513
50.860       407
50.870       546
50.880       453
50.890       360
50.900       500
50.910       526
50.920       600
50.930       540
50.940       540
50.950       533
50.960       500
50.970       520
50.980       526
50.990       566
51.000       480
51.010       400
51.020       520
51.030       480
51.040       473
51.050       493
51.060       473
51.070       673
51.080       600
51.090       586
51.100       500
51.110       600
51.120       593
51.130       506
51.140       600
51.150       480
51.160       506
51.170       513
51.180       573
51.190       533
51.200       580
51.210       560
51.220       420
51.230       546
51.240       533
51.250       486
51.260       506
51.270       593
51.280       553
51.290       520
51.300       606
51.310       560
51.320       480
51.330       566
51.340       600
51.350       560
51.360       593
51.370       626
51.380       526
51.390       573
51.400       613
51.410       506
51.420       480
51.430       553
51.440       500
51.450       613
51.460       640
51.470       520
51.480       586
51.490       600
51.500       520
51.510       546
51.520       513
51.530       526
51.540       586
51.550       646
51.560       640
51.570       566
51.580       686
51.590       466
51.600       573
51.610       640
51.620       473
51.630       733
51.640       533
51.650       620
51.660       453
51.670       560
51.680       540
51.690       626
51.700       586
51.710       473
51.720       613
51.730       580
51.740       446
51.750       606
51.760       686
51.770       646
51.780       660
51.790       606
51.800       633
51.810       560
51.820       560
51.830       580
51.840       526
51.850       606
51.860       706
51.870       593
51.880       580
51.890       760
51.900       613
51.910       660
51.920       640
51.930       740
51.940       573
51.950       646
51.960       606
51.970       733
51.980       713
51.990       686
52.000       733
52.010       786
52.020       793
52.030       773
52.040       693
52.050       706
52.060       746
52.070       933
52.080       760
52.090       753
52.100       766
52.110       780
52.120       860
52.130       940
52.140       793
52.150       993
52.160       933
52.170      1040
52.180      1020
52.190       886
52.200       840
52.210      1146
52.220      1160
52.230      1293
52.240      1200
52.250      1299
52.260      1479
52.270      1539
52.280      1433
52.290      1913
52.300      2226
52.310      2306
52.320      2459
52.330      2786
52.340      2919
52.350      3672
52.360      3758
52.370      4118
52.380      4278
52.390      4272
52.400      4352
52.410      4618
52.420      4785
52.430      4372
52.440      4718
52.450      5758
52.460      6198
52.470      6931
52.480      8403
52.490      9949
52.500     12162
52.510     14434
52.520     17999
52.530     22678
52.540     28855
52.550     40157
52.560     62095
52.570     99693
52.580    140024
52.590    174130
52.600    193969
52.610    206391
52.620    208776
52.630    206444
52.640    190804
52.650    160629
52.660    122291
52.670     86012
52.680     63735
52.690     54705
52.700     58437
52.710     71251
52.720     91637
52.730    109803
52.740    123924
52.750    132554
52.760    132041
52.770    126496
52.780    116600
52.790     95409
52.800     69206
52.810     47654
52.820     30968
52.830     22444
52.840     17919
52.850     14214
52.860     11862
52.870     10776
52.880      9776
52.890      8723
52.900      8043
52.910      6791
52.920      6271
52.930      4711
52.940      4358
52.950      3439
52.960      2846
52.970      2692
52.980      2506
52.990      2379
53.000      2159
53.010      1986
53.020      2059
53.030      1646
53.040      1559
53.050      1506
53.060      1593
53.070      1559
53.080      1413
53.090      1226
53.100      1386
53.110      1333
53.120      1299
53.130      1160
53.140      1313
53.150      1140
53.160      1180
53.170      1133
53.180      1140
53.190      1013
53.200       840
53.210      1053
53.220       900
53.230       973
53.240       966
53.250       860
53.260       873
53.270       986
53.280       973
53.290       946
53.300       686
53.310       693
53.320       820
53.330       753
53.340       906
53.350       773
53.360       906
53.370       766
53.380       840
53.390       700
53.400       660
53.410       620
53.420       753
53.430       753
53.440       773
53.450       660
53.460       740
53.470       753
53.480       666
53.490       660
53.500       680
53.510       693
53.520       633
53.530       620
53.540       493
53.550       573
53.560       526
53.570       573
53.580       546
53.590       546
53.600       580
53.610       540
53.620       546
53.630       613
53.640       480
53.650       626
53.660       593
53.670       566
53.680       606
53.690       473
53.700       513
53.710       486
53.720       646
53.730       553
53.740       500
53.750       480
53.760       460
53.770       586
53.780       506
53.790       520
53.800       500
53.810       520
53.820       440
53.830       560
53.840       486
53.850       540
53.860       606
53.870       506
53.880       600
53.890       593
53.900       520
53.910       460
53.920       393
53.930       473
53.940       506
53.950       446
53.960       520
53.970       526
53.980       546
53.990       540
54.000       433
54.010       380
54.020       400
54.030       513
54.040       380
54.050       500
54.060       407
54.070       420
54.080       400
54.090       340
54.100       506
54.110       420
54.120       446
54.130       413
54.140       300
54.150       473
54.160       493
54.170       387
54.180       566
54.190       520
54.200       500
54.210       400
54.220       486
54.230       413
54.240       313
54.250       380
54.260       413
54.270       460
54.280       473
54.290       300
54.300       500
54.310       367
54.320       340
54.330       480
54.340       460
54.350       347
54.360       367
54.370       380
54.380       393
54.390       420
54.400       367
54.410       327
54.420       300
54.430       400
54.440       440
54.450       446
54.460       400
54.470       453
54.480       347
54.490       273
54.500       373
54.510       360
54.520       367
54.530       393
54.540       433
54.550       373
54.560       353
54.570       333
54.580       460
54.590       380
54.600       373
54.610       360
54.620       393
54.630       333
54.640       400
54.650       473
54.660       313
54.670       320
54.680       313
54.690       453
54.700       360
54.710       347
54.720       360
54.730       380
54.740       446
54.750       360
54.760       393
54.770       387
54.780       327
54.790       333
54.800       340
54.810       367
54.820       340
54.830       340
54.840       353
54.850       293
54.860       340
54.870       520
54.880       300
54.890       426
54.900       393
54.910       347
54.920       367
54.930       340
54.940       446
54.950       313
54.960       293
54.970       313
54.980       333
54.990       327
55.000       333
55.010       387
55.020       313
55.030       307
55.040       360
55.050       320
55.060       360
55.070       293
55.080       307
55.090       380
55.100       333
55.110       380
55.120       300
55.130       380
55.140       327
55.150       293
55.160       273
55.170       313
55.180       320
55.190       360
55.200       273
55.210       340
55.220       333
55.230       280
55.240       313
55.250       247
55.260       293
55.270       307
55.280       360
55.290       287
55.300       287
55.310       313
55.320       220
55.330       240
55.340       293
55.350       247
55.360       393
55.370       300
55.380       340
55.390       327
55.400       367
55.410       213
55.420       287
55.430       273
55.440       253
55.450       260
55.460       307
55.470       267
55.480       267
55.490       300
55.500       233
55.510       320
55.520       260
55.530       307
55.540       240
55.550       480
55.560       340
55.570       293
55.580       327
55.590       293
55.600       353
55.610       227
55.620       260
55.630       300
55.640       267
55.650       327
55.660       267
55.670       353
55.680       227
55.690       253
55.700       347
55.710       280
55.720       260
55.730       313
55.740       247
55.750       300
55.760       180
55.770       340
55.780       240
55.790       267
55.800       340
55.810       320
55.820       353
55.830       333
55.840       267
55.850       287
55.860       320
55.870       280
55.880       200
55.890       360
55.900       213
55.910       293
55.920       253
55.930       307
55.940       267
55.950       353
55.960       287
55.970       293
55.980       247
55.990       200
56.000       240
56.010       200
56.020       333
56.030       260
56.040       373
56.050       313
56.060       280
56.070       240
56.080       273
56.090       347
56.100       287
56.110       247
56.120       313
56.130       273
56.140       213
56.150       233
56.160       287
56.170       320
56.180       240
56.190       267
56.200       293
56.210       213
56.220       260
56.230       300
56.240       293
56.250       247
56.260       333
56.270       260
56.280       287
56.290       247
56.300       253
56.310       280
56.320       233
56.330       227
56.340       320
56.350       280
56.360       293
56.370       387
56.380       293
56.390       247
56.400       287
56.410       233
56.420       247
56.430       213
56.440       340
56.450       307
56.460       307
56.470       280
56.480       287
56.490       347
56.500       167
56.510       313
56.520       280
56.530       240
56.540       233
56.550       227
56.560       253
56.570       253
56.580       240
56.590       253
56.600       253
56.610       293
56.620       127
56.630       307
56.640       253
56.650       273
56.660       187
56.670       353
56.680       260
56.690       233
56.700       233
56.710       300
56.720       187
56.730       253
56.740       240
56.750       227
56.760       253
56.770       260
56.780       300
56.790       227
56.800       260
56.810       180
56.820       207
56.830       173
56.840       247
56.850       240
56.860       233
56.870       180
56.880       167
56.890       287
56.900       213
56.910       233
56.920       313
56.930       227
56.940       293
56.950       213
56.960       260
56.970       233
56.980       253
56.990       240
57.000       187
57.010       200
57.020       307
57.030       187
57.040       160
57.050       160
57.060       200
57.070       233
57.080       260
57.090       253
57.100       293
57.110       233
57.120       173
57.130       307
57.140       207
57.150       227
57.160       260
57.170       333
57.180       240
57.190       207
57.200       147
57.210       247
57.220       320
57.230       233
57.240       240
57.250       227
57.260       180
57.270       233
57.280       240
57.290       220
57.300       200
57.310       307
57.320       227
57.330       187
57.340       207
57.350       213
57.360       173
57.370       267
57.380       187
57.390       187
57.400       233
57.410       240
57.420       233
57.430       253
57.440       173
57.450       207
57.460       227
57.470       227
57.480       260
57.490       247
57.500       180
57.510       140
57.520       247
57.530       260
57.540       200
57.550       180
57.560       240
57.570       200
57.580       233
57.590       273
57.600       247
57.610       253
57.620       220
57.630       267
57.640       207
57.650       267
57.660       247
57.670       213
57.680       207
57.690       180
57.700       233
57.710       187
57.720       187
57.730       240
57.740       200
57.750       240
57.760       173
57.770       167
57.780       193
57.790       147
57.800       233
57.810       240
57.820       193
57.830       253
57.840       207
57.850       247
57.860       213
57.870       187
57.880       240
57.890       200
57.900       180
57.910       167
57.920       227
57.930       167
57.940       140
57.950       227
57.960       233
57.970       173
57.980       253
57.990       247
58.000       213
58.010       187
58.020       167
58.030       207
58.040       133
58.050       207
58.060       167
58.070       227
58.080       167
58.090       227
58.100       173
58.110       180
58.120       173
58.130       207
58.140       273
58.150       160
58.160       220
58.170       207
58.180       167
58.190       207
58.200       187
58.210       200
58.220       233
58.230       240
58.240       207
58.250       220
58.260       120
58.270       187
58.280       120
58.290       167
58.300       173
58.310       160
58.320       193
58.330       173
58.340       193
58.350       200
58.360       207
58.370       167
58.380       140
58.390       280
58.400       193
58.410       260
58.420       160
58.430       167
58.440       167
58.450       213
58.460       260
58.470       180
58.480       207
58.490       127
58.500       207
58.510       227
58.520       247
58.530       167
58.540       213
58.550       180
58.560       247
58.570       167
58.580       247
58.590       133
58.600       207
58.610       200
58.620       127
58.630       173
58.640       167
58.650       207
58.660       180
58.670       180
58.680       173
58.690       160
58.700       220
58.710       153
58.720       167
58.730       173
58.740       207
58.750       153
58.760       160
58.770       140
58.780       133
58.790       153
58.800       153
58.810       173
58.820       227
58.830       180
58.840       220
58.850       207
58.860       173
58.870       220
58.880       213
58.890       187
58.900       160
58.910       153
58.920       200
58.930       127
58.940       233
58.950       233
58.960       160
58.970       187
58.980       127
58.990       140
59.000       167
59.010       127
59.020       147
59.030       220
59.040       280
59.050       133
59.060       147
59.070       173
59.080       207
59.090       140
59.100       160
59.110       207
59.120       153
59.130       193
59.140       153
59.150       213
59.160       240
59.170       187
59.180       153
59.190       167
59.200       120
59.210       200
59.220       107
59.230       207
59.240       220
59.250       167
59.260       140
59.270       193
59.280       180
59.290       180
59.300       187
59.310       113
59.320       173
59.330       153
59.340       100
59.350       193
59.360       127
59.370       187
59.380       113
59.390       147
59.400       153
59.410       180
59.420       207
59.430       127
59.440       180
59.450       133
59.460       180
59.470       160
59.480       193
59.490       140
59.500       160
59.510       147
59.520       140
59.530       227
59.540       153
59.550       140
59.560       220
59.570       220
59.580       167
59.590       173
59.600       160
59.610       127
59.620       180
59.630       127
59.640       173
59.650       133
59.660       167
59.670       200
59.680       153
59.690       160
59.700       193
59.710       147
59.720       107
59.730       140
59.740       207
59.750       133
59.760       127
59.770       140
59.780       167
59.790       160
59.800       107
59.810       173
59.820       253
59.830       147
59.840       167
59.850       153
59.860       167
59.870       153
59.880       220
59.890       180
59.900       220
59.910       107
59.920       140
59.930       187
59.940       147
59.950       153
59.960       180
59.970       147
59.980       153
59.990       167
60.000       180
