20.000        73
20.010        73
20.020       120
20.030       100
20.040        93
20.050       133
20.060       113
20.070       127
20.080       120
20.090       120
20.100       127
20.110        93
20.120       113
20.130       147
20.140        67
20.150       120
20.160        60
20.170        73
20.180       113
20.190       100
20.200       127
20.210        87
20.220       107
20.230       160
20.240       127
20.250        73
20.260        87
20.270       100
20.280       140
20.290        73
20.300        87
20.310        93
20.320       167
20.330       133
20.340       133
20.350       100
20.360       113
20.370       107
20.380       107
20.390       167
20.400       120
20.410       107
20.420        80
20.430       133
20.440        93
20.450       140
20.460        80
20.470       100
20.480       133
20.490        80
20.500        60
20.510       127
20.520       100
20.530       120
20.540        93
20.550       140
20.560       120
20.570        93
20.580       120
20.590       107
20.600       107
20.610       147
20.620       127
20.630       107
20.640        93
20.650        93
20.660       113
20.670        93
20.680       100
20.690        80
20.700        73
20.710        93
20.720       113
20.730       107
20.740       147
20.750        80
20.760        87
20.770       133
20.780       153
20.790       140
20.800       147
20.810        73
20.820       107
20.830        87
20.840       113
20.850       127
20.860       153
20.870       120
20.880       107
20.890       140
20.900       160
20.910        80
20.920       160
20.930       100
20.940       127
20.950       113
20.960       193
20.970       133
20.980       113
20.990       120
21.000       120
21.010        93
21.020       100
21.030       127
21.040       100
21.050       107
21.060       127
21.070        73
21.080        67
21.090       113
21.100       107
21.110       147
21.120        87
21.130       133
21.140       120
21.150        87
21.160       107
21.170        93
21.180       107
21.190        87
21.200       140
21.210       113
21.220        93
21.230       113
21.240        80
21.250       120
21.260        67
21.270        73
21.280        87
21.290        67
21.300       133
21.310       107
21.320       120
21.330        87
21.340        87
21.350       113
21.360       107
21.370       100
21.380       133
21.390       167
21.400       120
21.410       107
21.420        80
21.430       107
21.440       133
21.450       153
21.460        93
21.470       107
21.480       107
21.490       113
21.500       107
21.510       153
21.520       200
21.530       113
21.540       207
21.550       153
21.560       107
21.570       167
21.580       120
21.590        87
21.600       147
21.610       140
21.620        93
21.630       113
21.640       140
21.650       120
21.660       153
21.670       147
21.680       133
21.690       187
21.700       147
21.710       113
21.720       113
21.730       153
21.740       140
21.750       180
21.760       160
21.770       213
21.780        87
21.790       120
21.800       160
21.810       147
21.820       140
21.830       147
21.840       100
21.850       140
21.860       147
21.870       167
21.880       160
21.890       173
21.900       173
21.910       173
21.920       133
21.930       200
21.940       200
21.950       213
21.960       160
21.970       147
21.980       140
21.990       160
22.000       113
22.010       167
22.020       180
22.030       160
22.040       120
22.050        93
22.060        87
22.070       140
22.080       173
22.090       113
22.100       147
22.110       173
22.120       133
22.130       140
22.140       167
22.150       133
22.160       160
22.170       127
22.180       127
22.190       127
22.200       127
22.210       113
22.220       147
22.230       140
22.240        93
22.250       173
22.260       160
22.270       160
22.280       133
22.290       140
22.300       173
22.310       147
22.320       140
22.330       127
22.340       167
22.350       200
22.360       187
22.370       127
22.380       187
22.390       193
22.400       180
22.410       200
22.420       167
22.430       200
22.440       213
22.450       180
22.460       113
22.470       200
22.480       180
22.490       160
22.500       167
22.510       113
22.520       207
22.530       173
22.540       180
22.550       207
22.560       187
22.570       187
22.580       193
22.590       180
22.600       133
22.610       167
22.620       207
22.630       187
22.640       160
22.650       147
22.660       180
22.670       193
22.680       180
22.690       200
22.700       180
22.710       173
22.720       167
22.730       167
22.740       187
22.750       233
22.760       240
22.770       247
22.780       153
22.790       187
22.800       227
22.810       180
22.820       193
22.830       160
22.840       220
22.850       260
22.860       207
22.870       200
22.880       240
22.890       273
22.900       193
22.910       267
22.920       260
22.930       260
22.940       327
22.950       273
22.960       213
22.970       240
22.980       313
22.990       213
23.000       213
23.010       347
23.020       233
23.030       287
23.040       327
23.050       440
23.060       640
23.070       820
23.080      1379
23.090      1859
23.100      1813
23.110      1886
23.120      2186
23.130      1953
23.140      1499
23.150      1080
23.160       906
23.170       573
23.180       367
23.190       393
23.200       426
23.210       340
23.220       273
23.230       287
23.240       313
23.250       340
23.260       287
23.270       293
23.280       173
23.290       233
23.300       300
23.310       213
23.320       260
23.330       233
23.340       207
23.350       267
23.360       193
23.370       180
23.380       227
23.390       233
23.400       173
23.410       167
23.420       193
23.430       273
23.440       220
23.450       187
23.460       227
23.470       193
23.480       273
23.490       160
23.500       233
23.510       233
23.520       200
23.530       220
23.540       287
23.550       167
23.560       180
23.570       207
23.580       253
23.590       207
23.600       227
23.610       240
23.620       233
23.630       227
23.640       280
23.650       247
23.660       227
23.670       260
23.680       213
23.690       167
23.700       207
23.710       160
23.720       187
23.730       273
23.740       193
23.750       193
23.760       227
23.770       213
23.780       220
23.790       227
23.800       227
23.810       293
23.820       273
23.830       180
23.840       333
23.850       227
23.860       220
23.870       220
23.880       213
23.890       220
23.900       180
23.910       213
23.920       193
23.930       287
23.940       253
23.950       247
23.960       187
23.970       193
23.980       280
23.990       173
24.000       273
24.010       167
24.020       207
24.030       200
24.040       160
24.050       240
24.060       167
24.070       173
24.080       213
24.090       173
24.100       180
24.110       213
24.120       247
24.130       247
24.140       240
24.150       247
24.160       193
24.170       227
24.180       233
24.190       253
24.200       240
24.210       220
24.220       227
24.230       253
24.240       220
24.250       293
24.260       200
24.270       200
24.280       160
24.290       273
24.300       200
24.310       193
24.320       220
24.330       193
24.340       233
24.350       253
24.360       227
24.370       213
24.380       187
24.390       233
24.400       167
24.410       193
24.420       280
24.430       207
24.440       153
24.450       153
24.460       173
24.470       260
24.480       200
24.490       193
24.500       247
24.510       267
24.520       213
24.530       207
24.540       260
24.550       193
24.560       273
24.570       213
24.580       347
24.590       253
24.600       227
24.610       193
24.620       220
24.630       273
24.640       180
24.650       253
24.660       253
24.670       227
24.680       253
24.690       240
24.700       400
24.710       433
24.720       407
24.730       640
24.740       700
24.750       813
24.760       773
24.770       906
24.780       900
24.790       853
24.800       933
24.810       920
24.820       893
24.830       893
24.840       973
24.850       886
24.860       760
24.870       920
24.880       993
24.890       866
24.900      1086
24.910       860
24.920       920
24.930      1060
24.940       866
24.950       966
24.960       940
24.970       906
24.980      1100
24.990      1000
25.000       973
25.010       873
25.020      1046
25.030      1080
25.040       993
25.050       986
25.060       946
25.070      1026
25.080      1000
25.090       900
25.100      1006
25.110      1033
25.120       980
25.130       913
25.140      1040
25.150       993
25.160       913
25.170      1013
25.180       966
25.190      1106
25.200      1146
25.210      1066
25.220      1100
25.230      1213
25.240      1060
25.250      1113
25.260      1080
25.270      1073
25.280      1006
25.290      1266
25.300      1306
25.310      1353
25.320      1180
25.330      1180
25.340      1386
25.350      1579
25.360      1226
25.370      1626
25.380      1579
25.390      1593
25.400      1779
25.410      2092
25.420      2206
25.430      2519
25.440      3479
25.450      3565
25.460      4871
25.470      6058
25.480      7337
25.490      8077
25.500      9110
25.510     10283
25.520     11855
25.530     12762
25.540     16433
25.550     23930
25.560     44009
25.570     81407
25.580    129035
25.590    164188
25.600    182847
25.610    188298
25.620    188844
25.630    190490
25.640    187232
25.650    172931
25.660    152379
25.670    133886
25.680    122698
25.690    113828
25.700    104985
25.710     88904
25.720     63281
25.730     39957
25.740     27109
25.750     19379
25.760     16753
25.770     14574
25.780     12115
25.790     10922
25.800      9370
25.810      8090
25.820      6757
25.830      5891
25.840      5018
25.850      4312
25.860      3372
25.870      2746
25.880      2266
25.890      2053
25.900      1913
25.910      1766
25.920      1639
25.930      1546
25.940      1519
25.950      1306
25.960      1513
25.970      1453
25.980      1366
25.990      1286
26.000      1279
26.010      1200
26.020      1226
26.030      1180
26.040      1160
26.050      1193
26.060      1033
26.070       946
26.080      1000
26.090      1186
26.100      1093
26.110       953
26.120      1093
26.130       933
26.140      1093
26.150       993
26.160       880
26.170       900
26.180       833
26.190      1100
26.200       953
26.210      1000
26.220       940
26.230       853
26.240       833
26.250       993
26.260       853
26.270       660
26.280      1053
26.290       900
26.300       946
26.310      1006
26.320       880
26.330       820
26.340       840
26.350       706
26.360       866
26.370       866
26.380       700
26.390       900
26.400       826
26.410       853
26.420       793
26.430       806
26.440       680
26.450       766
26.460       760
26.470       760
26.480       693
26.490       673
26.500       693
26.510       886
26.520       626
26.530       853
26.540       773
26.550       673
26.560       733
26.570       866
26.580       666
26.590       700
26.600       780
26.610       793
26.620       733
26.630       700
26.640       753
26.650       686
26.660       633
26.670       740
26.680       780
26.690       706
26.700       746
26.710       693
26.720       693
26.730       746
26.740       686
26.750       686
26.760       706
26.770       753
26.780       813
26.790       633
26.800       713
26.810       766
26.820       800
26.830       726
26.840       793
26.850       780
26.860       640
26.870       520
26.880       693
26.890       706
26.900       620
26.910       580
26.920       680
26.930       633
26.940       780
26.950       560
26.960       680
26.970       546
26.980       586
26.990       613
27.000       660
27.010       673
27.020       600
27.030       693
27.040       560
27.050       573
27.060       720
27.070       653
27.080       613
27.090       646
27.100       566
27.110       660
27.120       753
27.130       633
27.140       793
27.150       600
27.160       653
27.170       573
27.180       613
27.190       700
27.200       566
27.210       566
27.220       600
27.230       473
27.240       573
27.250       593
27.260       600
27.270       693
27.280       620
27.290       680
27.300       586
27.310       706
27.320       573
27.330       593
27.340       586
27.350       553
27.360       486
27.370       546
27.380       740
27.390       560
27.400       566
27.410       600
27.420       713
27.430       553
27.440       553
27.450       580
27.460       713
27.470       640
27.480       573
27.490       646
27.500       646
27.510       493
27.520       613
27.530       586
27.540       520
27.550       586
27.560       560
27.570       473
27.580       613
27.590       600
27.600       480
27.610       486
27.620       480
27.630       473
27.640       606
27.650       633
27.660       680
27.670       540
27.680       573
27.690       546
27.700       493
27.710       593
27.720       613
27.730       600
27.740       653
27.750       620
27.760       560
27.770       626
27.780       573
27.790       540
27.800       586
27.810       553
27.820       646
27.830       560
27.840       526
27.850       580
27.860       520
27.870       593
27.880       546
27.890       653
27.900       593
27.910       620
27.920       620
27.930       646
27.940       680
27.950       746
27.960       566
27.970       646
27.980       500
27.990       513
28.000       540
28.010       500
28.020       520
28.030       580
28.040       500
28.050       533
28.060       573
28.070       466
28.080       560
28.090       520
28.100       600
28.110       620
28.120       540
28.130       553
28.140       466
28.150       480
28.160       606
28.170       426
28.180       433
28.190       373
28.200       593
28.210       620
28.220       440
28.230       600
28.240       513
28.250       500
28.260       573
28.270       500
28.280       520
28.290       446
28.300       400
28.310       433
28.320       493
28.330       420
28.340       526
28.350       413
28.360       500
28.370       347
28.380       446
28.390       420
28.400       493
28.410       513
28.420       566
28.430       473
28.440       513
28.450       413
28.460       413
28.470       466
28.480       573
28.490       540
28.500       546
28.510       493
28.520       533
28.530       453
28.540       500
28.550       520
28.560       446
28.570       466
28.580       480
28.590       493
28.600       553
28.610       553
28.620       560
28.630       533
28.640       486
28.650       533
28.660       500
28.670       513
28.680       446
28.690       446
28.700       500
28.710       500
28.720       393
28.730       486
28.740       533
28.750       433
28.760       440
28.770       360
28.780       520
28.790       546
28.800       506
28.810       513
28.820       466
28.830       493
28.840       486
28.850       580
28.860       453
28.870       453
28.880       580
28.890       486
28.900       500
28.910       560
28.920       560
28.930       580
28.940       500
28.950       600
28.960       593
28.970       500
28.980       526
28.990       546
29.000       633
29.010       533
29.020       613
29.030       600
29.040       646
29.050       500
29.060       493
29.070       486
29.080       666
29.090       546
29.100       600
29.110       706
29.120       493
29.130       586
29.140       573
29.150       626
29.160       633
29.170       566
29.180       520
29.190       573
29.200       506
29.210       533
29.220       506
29.230       466
29.240       413
29.250       580
29.260       413
29.270       546
29.280       466
29.290       440
29.300       420
29.310       513
29.320       593
29.330       493
29.340       480
29.350       486
29.360       480
29.370       526
29.380       400
29.390       486
29.400       367
29.410       440
29.420       520
29.430       480
29.440       486
29.450       460
29.460       433
29.470       466
29.480       500
29.490       440
29.500       526
29.510       413
29.520       506
29.530       400
29.540       420
29.550       540
29.560       420
29.570       486
29.580       546
29.590       466
29.600       460
29.610       526
29.620       560
29.630       520
29.640       440
29.650       407
29.660       433
29.670       426
29.680       466
29.690       446
29.700       553
29.710       373
29.720       407
29.730       533
29.740       460
29.750       486
29.760       393
29.770       420
29.780       460
29.790       413
29.800       380
29.810       407
29.820       340
29.830       446
29.840       340
29.850       473
29.860       380
29.870       347
29.880       387
29.890       480
29.900       440
29.910       387
29.920       347
29.930       420
29.940       313
29.950       400
29.960       420
29.970       453
29.980       413
29.990       313
30.000       446
30.010       506
30.020       373
30.030       340
30.040       466
30.050       393
30.060       407
30.070       327
30.080       380
30.090       320
30.100       480
30.110       420
30.120       466
30.130       400
30.140       373
30.150       407
30.160       393
30.170       293
30.180       453
30.190       320
30.200       273
30.210       466
30.220       320
30.230       373
30.240       393
30.250       393
30.260       333
30.270       466
30.280       347
30.290       440
30.300       367
30.310       327
30.320       400
30.330       293
30.340       353
30.350       360
30.360       460
30.370       373
30.380       413
30.390       353
30.400       360
30.410       287
30.420       387
30.430       393
30.440       387
30.450       373
30.460       367
30.470       440
30.480       466
30.490       367
30.500       287
30.510       320
30.520       420
30.530       327
30.540       300
30.550       347
30.560       380
30.570       433
30.580       466
30.590       506
30.600       426
30.610       347
30.620       407
30.630       387
30.640       313
30.650       327
30.660       300
30.670       426
30.680       420
30.690       353
30.700       387
30.710       327
30.720       453
30.730       273
30.740       333
30.750       307
30.760       293
30.770       333
30.780       360
30.790       347
30.800       353
30.810       420
30.820       360
30.830       393
30.840       300
30.850       373
30.860       260
30.870       340
30.880       307
30.890       307
30.900       253
30.910       360
30.920       313
30.930       360
30.940       300
30.950       373
30.960       320
30.970       333
30.980       373
30.990       347
31.000       373
31.010       320
31.020       340
31.030       360
31.040       380
31.050       273
31.060       327
31.070       367
31.080       300
31.090       267
31.100       333
31.110       333
31.120       347
31.130       300
31.140       380
31.150       320
31.160       280
31.170       280
31.180       340
31.190       407
31.200       313
31.210       260
31.220       267
31.230       340
31.240       247
31.250       313
31.260       320
31.270       420
31.280       367
31.290       260
31.300       333
31.310       347
31.320       380
31.330       333
31.340       327
31.350       307
31.360       327
31.370       300
31.380       293
31.390       327
31.400       280
31.410       273
31.420       387
31.430       267
31.440       300
31.450       287
31.460       280
31.470       320
31.480       253
31.490       193
31.500       367
31.510       300
31.520       260
31.530       333
31.540       287
31.550       307
31.560       280
31.570       227
31.580       207
31.590       273
31.600       327
31.610       393
31.620       300
31.630       287
31.640       320
31.650       287
31.660       333
31.670       360
31.680       253
31.690       240
31.700       327
31.710       300
31.720       293
31.730       340
31.740       333
31.750       313
31.760       200
31.770       300
31.780       220
31.790       313
31.800       280
31.810       367
31.820       247
31.830       253
31.840       240
31.850       313
31.860       240
31.870       233
31.880       227
31.890       287
31.900       227
31.910       233
31.920       253
31.930       327
31.940       300
31.950       220
31.960       233
31.970       293
31.980       240
31.990       307
32.000       267
32.010       280
32.020       313
32.030       267
32.040       300
32.050       287
32.060       247
32.070       313
32.080       260
32.090       293
32.100       267
32.110       313
32.120       347
32.130       267
32.140       240
32.150       313
32.160       267
32.170       280
32.180       373
32.190       300
32.200       360
32.210       320
32.220       380
32.230       327
32.240       327
32.250       247
32.260       433
32.270       353
32.280       353
32.290       367
32.300       267
32.310       320
32.320       373
32.330       220
32.340       367
32.350       327
32.360       247
32.370       313
32.380       253
32.390       260
32.400       293
32.410       220
32.420       267
32.430       233
32.440       240
32.450       200
32.460       253
32.470       227
32.480       280
32.490       280
32.500       247
32.510       207
32.520       253
32.530       207
32.540       240
32.550       220
32.560       233
32.570       193
32.580       260
32.590       280
32.600       240
32.610       260
32.620       280
32.630       233
32.640       247
32.650       240
32.660       233
32.670       227
32.680       187
32.690       260
32.700       307
32.710       273
32.720       233
32.730       233
32.740       207
32.750       213
32.760       207
32.770       200
32.780       300
32.790       220
32.800       260
32.810       140
32.820       160
32.830       240
32.840       347
32.850       220
32.860       247
32.870       233
32.880       267
32.890       213
32.900       260
32.910       187
32.920       233
32.930       167
32.940       220
32.950       240
32.960       213
32.970       180
32.980       247
32.990       200
33.000       220
33.010       267
33.020       207
33.030       220
33.040       213
33.050       233
33.060       273
33.070       220
33.080       187
33.090       193
33.100       213
33.110       193
33.120       260
33.130       213
33.140       213
33.150       240
33.160       253
33.170       213
33.180       167
33.190       227
33.200       233
33.210       220
33.220       193
33.230       253
33.240       187
33.250       227
33.260       207
33.270       240
33.280       193
33.290       173
33.300       200
33.310       253
33.320       247
33.330       207
33.340       120
33.350       220
33.360       187
33.370       247
33.380       227
33.390       227
33.400       133
33.410       200
33.420       287
33.430       140
33.440       173
33.450       153
33.460       160
33.470       253
33.480       207
33.490       180
33.500       220
33.510       213
33.520       167
33.530       120
33.540       187
33.550       193
33.560       213
33.570       247
33.580       213
33.590       167
33.600       193
33.610       240
33.620       227
33.630       267
33.640       220
33.650       160
33.660       173
33.670       173
33.680       180
33.690       160
33.700       173
33.710       233
33.720       213
33.730       153
33.740       187
33.750       240
33.760       193
33.770       180
33.780       213
33.790       200
33.800       187
33.810       193
33.820       133
33.830       247
33.840       233
33.850       160
33.860       193
33.870       133
33.880       213
33.890       247
33.900       133
33.910       173
33.920       240
33.930       220
33.940       147
33.950       213
33.960       187
33.970       160
33.980       187
33.990       153
34.000       173
34.010       173
34.020       113
34.030       233
34.040       147
34.050       113
34.060       167
34.070       173
34.080       187
34.090       153
34.100       227
34.110       133
34.120       120
34.130       180
34.140       173
34.150       213
34.160       247
34.170       153
34.180       193
34.190       167
34.200       120
34.210       167
34.220       167
34.230       113
34.240       147
34.250       213
34.260       133
34.270       173
34.280       173
34.290       107
34.300       207
34.310       107
34.320       153
34.330       120
34.340       227
34.350       153
34.360       140
34.370       180
34.380       180
34.390       173
34.400       153
34.410       173
34.420       187
34.430       187
34.440       160
34.450       167
34.460       173
34.470       220
34.480       187
34.490       173
34.500       207
34.510       153
34.520       167
34.530       187
34.540       127
34.550       167
34.560       200
34.570       247
34.580       140
34.590       180
34.600       153
34.610       267
34.620       147
34.630       167
34.640       180
34.650       160
34.660       227
34.670       247
34.680       227
34.690       153
34.700       200
34.710       147
34.720       147
34.730       147
34.740       180
34.750       173
34.760       140
34.770       127
34.780       213
34.790       147
34.800       180
34.810       140
34.820       187
34.830       173
34.840       167
34.850       153
34.860       153
34.870       127
34.880       200
34.890       133
34.900       187
34.910       147
34.920       233
34.930       160
34.940       120
34.950       240
34.960       207
34.970       113
34.980       120
34.990       180
35.000       113
35.010       153
35.020       107
35.030       187
35.040       113
35.050       187
35.060       140
35.070       107
35.080       167
35.090       173
35.100       153
35.110       120
35.120       127
35.130       153
35.140       173
35.150       180
35.160       173
35.170       173
35.180       220
35.190       140
35.200       193
35.210       153
35.220       140
35.230       133
35.240       107
35.250       140
35.260       147
35.270       207
35.280       127
35.290       133
35.300       140
35.310       160
35.320       147
35.330       113
35.340       200
35.350       160
35.360       173
35.370       173
35.380        93
35.390       153
35.400       207
35.410       140
35.420       113
35.430       120
35.440       127
35.450       133
35.460       140
35.470       147
35.480       133
35.490       167
35.500       140
35.510       153
35.520       167
35.530       133
35.540       147
35.550       153
35.560       187
35.570       160
35.580       133
35.590       160
35.600       147
35.610       133
35.620       133
35.630       133
35.640       140
35.650       167
35.660       133
35.670       160
35.680        93
35.690       120
35.700       100
35.710       193
35.720       113
35.730        73
35.740       200
35.750        87
35.760        93
35.770       113
35.780       133
35.790       153
35.800       147
35.810       127
35.820       133
35.830       120
35.840       173
35.850       140
35.860       133
35.870       180
35.880       147
35.890       140
35.900       127
35.910        60
35.920       113
35.930        93
35.940       140
35.950       167
35.960       107
35.970       120
35.980       147
35.990       113
36.000       140
36.010        80
36.020       100
36.030       133
36.040       120
36.050       173
36.060       113
36.070       100
36.080       140
36.090       133
36.100       100
36.110       147
36.120       113
36.130       147
36.140       153
36.150       127
36.160       133
36.170       153
36.180       127
36.190        93
36.200       120
36.210       173
36.220       133
36.230       133
36.240        80
36.250        93
36.260       133
36.270       127
36.280       113
36.290        93
36.300       133
36.310        93
36.320       120
36.330       113
36.340       127
36.350       133
36.360       133
36.370       133
36.380       140
36.390       120
36.400       133
36.410       107
36.420        87
36.430       113
36.440       100
36.450       153
36.460       127
36.470       160
36.480       107
36.490        93
36.500       127
36.510       107
36.520        67
36.530       167
36.540       100
36.550       120
36.560       153
36.570       107
36.580       147
36.590       120
36.600       147
36.610       140
36.620        87
36.630        87
36.640       107
36.650        87
36.660       100
36.670       120
36.680       107
36.690       133
36.700        93
36.710        73
36.720       133
36.730        87
36.740       113
36.750        60
36.760       193
36.770        87
36.780       120
36.790       107
36.800       100
36.810       113
36.820       160
36.830        93
36.840       160
36.850       133
36.860       107
36.870       113
36.880       107
36.890        80
36.900        80
36.910       127
36.920       113
36.930       120
36.940       127
36.950        80
36.960       127
36.970       107
36.980       120
36.990        67
37.000       107
37.010        87
37.020       140
37.030       107
37.040       147
37.050        93
37.060        87
37.070       120
37.080       127
37.090       120
37.100       133
37.110        93
37.120       113
37.130        73
37.140       107
37.150       147
37.160       107
37.170       107
37.180       107
37.190       107
37.200        73
37.210        80
37.220       100
37.230        53
37.240       113
37.250       127
37.260       107
37.270       107
37.280        80
37.290       120
37.300        67
37.310       107
37.320       113
37.330       120
37.340       140
37.350        87
37.360        73
37.370        33
37.380       100
37.390       120
37.400        93
37.410        87
37.420       167
37.430       100
37.440        73
37.450       133
37.460        87
37.470        87
37.480        93
37.490       107
37.500       147
37.510       127
37.520       107
37.530       147
37.540       167
37.550       160
37.560        73
37.570        60
37.580        40
37.590        53
37.600       107
37.610        73
37.620       173
37.630        87
37.640        73
37.650        53
37.660       120
37.670       107
37.680       107
37.690       107
37.700        87
37.710       107
37.720        93
37.730       100
37.740        87
37.750       100
37.760        87
37.770       113
37.780        80
37.790        73
37.800        60
37.810        53
37.820        73
37.830        80
37.840        73
37.850        80
37.860        80
37.870        93
37.880       107
37.890       120
37.900        93
37.910       127
37.920        87
37.930        60
37.940        87
37.950        87
37.960        53
37.970        80
37.980       140
37.990        73
38.000       107
38.010        87
38.020        67
38.030        73
38.040       120
38.050       120
38.060        53
38.070        67
38.080       120
38.090        67
38.100       100
38.110        87
38.120        53
38.130        87
38.140       107
38.150        47
38.160        60
38.170        80
38.180       193
38.190       127
38.200        80
38.210       113
38.220        60
38.230        53
38.240        93
38.250        93
38.260       100
38.270        80
38.280        67
38.290        87
38.300       107
38.310        87
38.320        87
38.330       113
38.340       107
38.350        73
38.360        80
38.370        87
38.380       127
38.390       107
38.400       107
38.410       107
38.420        80
38.430       147
38.440       153
38.450        80
38.460        73
38.470        80
38.480        60
38.490        73
38.500        93
38.510        67
38.520        87
38.530        67
38.540        73
38.550        67
38.560       140
38.570        40
38.580        73
38.590        67
38.600        73
38.610        40
38.620       120
38.630       100
38.640       107
38.650       127
38.660        73
38.670        93
38.680        47
38.690        27
38.700        87
38.710       100
38.720        53
38.730        67
38.740       100
38.750        87
38.760        87
38.770        73
38.780        13
38.790        73
38.800        80
38.810        73
38.820        73
38.830        80
38.840        87
38.850        67
38.860       107
38.870        73
38.880       133
38.890        73
38.900        93
38.910        80
38.920        73
38.930       127
38.940        80
38.950       140
38.960        53
38.970       127
38.980       113
38.990        80
39.000        87
39.010       113
39.020        47
39.030       100
39.040       107
39.050        73
39.060        80
39.070        87
39.080        87
39.090        67
39.100        33
39.110        73
39.120        53
39.130        87
39.140        73
39.150        73
39.160        40
39.170        73
39.180        80
39.190        53
39.200        67
39.210       107
39.220        73
39.230        73
39.240        53
39.250        80
39.260        67
39.270        67
39.280       100
39.290        33
39.300        33
39.310        53
39.320        53
39.330        80
39.340        73
39.350        60
39.360        80
39.370        60
39.380        67
39.390        87
39.400        40
39.410        67
39.420       107
39.430        73
39.440       153
39.450        53
39.460        67
39.470        87
39.480        47
39.490        60
39.500        47
39.510        67
39.520        73
39.530        73
39.540        87
39.550        93
39.560        40
39.570       100
39.580        67
39.590        53
39.600        93
39.610        40
39.620        47
39.630        67
39.640        40
39.650        53
39.660        53
39.670        80
39.680        67
39.690        67
39.700       127
39.710        47
39.720        60
39.730        73
39.740        67
39.750        27
39.760        40
39.770        40
39.780        80
39.790        73
39.800       107
39.810        80
39.820        60
39.830        47
39.840        60
39.850        67
39.860        73
39.870        53
39.880        47
39.890       107
39.900        40
39.910        87
39.920        87
39.930        67
39.940        67
39.950        53
39.960        60
39.970        47
39.980        67
39.990        87
40.000        33
40.010        93
40.020        80
40.030        73
40.040       100
40.050        60
40.060       120
40.070       107
40.080        60
40.090        80
40.100        80
40.110        93
40.120        87
40.130        53
40.140        67
40.150        53
40.160       100
40.170        60
40.180        80
40.190        67
40.200        80
40.210       107
40.220        60
40.230       100
40.240       127
40.250        93
40.260        73
40.270       107
40.280        93
40.290        93
40.300        67
40.310       100
40.320        93
40.330        93
40.340       100
40.350        80
40.360        60
40.370        53
40.380        80
40.390        87
40.400        73
40.410        47
40.420        80
40.430        53
40.440        47
40.450        80
40.460        53
40.470        47
40.480        73
40.490        80
40.500        60
40.510        27
40.520        60
40.530        93
40.540        80
40.550        60
40.560        67
40.570        53
40.580        33
40.590        73
40.600        60
40.610        40
40.620       113
40.630        60
40.640        53
40.650        67
40.660        80
40.670        47
40.680       107
40.690        93
40.700        87
40.710        40
40.720        73
40.730        27
40.740        73
40.750        53
40.760        20
40.770        53
40.780        53
40.790        53
40.800        33
40.810        33
40.820        27
40.830        60
40.840        80
40.850        53
40.860        87
40.870       100
40.880        60
40.890        40
40.900        33
40.910        80
40.920        47
40.930        53
40.940        53
40.950        47
40.960        47
40.970        67
40.980        60
40.990        40
41.000        60
41.010        40
41.020        40
41.030        67
41.040        40
41.050        33
41.060        60
41.070        40
41.080        73
41.090        27
41.100        40
41.110        80
41.120        73
41.130        67
41.140        40
41.150        47
41.160        87
41.170        60
41.180        53
41.190        73
41.200        47
41.210        33
41.220        33
41.230        53
41.240        60
41.250        60
41.260        40
41.270        20
41.280        53
41.290        73
41.300        47
41.310        93
41.320        33
41.330        80
41.340        47
41.350        33
41.360        73
41.370        40
41.380        60
41.390        73
41.400        20
41.410        40
41.420        40
41.430        93
41.440        33
41.450        33
41.460        53
41.470        33
41.480        67
41.490        47
41.500        47
41.510        60
41.520        73
41.530        47
41.540        20
41.550        47
41.560        53
41.570        33
41.580        27
41.590        40
41.600        47
41.610        67
41.620        73
41.630        60
41.640        40
41.650        60
41.660        73
41.670        40
41.680        73
41.690        53
41.700        47
41.710        40
41.720        67
41.730        67
41.740       100
41.750        47
41.760        40
41.770        67
41.780        53
41.790        47
41.800        73
41.810        47
41.820        60
41.830        53
41.840        33
41.850        67
41.860        60
41.870        40
41.880        87
41.890        27
41.900        27
41.910        40
41.920        40
41.930        27
41.940        53
41.950        53
41.960        20
41.970        27
41.980        47
41.990        87
42.000        47
42.010        53
42.020        87
42.030        87
42.040        27
42.050        53
42.060        40
42.070        47
42.080        60
42.090        60
42.100        40
42.110        33
42.120        47
42.130        73
42.140        40
42.150        47
42.160        60
42.170        27
42.180        60
42.190        93
42.200        67
42.210        33
42.220        47
42.230        53
42.240        53
42.250        67
42.260        40
42.270        67
42.280        53
42.290        67
42.300        73
42.310        60
42.320        53
42.330        60
42.340        87
42.350        20
42.360        53
42.370        53
42.380        47
42.390        53
42.400        13
42.410        60
42.420        53
42.430        87
42.440        53
42.450        47
42.460        33
42.470        13
42.480        67
42.490        27
42.500        47
42.510        73
42.520        53
42.530        33
42.540        40
42.550        33
42.560        60
42.570        47
42.580        40
42.590        47
42.600        53
42.610        40
42.620        47
42.630        73
42.640        47
42.650        53
42.660        47
42.670        67
42.680        73
42.690        53
42.700        40
42.710        33
42.720        60
42.730        40
42.740        53
42.750        53
42.760        33
42.770        27
42.780        53
42.790        47
42.800        73
42.810        40
42.820        33
42.830        40
42.840        60
42.850        20
42.860        67
42.870        33
42.880        33
42.890        40
42.900        47
42.910        53
42.920        67
42.930        27
42.940        93
42.950        33
42.960        40
42.970        27
42.980        60
42.990        33
43.000        60
43.010        47
43.020        47
43.030        47
43.040        20
43.050        40
43.060        27
43.070        40
43.080        73
43.090        60
43.100        20
43.110        47
43.120        40
43.130        13
43.140        20
43.150        27
43.160        33
43.170        40
43.180        67
43.190        20
43.200        20
43.210        40
43.220        27
43.230        33
43.240        87
43.250        27
43.260        47
43.270        47
43.280        47
43.290        47
43.300        53
43.310        53
43.320        33
43.330        67
43.340        33
43.350         7
43.360        27
43.370        73
43.380        47
43.390        20
43.400        20
43.410        27
43.420        33
43.430        47
43.440        33
43.450        47
43.460        40
43.470        53
43.480        67
43.490        40
43.500        27
43.510        40
43.520        40
43.530        67
43.540        33
43.550        40
43.560        40
43.570        60
43.580        47
43.590        53
43.600        47
43.610        27
43.620        27
43.630        53
43.640        27
43.650        40
43.660        53
43.670        87
43.680        20
43.690        60
43.700        20
43.710        53
43.720        13
43.730        47
43.740        53
43.750        13
43.760        27
43.770        47
43.780        33
43.790        53
43.800        27
43.810        67
43.820        40
43.830        47
43.840        27
43.850        73
43.860        20
43.870        60
43.880        47
43.890        53
43.900        20
43.910        47
43.920        33
43.930        27
43.940        33
43.950        13
43.960         7
43.970        40
43.980        27
43.990        53
44.000        53
44.010        53
44.020        40
44.030        47
44.040        27
44.050        33
44.060        40
44.070        47
44.080        13
44.090        33
44.100        33
44.110        33
44.120        53
44.130        40
44.140        33
44.150        27
44.160        33
44.170        20
44.180        53
44.190        20
44.200        47
44.210        13
44.220        53
44.230        27
44.240        53
44.250        53
44.260        27
44.270        33
44.280        40
44.290        27
44.300        27
44.310        47
44.320        33
44.330        27
44.340        20
44.350        20
44.360        20
44.370        33
44.380        33
44.390        40
44.400        67
44.410        47
44.420        27
44.430        40
44.440        47
44.450        73
44.460        20
44.470        20
44.480        33
44.490        53
44.500        27
44.510        13
44.520        60
44.530        80
44.540        33
44.550        27
44.560        53
44.570        53
44.580        40
44.590        27
44.600        47
44.610        33
44.620        20
44.630        20
44.640        40
44.650        27
44.660        27
44.670        20
44.680        47
44.690        33
44.700        53
44.710        40
44.720        53
44.730        53
44.740        47
44.750        27
44.760        33
44.770        40
44.780        67
44.790        53
44.800        40
44.810        60
44.820        20
44.830        40
44.840        27
44.850        40
44.860        20
44.870        33
44.880        53
44.890        33
44.900        73
44.910        80
44.920        60
44.930        40
44.940        27
44.950        33
44.960        33
44.970        47
44.980        20
44.990        33
45.000        27
45.010        80
45.020        47
45.030        47
45.040        73
45.050        33
45.060        40
45.070        20
45.080        20
45.090        33
45.100        40
45.110        33
45.120        33
45.130        53
45.140        87
45.150        33
45.160        47
45.170        33
45.180        33
45.190        33
45.200        27
45.210        33
45.220        40
45.230        33
45.240        13
45.250        53
45.260        33
45.270        53
45.280        33
45.290        33
45.300        53
45.310        33
45.320         7
45.330        27
45.340        40
45.350        67
45.360        60
45.370        40
45.380        47
45.390        47
45.400        13
45.410        53
45.420        33
45.430        47
45.440        27
45.450        13
45.460        33
45.470        47
45.480        40
45.490        60
45.500        33
45.510        13
45.520        33
45.530        33
45.540        20
45.550        33
45.560        33
45.570        47
45.580        33
45.590        47
45.600        33
45.610        47
45.620        27
45.630        40
45.640        33
45.650         7
45.660        33
45.670        20
45.680        27
45.690        53
45.700        27
45.710        27
45.720        33
45.730        40
45.740        60
45.750        47
45.760        27
45.770        47
45.780        47
45.790        73
45.800        27
45.810        60
45.820        53
45.830        53
45.840        33
45.850        13
45.860        33
45.870        53
45.880        33
45.890        13
45.900        53
45.910        47
45.920        27
45.930        40
45.940        73
45.950        73
45.960        40
45.970        33
45.980       100
45.990        47
46.000        47
46.010        20
46.020        60
46.030        47
46.040        47
46.050        13
46.060        47
46.070        60
46.080        33
46.090        33
46.100        40
46.110        47
46.120        60
46.130        60
46.140        60
46.150        33
46.160       100
46.170        40
46.180        33
46.190        47
46.200        27
46.210        40
46.220        53
46.230        47
46.240        40
46.250        60
46.260        33
46.270        47
46.280        40
46.290        33
46.300        53
46.310        47
46.320        40
46.330        20
46.340        47
46.350        33
46.360        47
46.370        60
46.380        47
46.390        27
46.400        60
46.410        33
46.420        47
46.430        60
46.440        20
46.450        13
46.460        13
46.470        47
46.480        47
46.490        47
46.500        33
46.510        53
46.520        87
46.530        13
46.540        60
46.550        53
46.560        20
46.570        67
46.580        27
46.590        47
46.600        47
46.610        47
46.620        53
46.630        60
46.640        33
46.650        67
46.660        73
46.670        47
46.680        53
46.690        80
46.700       100
46.710        93
46.720        33
46.730        87
46.740       100
46.750        60
46.760       100
46.770        93
46.780       100
46.790       113
46.800        87
46.810       173
46.820       160
46.830       100
46.840       133
46.850       140
46.860       120
46.870        67
46.880        67
46.890       100
46.900       100
46.910       107
46.920       100
46.930       113
46.940        73
46.950       113
46.960        87
46.970       100
46.980       113
46.990        40
47.000        67
47.010       153
47.020       100
47.030       180
47.040       160
47.050       133
47.060       120
47.070       133
47.080       227
47.090       227
47.100       227
47.110       240
47.120       287
47.130       466
47.140       480
47.150       953
47.160      1166
47.170      1419
47.180      1766
47.190      2139
47.200      2206
47.210      2332
47.220      2239
47.230      1999
47.240      1673
47.250      1166
47.260       986
47.270       566
47.280       493
47.290       380
47.300       373
47.310       307
47.320       267
47.330       260
47.340       227
47.350       260
47.360       207
47.370       187
47.380       140
47.390       140
47.400       233
47.410       153
47.420       120
47.430       120
47.440       100
47.450       100
47.460        73
47.470        67
47.480        67
47.490       127
47.500        93
47.510        67
47.520        73
47.530       113
47.540        80
47.550        40
47.560        80
47.570       127
47.580       133
47.590        87
47.600        67
47.610        87
47.620        27
47.630       100
47.640        53
47.650       107
47.660        87
47.670        73
47.680        73
47.690        53
47.700        87
47.710        60
47.720        60
47.730        60
47.740        87
47.750        60
47.760        67
47.770        53
47.780        73
47.790        47
47.800        67
47.810        67
47.820        47
47.830        73
47.840        53
47.850        60
47.860        20
47.870        40
47.880        87
47.890        27
47.900        27
47.910        27
47.920        40
47.930        60
47.940        53
47.950        80
47.960        67
47.970        27
47.980        53
47.990        67
48.000        47
48.010        80
48.020        33
48.030        47
48.040        47
48.050        60
48.060        47
48.070        47
48.080        53
48.090        60
48.100        80
48.110        67
48.120        60
48.130        47
48.140        60
48.150        53
48.160        73
48.170        40
48.180        60
48.190        40
48.200        87
48.210        47
48.220        73
48.230        27
48.240        67
48.250        40
48.260        53
48.270        60
48.280        40
48.290        27
48.300        93
48.310        33
48.320        27
48.330        73
48.340        73
48.350        40
48.360        53
48.370        53
48.380        40
48.390        33
48.400        33
48.410        67
48.420        47
48.430        40
48.440        80
48.450        47
48.460        60
48.470        53
48.480        33
48.490        47
48.500        33
48.510        87
48.520        40
48.530        47
48.540        40
48.550        40
48.560        40
48.570        93
48.580        27
48.590        33
48.600        33
48.610        33
48.620        73
48.630        40
48.640        47
48.650        87
48.660        20
48.670        53
48.680        27
48.690        27
48.700        53
48.710        47
48.720        33
48.730        53
48.740        27
48.750         7
48.760        27
48.770        40
48.780        47
48.790        47
48.800        53
48.810        47
48.820        47
48.830        47
48.840        47
48.850        47
48.860        47
48.870        53
48.880        33
48.890        40
48.900        67
48.910        67
48.920        53
48.930        53
48.940        20
48.950        60
48.960        33
48.970        53
48.980        27
48.990        53
49.000        60
49.010        27
49.020        60
49.030        33
49.040        67
49.050        93
49.060        60
49.070        33
49.080        40
49.090        47
49.100        40
49.110        53
49.120        80
49.130        33
49.140        73
49.150        33
49.160        33
49.170        47
49.180        47
49.190        27
49.200        53
49.210        93
49.220        40
49.230        53
49.240        67
49.250        53
49.260        53
49.270        27
49.280        33
49.290        33
49.300        47
49.310        33
49.320        47
49.330        40
49.340        40
49.350        40
49.360        40
49.370        40
49.380        20
49.390        60
49.400        40
49.410        40
49.420        60
49.430        47
49.440        47
49.450        47
49.460        80
49.470        53
49.480        27
49.490        67
49.500        27
49.510        27
49.520        73
49.530        40
49.540        53
49.550        60
49.560        47
49.570        47
49.580        73
49.590        40
49.600         7
49.610        40
49.620        33
49.630        47
49.640        47
49.650        73
49.660        47
49.670        53
49.680        60
49.690        40
49.700        40
49.710        40
49.720        47
49.730        67
49.740        20
49.750        40
49.760        53
49.770        40
49.780        60
49.790       100
49.800        53
49.810        60
49.820        73
49.830        47
49.840        53
49.850        47
49.860        67
49.870        93
49.880        80
49.890        73
49.900        47
49.910        73
49.920        73
49.930        27
49.940        40
49.950        60
49.960        47
49.970        40
49.980        53
49.990        33
50.000        40
50.010        73
50.020        33
50.030        27
50.040        40
50.050        33
50.060        27
50.070        47
50.080        73
50.090        67
50.100        53
50.110        47
50.120        40
50.130        80
50.140        47
50.150        47
50.160        40
50.170        13
50.180        27
50.190        73
50.200        67
50.210        60
50.220        33
50.230        40
50.240        33
50.250        60
50.260        53
50.270        40
50.280        67
50.290        60
50.300        53
50.310        33
50.320        40
50.330        33
50.340        67
50.350        20
50.360        67
50.370        27
50.380        40
50.390        13
50.400        60
50.410        67
50.420        60
50.430         7
50.440        60
50.450        53
50.460        33
50.470        40
50.480        60
50.490        87
50.500        73
50.510       107
50.520        47
50.530        60
50.540        47
50.550        53
50.560        53
50.570        40
50.580        53
50.590        93
50.600        80
50.610        53
50.620        87
50.630       127
50.640       167
50.650       173
50.660       200
50.670       300
50.680       360
50.690       333
50.700       340
50.710       407
50.720       626
50.730       513
50.740       760
50.750       486
50.760       593
50.770       540
50.780       566
50.790       500
50.800       580
50.810       580
50.820       700
50.830       560
50.840       626
50.850       660
50.860       533
50.870       486
50.880       433
50.890       593
50.900       600
50.910       640
50.920       460
50.930       526
50.940       573
50.950       573
50.960       666
50.970       660
50.980       640
50.990       500
51.000       593
51.010       586
51.020       573
51.030       593
51.040       586
51.050       546
51.060       653
51.070       566
51.080       533
51.090       580
51.100       640
51.110       553
51.120       493
51.130       593
51.140       586
51.150       733
51.160       680
51.170       660
51.180       533
51.190       533
51.200       620
51.210       520
51.220       446
51.230       573
51.240       633
51.250       626
51.260       613
51.270       620
51.280       553
51.290       606
51.300       520
51.310       586
51.320       473
51.330       520
51.340       693
51.350       540
51.360       560
51.370       660
51.380       566
51.390       580
51.400       540
51.410       560
51.420       560
51.430       593
51.440       626
51.450       606
51.460       693
51.470       600
51.480       493
51.490       606
51.500       546
51.510       593
51.520       633
51.530       740
51.540       586
51.550       640
51.560       520
51.570       633
51.580       673
51.590       560
51.600       726
51.610       613
51.620       520
51.630       553
51.640       620
51.650       566
51.660       700
51.670       560
51.680       713
51.690       653
51.700       660
51.710       686
51.720       640
51.730       673
51.740       673
51.750       760
51.760       726
51.770       660
51.780       660
51.790       613
51.800       840
51.810       640
51.820       740
51.830       700
51.840       626
51.850       740
51.860       606
51.870       733
51.880       680
51.890       620
51.900       826
51.910       746
51.920       720
51.930       793
51.940       553
51.950       646
51.960       780
51.970       926
51.980       900
51.990       793
52.000       906
52.010       906
52.020       893
52.030       860
52.040       746
52.050       853
52.060       946
52.070       900
52.080      1093
52.090       966
52.100       880
52.110      1013
52.120       980
52.130       893
52.140      1080
52.150      1126
52.160      1286
52.170      1200
52.180      1133
52.190      1200
52.200      1140
52.210      1259
52.220      1533
52.230      1486
52.240      1759
52.250      1686
52.260      1699
52.270      2159
52.280      2286
52.290      2346
52.300      2339
52.310      3152
52.320      3565
52.330      3858
52.340      3998
52.350      4465
52.360      4925
52.370      5145
52.380      5431
52.390      5771
52.400      5731
52.410      6711
52.420      7197
52.430      8150
52.440      9410
52.450     10582
52.460     11942
52.470     13241
52.480     15640
52.490     18239
52.500     21318
52.510     25703
52.520     32914
52.530     44256
52.540     67027
52.550    101699
52.560    144609
52.570    178682
52.580    203972
52.590    216913
52.600    221378
52.610    219306
52.620    207017
52.630    178402
52.640    140610
52.650    103692
52.660     76476
52.670     63161
52.680     63541
52.690     76729
52.700     94695
52.710    115560
52.720    130914
52.730    140884
52.740    144342
52.750    138804
52.760    127236
52.770    106644
52.780     82734
52.790     57650
52.800     37512
52.810     27043
52.820     19912
52.830     16273
52.840     14654
52.850     12128
52.860     11082
52.870     10502
52.880      8983
52.890      8317
52.900      7230
52.910      5951
52.920      5018
52.930      4132
52.940      3525
52.950      2992
52.960      2552
52.970      2426
52.980      2546
52.990      2286
53.000      2039
53.010      1866
53.020      1819
53.030      1759
53.040      1859
53.050      1646
53.060      1599
53.070      1406
53.080      1333
53.090      1359
53.100      1299
53.110      1359
53.120      1299
53.130      1126
53.140      1113
53.150      1120
53.160      1040
53.170      1359
53.180      1100
53.190      1073
53.200       966
53.210       953
53.220      1033
53.230      1080
53.240       953
53.250       980
53.260       926
53.270       920
53.280      1013
53.290       820
53.300       840
53.310       880
53.320       786
53.330       766
53.340       820
53.350       800
53.360       806
53.370       800
53.380       786
53.390       886
53.400       753
53.410       820
53.420       806
53.430       766
53.440       773
53.450       880
53.460       740
53.470       693
53.480       880
53.490       680
53.500       733
53.510       700
53.520       780
53.530       706
53.540       633
53.550       606
53.560       606
53.570       726
53.580       580
53.590       586
53.600       666
53.610       686
53.620       566
53.630       733
53.640       620
53.650       586
53.660       613
53.670       580
53.680       660
53.690       566
53.700       446
53.710       533
53.720       653
53.730       640
53.740       593
53.750       493
53.760       493
53.770       473
53.780       673
53.790       573
53.800       546
53.810       613
53.820       533
53.830       493
53.840       580
53.850       520
53.860       440
53.870       613
53.880       446
53.890       493
53.900       540
53.910       460
53.920       580
53.930       640
53.940       473
53.950       553
53.960       580
53.970       540
53.980       500
53.990       433
54.000       500
54.010       500
54.020       453
54.030       486
54.040       493
54.050       360
54.060       533
54.070       367
54.080       486
54.090       546
54.100       533
54.110       533
54.120       480
54.130       473
54.140       446
54.150       526
54.160       446
54.170       493
54.180       466
54.190       586
54.200       473
54.210       400
54.220       460
54.230       493
54.240       426
54.250       493
54.260       466
54.270       387
54.280       520
54.290       373
54.300       307
54.310       426
54.320       480
54.330       480
54.340       453
54.350       486
54.360       426
54.370       367
54.380       513
54.390       526
54.400       440
54.410       433
54.420       506
54.430       400
54.440       367
54.450       433
54.460       340
54.470       453
54.480       353
54.490       533
54.500       473
54.510       360
54.520       446
54.530       520
54.540       400
54.550       367
54.560       440
54.570       433
54.580       320
54.590       433
54.600       440
54.610       327
54.620       380
54.630       380
54.640       446
54.650       440
54.660       407
54.670       400
54.680       466
54.690       493
54.700       373
54.710       353
54.720       506
54.730       420
54.740       407
54.750       433
54.760       493
54.770       460
54.780       313
54.790       380
54.800       313
54.810       453
54.820       460
54.830       413
54.840       327
54.850       313
54.860       320
54.870       393
54.880       340
54.890       413
54.900       387
54.910       287
54.920       387
54.930       367
54.940       466
54.950       333
54.960       407
54.970       466
54.980       333
54.990       320
55.000       380
55.010       367
55.020       347
55.030       367
55.040       407
55.050       313
55.060       353
55.070       360
55.080       407
55.090       420
55.100       347
55.110       380
55.120       373
55.130       360
55.140       320
55.150       293
55.160       320
55.170       327
55.180       313
55.190       327
55.200       273
55.210       367
55.220       360
55.230       360
55.240       313
55.250       340
55.260       307
55.270       393
55.280       360
55.290       287
55.300       393
55.310       360
55.320       340
55.330       300
55.340       387
55.350       353
55.360       313
55.370       347
55.380       340
55.390       400
55.400       380
55.410       373
55.420       313
55.430       347
55.440       367
55.450       333
55.460       347
55.470       360
55.480       407
55.490       333
55.500       333
55.510       347
55.520       253
55.530       307
55.540       393
55.550       307
55.560       353
55.570       393
55.580       313
55.590       340
55.600       307
55.610       273
55.620       347
55.630       253
55.640       313
55.650       293
55.660       287
55.670       387
55.680       287
55.690       307
55.700       273
55.710       333
55.720       300
55.730       340
55.740       380
55.750       313
55.760       373
55.770       360
55.780       333
55.790       380
55.800       307
55.810       380
55.820       180
55.830       273
55.840       347
55.850       353
55.860       313
55.870       300
55.880       280
55.890       293
55.900       267
55.910       340
55.920       393
55.930       307
55.940       327
55.950       373
55.960       293
55.970       253
55.980       333
55.990       313
56.000       320
56.010       233
56.020       287
56.030       300
56.040       373
56.050       300
56.060       353
56.070       233
56.080       340
56.090       287
56.100       273
56.110       240
56.120       293
56.130       287
56.140       227
56.150       313
56.160       293
56.170       340
56.180       267
56.190       367
56.200       300
56.210       373
56.220       293
56.230       213
56.240       253
56.250       327
56.260       320
56.270       253
56.280       280
56.290       260
56.300       380
56.310       313
56.320       327
56.330       313
56.340       367
56.350       273
56.360       253
56.370       280
56.380       247
56.390       367
56.400       287
56.410       273
56.420       207
56.430       293
56.440       333
56.450       240
56.460       240
56.470       253
56.480       240
56.490       267
56.500       367
56.510       280
56.520       260
56.530       360
56.540       300
56.550       313
56.560       340
56.570       193
56.580       353
56.590       380
56.600       273
56.610       213
56.620       293
56.630       287
56.640       273
56.650       307
56.660       300
56.670       267
56.680       280
56.690       307
56.700       233
56.710       240
56.720       267
56.730       313
56.740       267
56.750       293
56.760       333
56.770       227
56.780       173
56.790       307
56.800       180
56.810       260
56.820       220
56.830       273
56.840       207
56.850       213
56.860       340
56.870       240
56.880       307
56.890       307
56.900       313
56.910       327
56.920       300
56.930       293
56.940       280
56.950       260
56.960       220
56.970       340
56.980       213
56.990       253
57.000       260
57.010       240
57.020       227
57.030       220
57.040       227
57.050       213
57.060       313
57.070       220
57.080       200
57.090       233
57.100       347
57.110       240
57.120       253
57.130       367
57.140       233
57.150       187
57.160       227
57.170       333
57.180       287
57.190       253
57.200       233
57.210       267
57.220       360
57.230       207
57.240       200
57.250       313
57.260       180
57.270       260
57.280       193
57.290       253
57.300       287
57.310       227
57.320       293
57.330       207
57.340       213
57.350       280
57.360       280
57.370       267
57.380       253
57.390       193
57.400       267
57.410       247
57.420       200
57.430       300
57.440       327
57.450       293
57.460       267
57.470       213
57.480       280
57.490       173
57.500       293
57.510       153
57.520       280
57.530       213
57.540       280
57.550       240
57.560       280
57.570       273
57.580       300
57.590       280
57.600       287
57.610       320
57.620       300
57.630       227
57.640       187
57.650       287
57.660       187
57.670       287
57.680       220
57.690       207
57.700       293
57.710       340
57.720       247
57.730       207
57.740       293
57.750       207
57.760       220
57.770       253
57.780       307
57.790       233
57.800       207
57.810       213
57.820       247
57.830       253
57.840       207
57.850       320
57.860       273
57.870       200
57.880       240
57.890       233
57.900       260
57.910       187
57.920       240
57.930       187
57.940       167
57.950       240
57.960       207
57.970       207
57.980       267
57.990       227
58.000       220
58.010       240
58.020       253
58.030       300
58.040       213
58.050       200
58.060       227
58.070       247
58.080       247
58.090       200
58.100       273
58.110       193
58.120       153
58.130       207
58.140       220
58.150       160
58.160       193
58.170       200
58.180       220
58.190       187
58.200       133
58.210       260
58.220       240
58.230       220
58.240       200
58.250       207
58.260       200
58.270       247
58.280       227
58.290       213
58.300       200
58.310       207
58.320       207
58.330       180
58.340       213
58.350       227
58.360       173
58.370       200
58.380       200
58.390       220
58.400       207
58.410       147
58.420       300
58.430       267
58.440       173
58.450       207
58.460       167
58.470       267
58.480       213
58.490       233
58.500       153
58.510       200
58.520       193
58.530       167
58.540       220
58.550       220
58.560       107
58.570       227
58.580       160
58.590       280
58.600       200
58.610       147
58.620       240
58.630       260
58.640       147
58.650       213
58.660       207
58.670       187
58.680       160
58.690       173
58.700       207
58.710       167
58.720       133
58.730       173
58.740       200
58.750       200
58.760       167
58.770       160
58.780       153
58.790       187
58.800       153
58.810       193
58.820       133
58.830       213
58.840       247
58.850       173
58.860       213
58.870       273
58.880       167
58.890       160
58.900       193
58.910       207
58.920       200
58.930       187
58.940       253
58.950       173
58.960       167
58.970       207
58.980       213
58.990       180
59.000       173
59.010       167
59.020       207
59.030       167
59.040       180
59.050       200
59.060       207
59.070       233
59.080       153
59.090       173
59.100       187
59.110       253
59.120       213
59.130       180
59.140       200
59.150       180
59.160       227
59.170       153
59.180       193
59.190       200
59.200       180
59.210       180
59.220       160
59.230       147
59.240       227
59.250       193
59.260       213
59.270       160
59.280       167
59.290       207
59.300       147
59.310       200
59.320       220
59.330       140
59.340       253
59.350       167
59.360       220
59.370       133
59.380       193
59.390       167
59.400       180
59.410       240
59.420       160
59.430       133
59.440       207
59.450       213
59.460       147
59.470       200
59.480       167
59.490       213
59.500       233
59.510       153
59.520       213
59.530       127
59.540       193
59.550       193
59.560       160
59.570       233
59.580       213
59.590       140
59.600       193
59.610       227
59.620       233
59.630       180
59.640       140
59.650       207
59.660       113
59.670       113
59.680       147
59.690       140
59.700       200
59.710       200
59.720       187
59.730       180
59.740       133
59.750       133
59.760       160
59.770       153
59.780       160
59.790       187
59.800       207
59.810       173
59.820       140
59.830       180
59.840       173
59.850       133
59.860       187
59.870       173
59.880       140
59.890       160
59.900       207
59.910       193
59.920       233
59.930       173
59.940       153
59.950       160
59.960       193
59.970       120
59.980       193
59.990       207
60.000       167
