20.000        40
20.010        40
20.020       100
20.030        80
20.040       147
20.050        67
20.060        60
20.070        87
20.080       147
20.090       147
20.100        93
20.110       120
20.120       100
20.130       107
20.140        93
20.150       187
20.160       107
20.170        93
20.180       133
20.190        40
20.200       113
20.210       140
20.220        87
20.230       100
20.240        73
20.250        73
20.260       133
20.270       113
20.280        73
20.290       107
20.300       113
20.310       147
20.320       100
20.330        87
20.340       107
20.350       127
20.360       100
20.370        53
20.380       107
20.390        87
20.400        87
20.410        53
20.420        67
20.430       133
20.440       113
20.450       113
20.460       113
20.470       133
20.480        67
20.490        93
20.500        53
20.510        80
20.520        87
20.530        67
20.540        80
20.550       160
20.560        93
20.570        73
20.580       107
20.590       113
20.600       153
20.610        80
20.620        93
20.630       113
20.640        67
20.650       100
20.660        80
20.670       100
20.680        67
20.690       133
20.700        67
20.710       100
20.720       113
20.730       107
20.740       133
20.750        60
20.760       100
20.770        93
20.780       100
20.790        67
20.800       127
20.810        80
20.820        87
20.830       107
20.840        80
20.850        60
20.860       113
20.870        53
20.880       127
20.890       173
20.900       107
20.910       100
20.920       167
20.930       107
20.940        93
20.950       107
20.960        60
20.970        87
20.980       100
20.990       133
21.000       100
21.010       120
21.020       187
21.030       120
21.040        73
21.050       107
21.060       100
21.070        73
21.080        73
21.090        80
21.100       100
21.110        80
21.120       127
21.130       100
21.140       147
21.150       107
21.160       120
21.170        47
21.180        93
21.190       113
21.200       107
21.210       100
21.220        80
21.230        67
21.240       100
21.250       140
21.260        67
21.270        60
21.280       120
21.290        80
21.300        53
21.310        73
21.320        67
21.330        73
21.340       107
21.350        67
21.360       107
21.370        93
21.380       100
21.390        80
21.400        67
21.410        93
21.420        93
21.430       133
21.440       127
21.450       100
21.460       113
21.470       107
21.480        67
21.490        87
21.500       180
21.510       113
21.520       133
21.530        67
21.540       127
21.550       100
21.560       100
21.570       113
21.580       107
21.590        73
21.600        87
21.610       147
21.620        87
21.630        87
21.640       100
21.650       133
21.660       120
21.670       107
21.680       100
21.690       133
21.700       100
21.710       167
21.720       113
21.730       193
21.740       140
21.750       120
21.760       100
21.770       100
21.780       147
21.790       127
21.800       120
21.810       100
21.820       127
21.830       100
21.840        87
21.850       120
21.860       113
21.870        60
21.880       107
21.890       120
21.900       107
21.910       140
21.920       113
21.930        87
21.940       113
21.950       147
21.960       113
21.970       173
21.980       140
21.990       120
22.000       120
22.010       140
22.020       140
22.030       160
22.040       167
22.050       140
22.060       200
22.070       153
22.080       153
22.090       113
22.100       107
22.110       133
22.120       107
22.130        93
22.140        93
22.150       153
22.160       133
22.170       140
22.180       180
22.190       147
22.200       113
22.210       133
22.220       147
22.230       147
22.240       107
22.250       133
22.260       153
22.270       140
22.280       113
22.290       147
22.300       107
22.310       147
22.320       167
22.330       153
22.340       127
22.350       133
22.360       140
22.370       133
22.380       200
22.390       187
22.400       133
22.410       133
22.420       127
22.430       173
22.440       180
22.450       147
22.460       147
22.470       187
22.480       113
22.490       147
22.500       160
22.510       120
22.520       160
22.530       180
22.540       153
22.550       200
22.560       120
22.570       113
22.580       160
22.590       153
22.600       187
22.610       127
22.620       227
22.630       160
22.640       120
22.650       160
22.660       187
22.670       220
22.680       207
22.690       140
22.700       173
22.710       140
22.720       207
22.730       173
22.740       127
22.750       173
22.760       160
22.770       187
22.780       180
22.790       133
22.800       193
22.810       200
22.820       213
22.830       273
22.840       193
22.850       180
22.860       200
22.870       187
22.880       153
22.890       227
22.900       220
22.910       260
22.920       307
22.930       253
22.940       340
22.950       347
22.960       233
22.970       267
22.980       367
22.990       287
23.000       307
23.010       267
23.020       293
23.030       287
23.040       280
23.050       367
23.060       373
23.070       693
23.080       786
23.090      1266
23.100      1733
23.110      2126
23.120      2239
23.130      2172
23.140      1999
23.150      1713
23.160      1273
23.170       946
23.180       600
23.190       420
23.200       333
23.210       400
23.220       340
23.230       287
23.240       347
23.250       240
23.260       287
23.270       307
23.280       347
23.290       207
23.300       233
23.310       287
23.320       233
23.330       180
23.340       153
23.350       233
23.360       220
23.370       260
23.380       247
23.390       187
23.400       193
23.410       240
23.420       220
23.430       220
23.440       240
23.450       213
23.460       267
23.470       187
23.480       213
23.490       207
23.500       187
23.510       260
23.520       247
23.530       180
23.540       220
23.550       247
23.560       193
23.570       293
23.580       273
23.590       213
23.600       287
23.610       213
23.620       280
23.630       273
23.640       180
23.650       227
23.660       167
23.670       187
23.680       180
23.690       187
23.700       267
23.710       193
23.720       240
23.730       253
23.740       207
23.750       160
23.760       287
23.770       253
23.780       187
23.790       167
23.800       193
23.810       207
23.820       153
23.830       207
23.840       187
23.850       233
23.860       247
23.870       280
23.880       200
23.890       193
23.900       227
23.910       153
23.920       233
23.930       233
23.940       153
23.950       260
23.960       207
23.970       193
23.980       207
23.990       173
24.000       220
24.010       227
24.020       193
24.030       160
24.040       220
24.050       240
24.060       167
24.070       233
24.080       227
24.090       260
24.100       220
24.110       187
24.120       173
24.130       187
24.140       207
24.150       180
24.160       233
24.170       207
24.180       180
24.190       227
24.200       293
24.210       193
24.220       247
24.230       280
24.240       273
24.250       180
24.260       213
24.270       140
24.280       180
24.290       167
24.300       253
24.310       227
24.320       167
24.330       320
24.340       220
24.350       193
24.360       207
24.370       153
24.380       273
24.390       267
24.400       153
24.410       293
24.420       253
24.430       213
24.440       227
24.450       200
24.460       180
24.470       180
24.480       167
24.490       240
24.500       200
24.510       207
24.520       187
24.530       147
24.540       220
24.550       207
24.560       240
24.570       220
24.580       260
24.590       240
24.600       273
24.610       200
24.620       300
24.630       220
24.640       273
24.650       240
24.660       287
24.670       267
24.680       280
24.690       313
24.700       353
24.710       373
24.720       387
24.730       600
24.740       613
24.750       820
24.760       853
24.770       813
24.780       926
24.790      1040
24.800      1080
24.810       920
24.820      1046
24.830       933
24.840      1053
24.850      1126
24.860       993
24.870      1013
24.880       973
24.890       966
24.900       940
24.910       966
24.920      1066
24.930      1066
24.940      1073
24.950      1040
24.960      1000
24.970      1040
24.980      1060
24.990      1040
25.000      1080
25.010      1000
25.020       946
25.030       973
25.040      1140
25.050      1100
25.060       906
25.070      1046
25.080      1033
25.090      1026
25.100      1160
25.110      1020
25.120      1086
25.130      1033
25.140      1060
25.150      1060
25.160      1006
25.170      1153
25.180      1100
25.190       986
25.200      1086
25.210      1060
25.220      1100
25.230       926
25.240      1126
25.250      1006
25.260       933
25.270      1259
25.280      1066
25.290      1186
25.300      1319
25.310      1226
25.320      1200
25.330      1393
25.340      1493
25.350      1646
25.360      1779
25.370      1953
25.380      2299
25.390      3145
25.400      3312
25.410      4305
25.420      5171
25.430      6211
25.440      6757
25.450      7750
25.460      9083
25.470      9523
25.480     10622
25.490     11302
25.500     12755
25.510     13548
25.520     13794
25.530     14927
25.540     16693
25.550     18886
25.560     24244
25.570     41317
25.580     76956
25.590    122898
25.600    158790
25.610    178375
25.620    185972
25.630    190470
25.640    194762
25.650    191224
25.660    176469
25.670    153938
25.680    132187
25.690    121125
25.700    117246
25.710    109056
25.720     89398
25.730     62242
25.740     37845
25.750     21585
25.760     14594
25.770     11209
25.780      9196
25.790      7710
25.800      6304
25.810      5245
25.820      4092
25.830      4072
25.840      3539
25.850      2712
25.860      2479
25.870      2126
25.880      1999
25.890      1839
25.900      1713
25.910      1533
25.920      1633
25.930      1759
25.940      1579
25.950      1599
25.960      1426
25.970      1479
25.980      1200
25.990      1453
26.000      1133
26.010      1426
26.020      1053
26.030      1213
26.040      1233
26.050      1259
26.060      1146
26.070      1100
26.080      1106
26.090      1106
26.100       980
26.110      1013
26.120       960
26.130       966
26.140       980
26.150       900
26.160      1053
26.170      1013
26.180       940
26.190       853
26.200       800
26.210      1000
26.220       980
26.230       780
26.240       806
26.250       960
26.260       946
26.270       933
26.280       946
26.290       780
26.300       906
26.310       773
26.320       920
26.330       820
26.340       880
26.350       973
26.360       780
26.370       820
26.380       686
26.390       800
26.400       866
26.410       806
26.420       880
26.430       820
26.440       933
26.450       786
26.460       780
26.470       813
26.480       760
26.490       813
26.500       733
26.510       900
26.520       753
26.530       733
26.540       753
26.550       646
26.560       846
26.570       800
26.580       680
26.590       753
26.600       753
26.610       740
26.620       700
26.630       673
26.640       820
26.650       660
26.660       826
26.670       686
26.680       826
26.690       606
26.700       680
26.710       840
26.720       786
26.730       773
26.740       773
26.750       646
26.760       833
26.770       766
26.780       720
26.790       680
26.800       753
26.810       813
26.820       706
26.830       700
26.840       680
26.850       680
26.860       680
26.870       820
26.880       786
26.890       773
26.900       613
26.910       566
26.920       740
26.930       633
26.940       606
26.950       493
26.960       553
26.970       660
26.980       693
26.990       673
27.000       586
27.010       800
27.020       600
27.030       686
27.040       560
27.050       640
27.060       593
27.070       620
27.080       640
27.090       586
27.100       633
27.110       526
27.120       606
27.130       613
27.140       626
27.150       653
27.160       613
27.170       700
27.180       586
27.190       666
27.200       646
27.210       626
27.220       646
27.230       546
27.240       593
27.250       686
27.260       606
27.270       720
27.280       586
27.290       606
27.300       506
27.310       513
27.320       613
27.330       653
27.340       660
27.350       560
27.360       653
27.370       593
27.380       526
27.390       573
27.400       553
27.410       613
27.420       673
27.430       513
27.440       580
27.450       546
27.460       680
27.470       526
27.480       706
27.490       513
27.500       586
27.510       606
27.520       520
27.530       566
27.540       486
27.550       600
27.560       646
27.570       653
27.580       606
27.590       566
27.600       566
27.610       546
27.620       566
27.630       600
27.640       613
27.650       513
27.660       480
27.670       640
27.680       573
27.690       500
27.700       640
27.710       586
27.720       640
27.730       553
27.740       486
27.750       633
27.760       626
27.770       493
27.780       606
27.790       513
27.800       613
27.810       633
27.820       626
27.830       573
27.840       486
27.850       660
27.860       786
27.870       466
27.880       533
27.890       646
27.900       700
27.910       613
27.920       540
27.930       620
27.940       566
27.950       586
27.960       700
27.970       613
27.980       473
27.990       546
28.000       540
28.010       600
28.020       560
28.030       473
28.040       533
28.050       486
28.060       586
28.070       486
28.080       553
28.090       540
28.100       546
28.110       407
28.120       646
28.130       486
28.140       433
28.150       573
28.160       513
28.170       560
28.180       553
28.190       500
28.200       387
28.210       453
28.220       500
28.230       513
28.240       407
28.250       526
28.260       506
28.270       526
28.280       486
28.290       480
28.300       533
28.310       560
28.320       566
28.330       560
28.340       520
28.350       380
28.360       573
28.370       566
28.380       633
28.390       493
28.400       606
28.410       593
28.420       453
28.430       586
28.440       486
28.450       460
28.460       506
28.470       473
28.480       460
28.490       513
28.500       513
28.510       466
28.520       526
28.530       526
28.540       640
28.550       593
28.560       446
28.570       486
28.580       566
28.590       453
28.600       453
28.610       506
28.620       433
28.630       666
28.640       413
28.650       473
28.660       553
28.670       413
28.680       506
28.690       560
28.700       553
28.710       426
28.720       500
28.730       513
28.740       473
28.750       433
28.760       506
28.770       473
28.780       460
28.790       560
28.800       387
28.810       387
28.820       486
28.830       553
28.840       433
28.850       453
28.860       526
28.870       460
28.880       533
28.890       520
28.900       513
28.910       506
28.920       440
28.930       540
28.940       526
28.950       526
28.960       593
28.970       546
28.980       526
28.990       493
29.000       580
29.010       560
29.020       480
29.030       646
29.040       500
29.050       560
29.060       686
29.070       600
29.080       633
29.090       686
29.100       640
29.110       673
29.120       586
29.130       720
29.140       700
29.150       640
29.160       540
29.170       706
29.180       560
29.190       560
29.200       553
29.210       546
29.220       446
29.230       520
29.240       513
29.250       520
29.260       446
29.270       500
29.280       506
29.290       500
29.300       380
29.310       413
29.320       493
29.330       433
29.340       446
29.350       500
29.360       400
29.370       540
29.380       420
29.390       460
29.400       566
29.410       393
29.420       460
29.430       453
29.440       413
29.450       387
29.460       600
29.470       407
29.480       446
29.490       426
29.500       380
29.510       466
29.520       453
29.530       426
29.540       407
29.550       513
29.560       420
29.570       493
29.580       373
29.590       413
29.600       393
29.610       480
29.620       433
29.630       513
29.640       480
29.650       446
29.660       480
29.670       307
29.680       393
29.690       500
29.700       466
29.710       420
29.720       347
29.730       433
29.740       426
29.750       433
29.760       400
29.770       420
29.780       460
29.790       387
29.800       426
29.810       380
29.820       500
29.830       360
29.840       426
29.850       387
29.860       367
29.870       466
29.880       400
29.890       380
29.900       473
29.910       420
29.920       333
29.930       400
29.940       446
29.950       393
29.960       353
29.970       293
29.980       367
29.990       407
30.000       320
30.010       426
30.020       380
30.030       360
30.040       300
30.050       367
30.060       380
30.070       380
30.080       387
30.090       440
30.100       407
30.110       367
30.120       373
30.130       293
30.140       453
30.150       546
30.160       466
30.170       320
30.180       426
30.190       340
30.200       333
30.210       473
30.220       340
30.230       320
30.240       347
30.250       327
30.260       440
30.270       387
30.280       400
30.290       393
30.300       347
30.310       480
30.320       327
30.330       387
30.340       333
30.350       407
30.360       320
30.370       407
30.380       327
30.390       327
30.400       387
30.410       360
30.420       320
30.430       327
30.440       380
30.450       360
30.460       373
30.470       400
30.480       426
30.490       327
30.500       413
30.510       360
30.520       333
30.530       407
30.540       360
30.550       393
30.560       313
30.570       327
30.580       353
30.590       313
30.600       293
30.610       373
30.620       446
30.630       313
30.640       327
30.650       287
30.660       333
30.670       387
30.680       407
30.690       307
30.700       307
30.710       307
30.720       333
30.730       407
30.740       433
30.750       373
30.760       300
30.770       373
30.780       293
30.790       320
30.800       373
30.810       287
30.820       353
30.830       273
30.840       340
30.850       247
30.860       327
30.870       340
30.880       413
30.890       260
30.900       320
30.910       267
30.920       327
30.930       327
30.940       367
30.950       387
30.960       267
30.970       353
30.980       426
30.990       360
31.000       380
31.010       327
31.020       307
31.030       347
31.040       307
31.050       273
31.060       293
31.070       333
31.080       387
31.090       233
31.100       287
31.110       233
31.120       360
31.130       260
31.140       320
31.150       320
31.160       320
31.170       293
31.180       340
31.190       293
31.200       260
31.210       287
31.220       320
31.230       327
31.240       333
31.250       393
31.260       313
31.270       367
31.280       387
31.290       280
31.300       293
31.310       393
31.320       426
31.330       360
31.340       360
31.350       260
31.360       300
31.370       293
31.380       293
31.390       287
31.400       353
31.410       380
31.420       327
31.430       353
31.440       313
31.450       327
31.460       333
31.470       367
31.480       373
31.490       353
31.500       320
31.510       293
31.520       287
31.530       380
31.540       333
31.550       293
31.560       227
31.570       260
31.580       320
31.590       293
31.600       187
31.610       367
31.620       287
31.630       307
31.640       260
31.650       340
31.660       287
31.670       200
31.680       207
31.690       207
31.700       227
31.710       287
31.720       347
31.730       273
31.740       287
31.750       187
31.760       260
31.770       260
31.780       313
31.790       320
31.800       253
31.810       247
31.820       333
31.830       140
31.840       307
31.850       227
31.860       313
31.870       260
31.880       300
31.890       247
31.900       240
31.910       200
31.920       247
31.930       220
31.940       307
31.950       313
31.960       293
31.970       340
31.980       213
31.990       240
32.000       273
32.010       320
32.020       333
32.030       353
32.040       233
32.050       313
32.060       260
32.070       293
32.080       193
32.090       293
32.100       360
32.110       327
32.120       220
32.130       273
32.140       327
32.150       387
32.160       353
32.170       360
32.180       347
32.190       340
32.200       327
32.210       347
32.220       267
32.230       307
32.240       260
32.250       360
32.260       367
32.270       327
32.280       227
32.290       407
32.300       260
32.310       307
32.320       327
32.330       387
32.340       240
32.350       307
32.360       273
32.370       307
32.380       393
32.390       220
32.400       313
32.410       313
32.420       273
32.430       307
32.440       247
32.450       233
32.460       240
32.470       247
32.480       220
32.490       313
32.500       267
32.510       233
32.520       207
32.530       213
32.540       260
32.550       313
32.560       240
32.570       273
32.580       267
32.590       227
32.600       233
32.610       233
32.620       300
32.630       293
32.640       247
32.650       220
32.660       273
32.670       273
32.680       287
32.690       273
32.700       307
32.710       307
32.720       260
32.730       260
32.740       253
32.750       233
32.760       353
32.770       327
32.780       333
32.790       280
32.800       233
32.810       227
32.820       327
32.830       380
32.840       227
32.850       247
32.860       167
32.870       333
32.880       240
32.890       207
32.900       267
32.910       233
32.920       293
32.930       233
32.940       240
32.950       207
32.960       260
32.970       220
32.980       227
32.990       273
33.000       273
33.010       280
33.020       227
33.030       147
33.040       193
33.050       187
33.060       273
33.070       233
33.080       207
33.090       193
33.100       213
33.110       253
33.120       267
33.130       227
33.140       300
33.150       213
33.160       240
33.170       227
33.180       253
33.190       280
33.200       140
33.210       187
33.220       260
33.230       213
33.240       247
33.250       193
33.260       247
33.270       180
33.280       267
33.290       167
33.300       233
33.310       260
33.320       200
33.330       240
33.340       193
33.350       240
33.360       213
33.370       167
33.380       213
33.390       253
33.400       287
33.410       220
33.420       180
33.430       133
33.440       260
33.450       227
33.460       187
33.470       227
33.480       160
33.490       293
33.500       147
33.510       320
33.520       193
33.530       227
33.540       213
33.550       167
33.560       213
33.570       200
33.580       193
33.590       173
33.600       207
33.610       213
33.620       233
33.630       200
33.640       193
33.650       153
33.660       180
33.670       200
33.680       173
33.690       187
33.700       193
33.710       233
33.720       240
33.730       133
33.740       200
33.750       120
33.760       207
33.770       173
33.780       140
33.790       147
33.800       167
33.810       187
33.820       200
33.830       160
33.840       220
33.850       167
33.860       207
33.870       167
33.880       193
33.890       187
33.900       147
33.910       227
33.920       200
33.930       173
33.940       160
33.950       200
33.960       127
33.970       180
33.980       147
33.990       187
34.000       193
34.010       147
34.020       167
34.030       167
34.040       253
34.050       153
34.060       200
34.070       167
34.080       100
34.090       133
34.100       293
34.110       193
34.120       193
34.130       167
34.140       227
34.150       173
34.160       173
34.170       187
34.180       220
34.190       213
34.200       160
34.210       193
34.220       213
34.230       187
34.240       160
34.250       200
34.260       193
34.270       207
34.280       133
34.290       200
34.300       187
34.310       240
34.320       160
34.330       153
34.340       153
34.350       187
34.360       220
34.370       207
34.380       140
34.390       133
34.400       233
34.410       173
34.420       213
34.430       147
34.440       233
34.450       147
34.460       187
34.470       160
34.480       167
34.490       240
34.500       140
34.510       193
34.520       200
34.530       240
34.540       260
34.550       160
34.560       247
34.570       187
34.580       207
34.590       220
34.600       187
34.610       153
34.620       233
34.630       167
34.640       173
34.650       180
34.660       140
34.670       133
34.680       160
34.690       193
34.700       187
34.710       180
34.720       180
34.730       147
34.740       193
34.750       113
34.760       187
34.770       173
34.780       167
34.790       147
34.800       187
34.810       107
34.820       160
34.830       127
34.840       160
34.850       140
34.860       173
34.870       180
34.880       180
34.890       147
34.900       153
34.910       200
34.920       200
34.930       173
34.940       173
34.950       207
34.960       207
34.970       160
34.980       153
34.990       173
35.000       153
35.010       173
35.020       187
35.030       167
35.040       153
35.050       180
35.060       140
35.070       100
35.080       140
35.090       107
35.100       167
35.110       153
35.120       127
35.130       140
35.140       127
35.150       153
35.160       160
35.170       107
35.180       140
35.190       133
35.200       200
35.210       160
35.220       187
35.230       187
35.240       213
35.250       120
35.260       120
35.270       180
35.280       240
35.290       160
35.300       113
35.310       147
35.320       147
35.330       153
35.340       167
35.350        87
35.360       213
35.370       133
35.380       173
35.390       220
35.400       120
35.410       127
35.420       140
35.430       140
35.440       147
35.450       167
35.460       160
35.470        80
35.480       120
35.490       187
35.500       160
35.510       193
35.520       127
35.530       153
35.540       147
35.550       113
35.560       127
35.570       133
35.580       147
35.590       113
35.600       113
35.610       127
35.620       193
35.630       120
35.640       153
35.650       107
35.660       140
35.670        80
35.680       220
35.690       120
35.700       173
35.710        93
35.720       140
35.730       133
35.740       180
35.750       120
35.760       140
35.770       127
35.780       113
35.790        73
35.800       147
35.810       120
35.820        67
35.830       120
35.840       120
35.850       187
35.860       133
35.870       120
35.880        80
35.890       127
35.900       153
35.910       147
35.920       120
35.930       100
35.940       133
35.950       120
35.960        93
35.970       133
35.980       153
35.990        87
36.000        93
36.010       153
36.020       113
36.030       113
36.040        73
36.050        80
36.060       140
36.070        67
36.080       127
36.090       120
36.100       100
36.110       107
36.120       100
36.130       140
36.140       113
36.150       113
36.160       100
36.170       133
36.180       213
36.190       113
36.200       127
36.210       120
36.220       193
36.230       100
36.240        87
36.250       140
36.260        93
36.270        73
36.280       140
36.290       120
36.300       167
36.310        87
36.320        93
36.330       133
36.340       173
36.350       153
36.360       180
36.370       147
36.380       127
36.390       147
36.400       147
36.410       140
36.420       127
36.430       100
36.440       133
36.450       107
36.460       167
36.470       153
36.480       113
36.490       140
36.500       113
36.510        73
36.520       167
36.530       173
36.540       140
36.550       140
36.560       113
36.570        93
36.580       153
36.590       140
36.600       127
36.610       127
36.620       107
36.630       160
36.640       140
36.650       147
36.660       140
36.670        93
36.680       120
36.690        87
36.700        67
36.710        60
36.720       147
36.730        67
36.740       140
36.750        93
36.760       100
36.770       113
36.780        67
36.790        93
36.800       140
36.810        93
36.820       113
36.830       180
36.840       153
36.850       120
36.860        93
36.870       107
36.880       133
36.890       100
36.900       107
36.910        80
36.920       107
36.930       120
36.940       127
36.950       127
36.960        67
36.970        80
36.980        60
36.990       107
37.000       100
37.010       133
37.020       133
37.030        87
37.040        73
37.050        87
37.060       100
37.070       127
37.080       100
37.090        93
37.100        53
37.110        67
37.120       127
37.130       107
37.140       120
37.150       100
37.160       140
37.170        73
37.180        47
37.190       160
37.200        80
37.210        73
37.220        93
37.230        87
37.240       160
37.250       113
37.260       107
37.270       180
37.280       113
37.290       107
37.300       113
37.310       107
37.320       113
37.330        67
37.340       107
37.350       147
37.360       127
37.370       100
37.380       120
37.390        93
37.400       127
37.410        93
37.420       113
37.430       140
37.440        80
37.450       133
37.460       153
37.470       127
37.480        87
37.490        87
37.500       147
37.510       147
37.520       100
37.530       120
37.540       140
37.550       120
37.560       140
37.570       140
37.580        80
37.590       140
37.600       100
37.610       167
37.620        73
37.630       113
37.640       107
37.650        80
37.660        93
37.670       113
37.680       113
37.690        67
37.700        87
37.710        87
37.720        93
37.730       133
37.740        93
37.750        67
37.760        33
37.770       113
37.780        93
37.790        87
37.800        73
37.810        87
37.820       140
37.830        67
37.840        40
37.850        87
37.860        73
37.870        40
37.880        40
37.890        80
37.900        93
37.910        67
37.920       120
37.930       107
37.940        93
37.950       107
37.960        93
37.970        60
37.980        73
37.990        87
38.000        53
38.010        93
38.020       100
38.030        93
38.040        87
38.050        80
38.060        80
38.070       100
38.080        80
38.090        47
38.100        93
38.110       133
38.120        87
38.130        87
38.140        80
38.150        73
38.160        67
38.170        60
38.180        67
38.190       113
38.200        87
38.210        80
38.220        93
38.230        60
38.240        87
38.250        73
38.260        53
38.270        67
38.280        80
38.290        53
38.300        80
38.310       107
38.320        80
38.330        73
38.340       127
38.350       113
38.360        73
38.370        87
38.380       120
38.390       100
38.400        67
38.410        60
38.420       113
38.430        87
38.440       100
38.450        93
38.460       127
38.470        47
38.480       113
38.490       187
38.500        80
38.510       100
38.520       107
38.530       120
38.540       120
38.550       107
38.560        87
38.570        80
38.580        60
38.590        73
38.600        87
38.610       100
38.620        53
38.630        73
38.640        67
38.650        73
38.660        73
38.670        93
38.680        87
38.690       100
38.700        80
38.710        87
38.720        87
38.730        80
38.740        73
38.750        40
38.760       127
38.770        80
38.780        47
38.790        67
38.800        73
38.810        80
38.820        33
38.830        67
38.840        93
38.850        67
38.860        53
38.870       100
38.880        80
38.890       100
38.900        47
38.910        87
38.920        53
38.930        87
38.940        33
38.950        87
38.960        60
38.970        87
38.980        47
38.990        67
39.000        93
39.010        87
39.020        87
39.030        73
39.040        73
39.050        60
39.060        80
39.070       100
39.080        40
39.090        47
39.100        67
39.110       107
39.120        80
39.130        93
39.140        67
39.150        87
39.160        73
39.170        73
39.180        93
39.190        53
39.200        73
39.210        87
39.220        20
39.230       107
39.240       107
39.250        80
39.260        47
39.270        93
39.280        73
39.290        80
39.300        73
39.310        67
39.320        40
39.330        40
39.340       113
39.350        73
39.360        67
39.370        80
39.380        67
39.390        73
39.400        73
39.410        40
39.420        67
39.430        60
39.440        67
39.450        73
39.460        60
39.470        53
39.480        87
39.490        60
39.500        47
39.510        47
39.520       107
39.530        40
39.540        67
39.550       100
39.560        87
39.570        47
39.580        53
39.590        67
39.600        27
39.610        40
39.620        47
39.630        87
39.640        40
39.650        53
39.660        53
39.670        67
39.680        47
39.690        67
39.700        33
39.710       100
39.720        67
39.730        87
39.740        73
39.750        47
39.760       100
39.770        80
39.780        53
39.790        60
39.800        40
39.810        47
39.820        27
39.830        67
39.840        87
39.850       100
39.860        20
39.870        67
39.880        47
39.890        20
39.900        40
39.910        40
39.920        87
39.930       100
39.940       113
39.950        80
39.960        60
39.970        60
39.980        73
39.990        60
40.000        47
40.010        20
40.020        60
40.030        27
40.040        87
40.050       120
40.060       100
40.070        53
40.080        47
40.090        93
40.100        73
40.110        73
40.120        47
40.130       100
40.140        93
40.150        73
40.160        47
40.170        93
40.180        87
40.190       107
40.200       127
40.210       133
40.220        87
40.230        60
40.240        93
40.250        87
40.260        60
40.270        87
40.280        47
40.290        47
40.300        87
40.310        73
40.320       100
40.330        60
40.340        67
40.350        60
40.360        93
40.370        60
40.380        87
40.390       107
40.400        93
40.410        93
40.420        53
40.430        60
40.440        93
40.450        93
40.460        47
40.470        80
40.480        60
40.490        47
40.500        73
40.510        53
40.520        73
40.530        47
40.540        47
40.550        87
40.560        60
40.570        60
40.580       107
40.590        67
40.600        73
40.610       100
40.620        40
40.630        47
40.640        53
40.650        60
40.660        33
40.670        80
40.680        33
40.690        60
40.700        40
40.710        53
40.720        80
40.730        80
40.740        47
40.750        53
40.760        73
40.770        53
40.780        73
40.790        33
40.800        40
40.810        47
40.820        53
40.830        80
40.840        87
40.850        40
40.860        33
40.870        60
40.880        73
40.890        47
40.900        47
40.910        40
40.920        73
40.930        33
40.940        87
40.950        60
40.960        33
40.970        20
40.980        80
40.990        47
41.000        60
41.010        60
41.020        40
41.030        60
41.040        47
41.050        87
41.060        73
41.070        80
41.080        53
41.090        73
41.100        33
41.110        73
41.120        67
41.130        87
41.140        27
41.150        67
41.160        73
41.170        47
41.180        60
41.190        80
41.200        47
41.210        67
41.220        80
41.230        67
41.240        87
41.250        73
41.260        93
41.270        40
41.280        40
41.290        40
41.300        60
41.310        33
41.320        47
41.330        60
41.340        80
41.350        53
41.360        53
41.370        47
41.380        53
41.390        53
41.400        73
41.410        67
41.420        33
41.430        60
41.440        73
41.450        33
41.460        33
41.470        47
41.480        40
41.490        40
41.500        60
41.510        40
41.520        40
41.530        53
41.540        47
41.550        40
41.560        53
41.570        47
41.580        40
41.590        67
41.600        73
41.610        27
41.620        47
41.630        60
41.640        60
41.650        73
41.660        40
41.670        80
41.680        67
41.690        60
41.700        47
41.710        60
41.720        60
41.730        40
41.740        93
41.750       100
41.760        93
41.770       107
41.780        87
41.790        67
41.800        60
41.810        87
41.820        87
41.830        93
41.840       107
41.850       120
41.860        60
41.870        93
41.880        80
41.890        93
41.900        80
41.910       127
41.920        73
41.930        87
41.940       100
41.950       127
41.960        93
41.970       113
41.980        53
41.990        73
42.000        93
42.010        67
42.020        87
42.030       100
42.040       133
42.050       100
42.060        53
42.070       100
42.080       107
42.090        73
42.100        93
42.110       120
42.120        80
42.130        40
42.140        93
42.150        80
42.160        53
42.170        73
42.180        93
42.190        87
42.200        60
42.210        87
42.220        40
42.230        67
42.240        33
42.250        53
42.260        40
42.270        47
42.280        60
42.290        53
42.300        47
42.310        93
42.320        80
42.330        67
42.340        93
42.350        47
42.360       107
42.370       100
42.380        87
42.390        53
42.400        40
42.410        73
42.420        73
42.430        67
42.440        67
42.450        40
42.460        60
42.470        33
42.480       127
42.490        40
42.500        67
42.510        53
42.520        40
42.530        27
42.540        40
42.550        33
42.560        73
42.570        67
42.580        67
42.590        40
42.600        60
42.610        53
42.620        47
42.630        67
42.640        27
42.650        67
42.660        67
42.670        73
42.680        60
42.690        60
42.700        47
42.710        20
42.720        67
42.730        33
42.740        67
42.750        67
42.760        27
42.770        60
42.780        60
42.790        67
42.800        27
42.810        40
42.820        40
42.830        20
42.840        67
42.850        53
42.860        47
42.870        20
42.880        33
42.890        53
42.900        40
42.910        47
42.920        87
42.930        47
42.940        33
42.950        47
42.960        60
42.970        53
42.980        27
42.990        53
43.000        27
43.010        53
43.020        20
43.030        47
43.040        33
43.050        27
43.060        53
43.070        60
43.080        13
43.090        53
43.100        47
43.110        47
43.120        60
43.130        40
43.140        60
43.150        40
43.160        53
43.170        27
43.180        60
43.190        40
43.200        33
43.210        33
43.220        53
43.230        47
43.240        13
43.250        33
43.260        53
43.270        40
43.280        33
43.290        27
43.300        40
43.310        47
43.320        27
43.330        27
43.340        27
43.350        33
43.360        27
43.370        40
43.380        60
43.390        53
43.400        40
43.410        40
43.420        33
43.430        47
43.440        40
43.450        47
43.460        40
43.470        33
43.480        40
43.490        60
43.500        40
43.510        27
43.520        27
43.530        40
43.540        93
43.550        40
43.560        20
43.570        27
43.580        87
43.590        33
43.600        40
43.610        47
43.620        67
43.630        20
43.640        60
43.650        33
43.660        20
43.670        53
43.680        20
43.690        60
43.700        60
43.710        73
43.720        60
43.730        53
43.740        87
43.750        27
43.760        20
43.770        33
43.780        27
43.790        33
43.800        40
43.810        47
43.820        40
43.830        33
43.840        60
43.850        67
43.860        40
43.870        27
43.880        20
43.890        67
43.900        33
43.910        53
43.920        60
43.930        53
43.940        53
43.950        40
43.960        13
43.970        53
43.980        27
43.990        40
44.000        67
44.010        40
44.020        53
44.030        27
44.040        60
44.050        47
44.060        33
44.070        40
44.080        20
44.090        60
44.100        47
44.110        27
44.120        20
44.130        33
44.140        93
44.150        27
44.160        47
44.170        67
44.180        73
44.190        53
44.200        20
44.210        40
44.220        47
44.230        47
44.240        20
44.250        47
44.260        33
44.270        60
44.280        47
44.290        27
44.300        20
44.310        27
44.320        33
44.330        67
44.340        47
44.350        33
44.360        27
44.370        40
44.380        27
44.390        73
44.400        73
44.410        53
44.420        33
44.430        60
44.440        47
44.450        27
44.460        53
44.470        47
44.480        40
44.490        27
44.500        47
44.510        47
44.520        27
44.530        53
44.540        27
44.550        20
44.560        27
44.570        20
44.580         7
44.590        40
44.600        53
44.610        47
44.620        13
44.630        40
44.640        33
44.650        27
44.660        20
44.670        67
44.680        53
44.690        40
44.700        47
44.710        27
44.720        47
44.730        33
44.740        27
44.750        33
44.760        73
44.770        47
44.780        20
44.790        33
44.800        60
44.810        40
44.820        33
44.830        73
44.840        53
44.850        33
44.860        33
44.870        20
44.880        40
44.890        53
44.900        20
44.910        40
44.920        93
44.930         0
44.940        27
44.950        33
44.960        47
44.970        53
44.980        60
44.990        40
45.000        27
45.010        13
45.020         0
45.030        20
45.040        20
45.050        27
45.060        73
45.070        33
45.080        33
45.090        20
45.100        20
45.110        53
45.120        60
45.130        40
45.140        27
45.150        20
45.160        27
45.170        67
45.180        40
45.190        33
45.200        27
45.210        60
45.220        27
45.230        27
45.240        33
45.250        27
45.260        33
45.270        47
45.280        33
45.290        40
45.300        40
45.310        27
45.320        27
45.330        27
45.340        20
45.350        33
45.360        20
45.370        27
45.380        20
45.390        33
45.400        33
45.410         7
45.420        27
45.430        40
45.440        20
45.450        27
45.460        33
45.470        40
45.480        40
45.490        33
45.500        47
45.510        40
45.520        67
45.530        47
45.540        47
45.550        40
45.560        27
45.570        20
45.580        47
45.590        47
45.600        33
45.610        47
45.620         7
45.630        13
45.640        47
45.650        40
45.660        27
45.670        60
45.680        47
45.690        33
45.700        27
45.710        60
45.720        67
45.730        27
45.740        53
45.750        40
45.760        53
45.770        40
45.780        13
45.790        53
45.800        60
45.810        27
45.820        47
45.830        33
45.840        40
45.850        53
45.860        73
45.870        40
45.880        80
45.890        33
45.900        33
45.910        33
45.920        73
45.930        33
45.940        73
45.950        27
45.960        40
45.970        40
45.980        27
45.990        53
46.000        47
46.010        87
46.020        53
46.030        53
46.040        40
46.050        80
46.060        47
46.070        53
46.080        40
46.090        40
46.100        47
46.110        40
46.120        67
46.130        73
46.140        47
46.150        33
46.160        53
46.170        60
46.180        53
46.190        53
46.200        33
46.210        53
46.220        20
46.230        53
46.240        67
46.250        80
46.260        47
46.270        67
46.280        27
46.290        53
46.300        67
46.310        47
46.320        13
46.330        47
46.340        60
46.350        53
46.360        13
46.370        47
46.380        40
46.390        33
46.400        27
46.410        33
46.420        27
46.430        20
46.440        40
46.450        33
46.460        40
46.470        33
46.480        20
46.490        47
46.500        40
46.510        60
46.520        33
46.530        27
46.540        33
46.550        27
46.560        40
46.570        33
46.580        47
46.590        53
46.600        47
46.610        53
46.620        60
46.630        53
46.640        33
46.650        40
46.660        33
46.670        87
46.680        47
46.690        67
46.700        67
46.710        73
46.720        67
46.730        73
46.740        73
46.750        87
46.760        73
46.770        40
46.780        87
46.790        80
46.800        80
46.810       133
46.820        60
46.830       120
46.840       100
46.850       120
46.860       120
46.870        93
46.880       100
46.890        47
46.900       133
46.910        73
46.920       107
46.930       100
46.940       107
46.950        80
46.960       113
46.970        87
46.980       120
46.990       107
47.000       107
47.010       127
47.020       147
47.030       100
47.040       147
47.050       200
47.060       127
47.070       187
47.080       147
47.090       280
47.100       147
47.110       147
47.120       300
47.130       347
47.140       353
47.150       480
47.160       746
47.170       940
47.180      1233
47.190      1659
47.200      2019
47.210      2106
47.220      2212
47.230      1953
47.240      1953
47.250      1519
47.260      1259
47.270       873
47.280       680
47.290       493
47.300       267
47.310       320
47.320       207
47.330       280
47.340       213
47.350       193
47.360       133
47.370       127
47.380       167
47.390       133
47.400       160
47.410       160
47.420       120
47.430        73
47.440       120
47.450       113
47.460        73
47.470       140
47.480       100
47.490       113
47.500       167
47.510        80
47.520       120
47.530        47
47.540        40
47.550        67
47.560        73
47.570        80
47.580        73
47.590        80
47.600        73
47.610       127
47.620        73
47.630        93
47.640       100
47.650        33
47.660        47
47.670       113
47.680        73
47.690       107
47.700        73
47.710        73
47.720        53
47.730        53
47.740       100
47.750        73
47.760        73
47.770        67
47.780        47
47.790        53
47.800        87
47.810        93
47.820       120
47.830        93
47.840        87
47.850        80
47.860        47
47.870        73
47.880        53
47.890        47
47.900        13
47.910        33
47.920         7
47.930        47
47.940        73
47.950        33
47.960        73
47.970        80
47.980        20
47.990        53
48.000        73
48.010        53
48.020        33
48.030        60
48.040        53
48.050       100
48.060        53
48.070        67
48.080        80
48.090        73
48.100        67
48.110        67
48.120        33
48.130        47
48.140        67
48.150        67
48.160        67
48.170        40
48.180        40
48.190        40
48.200        53
48.210        93
48.220        80
48.230        60
48.240        87
48.250        47
48.260        40
48.270        60
48.280        33
48.290        27
48.300        27
48.310        40
48.320        67
48.330        20
48.340        47
48.350        40
48.360        53
48.370        47
48.380        47
48.390        67
48.400        93
48.410        33
48.420        60
48.430        73
48.440        53
48.450        80
48.460        27
48.470        53
48.480        73
48.490        60
48.500        40
48.510        73
48.520        73
48.530        33
48.540        53
48.550        87
48.560        27
48.570        33
48.580        53
48.590        60
48.600        27
48.610        47
48.620        60
48.630        73
48.640        40
48.650        73
48.660         7
48.670        27
48.680        60
48.690        53
48.700        40
48.710        73
48.720        67
48.730        40
48.740        67
48.750        60
48.760        60
48.770        40
48.780        27
48.790        73
48.800        40
48.810        27
48.820        87
48.830        47
48.840        40
48.850        33
48.860        20
48.870        47
48.880        60
48.890        73
48.900        47
48.910        20
48.920        13
48.930        47
48.940        40
48.950        53
48.960        53
48.970        27
48.980        47
48.990        33
49.000        33
49.010        27
49.020        73
49.030        73
49.040        47
49.050        67
49.060        33
49.070        47
49.080        73
49.090        53
49.100        27
49.110        40
49.120        60
49.130        60
49.140        40
49.150        73
49.160        33
49.170        47
49.180        33
49.190        53
49.200        33
49.210        40
49.220        20
49.230        40
49.240        67
49.250        47
49.260        33
49.270        47
49.280        60
49.290        40
49.300        27
49.310        60
49.320        60
49.330        40
49.340        60
49.350        33
49.360        53
49.370        33
49.380        47
49.390        60
49.400        40
49.410        27
49.420        20
49.430        67
49.440        87
49.450        67
49.460        47
49.470        33
49.480        67
49.490        20
49.500        20
49.510        73
49.520        27
49.530        40
49.540        53
49.550        60
49.560        33
49.570        40
49.580        67
49.590        20
49.600        40
49.610        33
49.620        27
49.630        47
49.640        47
49.650        27
49.660        53
49.670        53
49.680        40
49.690        47
49.700        53
49.710        33
49.720        33
49.730        53
49.740        47
49.750        53
49.760        13
49.770        33
49.780        20
49.790        53
49.800        47
49.810        40
49.820        60
49.830        47
49.840        27
49.850        60
49.860        93
49.870        73
49.880        53
49.890        33
49.900        47
49.910        40
49.920        67
49.930        53
49.940        53
49.950        60
49.960        67
49.970        27
49.980       113
49.990        87
50.000        47
50.010        93
50.020       120
50.030       100
50.040        80
50.050        93
50.060        67
50.070        73
50.080        53
50.090        67
50.100        80
50.110        33
50.120        60
50.130        73
50.140        47
50.150        53
50.160        67
50.170        40
50.180        53
50.190        67
50.200        40
50.210       100
50.220        53
50.230        60
50.240        93
50.250        67
50.260        47
50.270        33
50.280        40
50.290        33
50.300        53
50.310        87
50.320        40
50.330        20
50.340        20
50.350        40
50.360        53
50.370        33
50.380        47
50.390        60
50.400        80
50.410        67
50.420        53
50.430        47
50.440        53
50.450        40
50.460        40
50.470        27
50.480        53
50.490        60
50.500        33
50.510        53
50.520        60
50.530        53
50.540       220
50.550        60
50.560        93
50.570        47
50.580       100
50.590        80
50.600        60
50.610        67
50.620        93
50.630       113
50.640       167
50.650        80
50.660       187
50.670       187
50.680       227
50.690       327
50.700       367
50.710       380
50.720       400
50.730       453
50.740       407
50.750       500
50.760       500
50.770       553
50.780       466
50.790       420
50.800       500
50.810       500
50.820       633
50.830       593
50.840       573
50.850       473
50.860       600
50.870       513
50.880       500
50.890       606
50.900       606
50.910       566
50.920       633
50.930       486
50.940       520
50.950       566
50.960       600
50.970       606
50.980       500
50.990       500
51.000       586
51.010       566
51.020       533
51.030       566
51.040       580
51.050       440
51.060       506
51.070       613
51.080       540
51.090       526
51.100       653
51.110       460
51.120       566
51.130       513
51.140       460
51.150       673
51.160       573
51.170       566
51.180       460
51.190       520
51.200       493
51.210       500
51.220       533
51.230       626
51.240       460
51.250       486
51.260       533
51.270       553
51.280       573
51.290       446
51.300       613
51.310       446
51.320       513
51.330       533
51.340       500
51.350       540
51.360       566
51.370       466
51.380       520
51.390       453
51.400       553
51.410       566
51.420       580
51.430       606
51.440       606
51.450       620
51.460       506
51.470       586
51.480       533
51.490       686
51.500       506
51.510       573
51.520       633
51.530       480
51.540       486
51.550       553
51.560       560
51.570       700
51.580       586
51.590       546
51.600       613
51.610       606
51.620       580
51.630       566
51.640       780
51.650       600
51.660       593
51.670       626
51.680       733
51.690       700
51.700       426
51.710       580
51.720       660
51.730       620
51.740       620
51.750       653
51.760       573
51.770       533
51.780       600
51.790       633
51.800       473
51.810       586
51.820       560
51.830       606
51.840       800
51.850       660
51.860       573
51.870       740
51.880       646
51.890       686
51.900       600
51.910       646
51.920       746
51.930       733
51.940       740
51.950       713
51.960       686
51.970       693
51.980       820
51.990       626
52.000       800
52.010       673
52.020       746
52.030       680
52.040       726
52.050       740
52.060       833
52.070       833
52.080       900
52.090       693
52.100       986
52.110       853
52.120       980
52.130       920
52.140       926
52.150      1066
52.160      1006
52.170      1160
52.180       946
52.190      1146
52.200      1259
52.210      1386
52.220      1266
52.230      1273
52.240      1399
52.250      1333
52.260      1539
52.270      1599
52.280      2053
52.290      1999
52.300      2459
52.310      2746
52.320      2939
52.330      3459
52.340      4012
52.350      4598
52.360      5298
52.370      6178
52.380      7117
52.390      7617
52.400      8217
52.410      9849
52.420     10356
52.430     11455
52.440     11589
52.450     12335
52.460     12828
52.470     13521
52.480     14434
52.490     15634
52.500     17580
52.510     20345
52.520     23537
52.530     28489
52.540     37172
52.550     54945
52.560     84999
52.570    123651
52.580    161262
52.590    189378
52.600    204878
52.610    211769
52.620    210816
52.630    204205
52.640    178249
52.650    143323
52.660    103365
52.670     74077
52.680     57397
52.690     53685
52.700     62235
52.710     78795
52.720     99613
52.730    115227
52.740    123504
52.750    128395
52.760    127889
52.770    120092
52.780    102806
52.790     79562
52.800     55245
52.810     37098
52.820     25257
52.830     18832
52.840     13828
52.850     11709
52.860      9543
52.870      7870
52.880      7430
52.890      6071
52.900      5051
52.910      4618
52.920      3599
52.930      3365
52.940      3032
52.950      2732
52.960      2446
52.970      2486
52.980      2326
52.990      2159
53.000      2039
53.010      1706
53.020      1653
53.030      1786
53.040      1746
53.050      1773
53.060      1473
53.070      1619
53.080      1353
53.090      1419
53.100      1220
53.110      1200
53.120      1299
53.130      1020
53.140      1066
53.150      1173
53.160      1133
53.170       966
53.180       933
53.190      1046
53.200       940
53.210       933
53.220       906
53.230       866
53.240      1000
53.250       933
53.260       833
53.270       900
53.280       793
53.290       893
53.300       773
53.310       900
53.320       866
53.330       666
53.340       793
53.350       700
53.360       740
53.370       773
53.380       726
53.390       746
53.400       800
53.410       733
53.420       560
53.430       606
53.440       573
53.450       900
53.460       633
53.470       566
53.480       613
53.490       713
53.500       600
53.510       626
53.520       533
53.530       773
53.540       580
53.550       573
53.560       586
53.570       660
53.580       633
53.590       600
53.600       506
53.610       493
53.620       606
53.630       513
53.640       573
53.650       560
53.660       387
53.670       573
53.680       586
53.690       553
53.700       573
53.710       520
53.720       446
53.730       426
53.740       486
53.750       466
53.760       586
53.770       486
53.780       493
53.790       546
53.800       506
53.810       480
53.820       460
53.830       500
53.840       526
53.850       433
53.860       413
53.870       440
53.880       426
53.890       520
53.900       520
53.910       413
53.920       426
53.930       420
53.940       500
53.950       513
53.960       513
53.970       526
53.980       440
53.990       420
54.000       407
54.010       327
54.020       353
54.030       347
54.040       506
54.050       440
54.060       413
54.070       340
54.080       473
54.090       500
54.100       353
54.110       453
54.120       480
54.130       500
54.140       426
54.150       520
54.160       333
54.170       426
54.180       340
54.190       353
54.200       440
54.210       313
54.220       433
54.230       513
54.240       526
54.250       367
54.260       486
54.270       420
54.280       520
54.290       500
54.300       413
54.310       340
54.320       407
54.330       360
54.340       413
54.350       407
54.360       400
54.370       353
54.380       486
54.390       333
54.400       387
54.410       387
54.420       340
54.430       387
54.440       506
54.450       327
54.460       380
54.470       387
54.480       393
54.490       440
54.500       400
54.510       413
54.520       480
54.530       446
54.540       393
54.550       460
54.560       320
54.570       353
54.580       313
54.590       340
54.600       486
54.610       380
54.620       333
54.630       333
54.640       446
54.650       333
54.660       446
54.670       300
54.680       380
54.690       360
54.700       420
54.710       367
54.720       446
54.730       340
54.740       300
54.750       267
54.760       413
54.770       333
54.780       340
54.790       320
54.800       300
54.810       413
54.820       367
54.830       347
54.840       287
54.850       333
54.860       360
54.870       333
54.880       360
54.890       320
54.900       253
54.910       300
54.920       313
54.930       340
54.940       307
54.950       320
54.960       367
54.970       360
54.980       300
54.990       320
55.000       373
55.010       293
55.020       400
55.030       320
55.040       320
55.050       300
55.060       280
55.070       360
55.080       327
55.090       320
55.100       300
55.110       367
55.120       360
55.130       340
55.140       293
55.150       300
55.160       313
55.170       353
55.180       320
55.190       393
55.200       327
55.210       287
55.220       313
55.230       320
55.240       340
55.250       300
55.260       327
55.270       207
55.280       307
55.290       293
55.300       287
55.310       240
55.320       220
55.330       313
55.340       273
55.350       340
55.360       340
55.370       220
55.380       327
55.390       367
55.400       320
55.410       213
55.420       227
55.430       260
55.440       313
55.450       360
55.460       260
55.470       287
55.480       333
55.490       373
55.500       300
55.510       260
55.520       253
55.530       293
55.540       253
55.550       273
55.560       327
55.570       333
55.580       267
55.590       340
55.600       280
55.610       340
55.620       267
55.630       300
55.640       247
55.650       247
55.660       313
55.670       253
55.680       280
55.690       360
55.700       393
55.710       253
55.720       353
55.730       340
55.740       240
55.750       267
55.760       373
55.770       220
55.780       260
55.790       267
55.800       207
55.810       307
55.820       307
55.830       333
55.840       280
55.850       280
55.860       273
55.870       260
55.880       240
55.890       280
55.900       233
55.910       300
55.920       253
55.930       313
55.940       280
55.950       273
55.960       233
55.970       307
55.980       240
55.990       300
56.000       273
56.010       307
56.020       233
56.030       340
56.040       213
56.050       253
56.060       227
56.070       287
56.080       240
56.090       207
56.100       267
56.110       293
56.120       247
56.130       280
56.140       300
56.150       233
56.160       340
56.170       327
56.180       220
56.190       260
56.200       233
56.210       273
56.220       340
56.230       300
56.240       333
56.250       280
56.260       307
56.270       167
56.280       213
56.290       280
56.300       220
56.310       180
56.320       247
56.330       240
56.340       267
56.350       373
56.360       187
56.370       260
56.380       247
56.390       247
56.400       253
56.410       193
56.420       307
56.430       207
56.440       333
56.450       233
56.460       213
56.470       300
56.480       293
56.490       273
56.500       267
56.510       247
56.520       287
56.530       253
56.540       253
56.550       227
56.560       240
56.570       247
56.580       207
56.590       247
56.600       280
56.610       280
56.620       320
56.630       220
56.640       207
56.650       273
56.660       207
56.670       280
56.680       267
56.690       227
56.700       193
56.710       193
56.720       213
56.730       200
56.740       300
56.750       280
56.760       213
56.770       200
56.780       180
56.790       220
56.800       187
56.810       213
56.820       253
56.830       247
56.840       280
56.850       227
56.860       160
56.870       133
56.880       233
56.890       280
56.900       207
56.910       233
56.920       200
56.930       253
56.940       200
56.950       273
56.960       293
56.970       280
56.980       207
56.990       227
57.000       173
57.010       247
57.020       240
57.030       213
57.040       247
57.050       153
57.060       253
57.070       193
57.080       193
57.090       167
57.100       233
57.110       213
57.120       193
57.130       227
57.140       280
57.150       280
57.160       247
57.170       240
57.180       253
57.190       193
57.200       260
57.210       220
57.220       180
57.230       247
57.240       173
57.250       293
57.260       240
57.270       273
57.280       207
57.290       320
57.300       220
57.310       167
57.320       233
57.330       280
57.340       200
57.350       253
57.360       220
57.370       173
57.380       207
57.390       227
57.400       260
57.410       227
57.420       260
57.430       193
57.440       247
57.450       147
57.460       207
57.470       220
57.480       273
57.490       167
57.500       160
57.510       287
57.520       267
57.530       227
57.540       260
57.550       200
57.560       273
57.570       200
57.580       200
57.590       213
57.600       233
57.610       233
57.620       207
57.630       200
57.640       273
57.650       240
57.660       233
57.670       220
57.680       200
57.690       273
57.700       207
57.710       247
57.720       207
57.730       253
57.740       240
57.750       300
57.760       200
57.770       247
57.780       187
57.790       180
57.800       193
57.810       220
57.820       313
57.830       200
57.840       247
57.850       200
57.860       253
57.870       227
57.880       247
57.890       173
57.900       280
57.910       227
57.920       200
57.930       173
57.940       287
57.950       180
57.960       213
57.970       227
57.980       273
57.990       207
58.000       213
58.010       193
58.020       180
58.030       260
58.040       153
58.050       153
58.060       193
58.070       160
58.080       160
58.090       200
58.100       193
58.110       307
58.120       260
58.130       260
58.140       247
58.150       140
58.160       173
58.170       267
58.180       260
58.190       193
58.200       220
58.210       160
58.220       220
58.230       147
58.240       193
58.250       193
58.260       187
58.270       167
58.280       200
58.290       140
58.300       160
58.310       247
58.320       207
58.330       160
58.340       207
58.350       193
58.360       233
58.370       213
58.380       173
58.390       147
58.400       213
58.410       193
58.420       233
58.430       160
58.440       187
58.450       220
58.460       173
58.470       207
58.480       233
58.490       180
58.500       107
58.510       253
58.520       200
58.530       207
58.540       140
58.550       173
58.560       153
58.570       153
58.580       220
58.590       213
58.600       180
58.610       147
58.620       173
58.630       240
58.640       193
58.650       200
58.660       200
58.670       153
58.680       207
58.690       160
58.700       220
58.710       167
58.720       180
58.730       240
58.740       187
58.750       213
58.760       220
58.770       180
58.780       193
58.790       247
58.800       193
58.810       127
58.820       153
58.830       160
58.840       180
58.850       100
58.860       127
58.870       227
58.880       140
58.890       227
58.900       140
58.910       160
58.920       220
58.930       160
58.940       160
58.950       180
58.960       187
58.970       160
58.980       173
58.990       160
59.000       213
59.010       147
59.020       173
59.030       160
59.040       213
59.050       160
59.060       187
59.070       160
59.080       187
59.090       147
59.100       193
59.110       240
59.120       180
59.130       213
59.140       233
59.150       193
59.160       200
59.170       160
59.180       180
59.190       113
59.200       173
59.210       173
59.220       160
59.230       207
59.240       173
59.250       120
59.260       193
59.270       173
59.280       173
59.290       127
59.300       207
59.310       167
59.320       220
59.330       260
59.340       113
59.350       160
59.360       193
59.370       120
59.380       140
59.390        87
59.400       167
59.410       200
59.420       193
59.430       173
59.440       140
59.450       147
59.460       220
59.470       133
59.480       153
59.490       133
59.500       180
59.510       227
59.520       127
59.530       207
59.540       140
59.550       147
59.560       173
59.570       120
59.580       140
59.590       200
59.600       153
59.610       207
59.620       147
59.630       200
59.640       207
59.650       180
59.660       127
59.670       207
59.680       180
59.690       147
59.700       167
59.710       193
59.720       140
59.730       193
59.740       133
59.750       153
59.760       140
59.770       107
59.780       193
59.790       167
59.800       160
59.810       153
59.820       187
59.830       167
59.840       153
59.850       113
59.860       140
59.870       140
59.880       120
59.890       133
59.900       173
59.910       180
59.920       133
59.930       227
59.940       180
59.950       147
59.960       180
59.970       207
59.980       120
59.990       133
60.000       193
