20.000       113
20.010        87
20.020       120
20.030       167
20.040        87
20.050       113
20.060       107
20.070       113
20.080       120
20.090       173
20.100       113
20.110       113
20.120       113
20.130       133
20.140        80
20.150       127
20.160       113
20.170       147
20.180       113
20.190       107
20.200       100
20.210       113
20.220        93
20.230        93
20.240       127
20.250        93
20.260       127
20.270       153
20.280       140
20.290       133
20.300        73
20.310        87
20.320       113
20.330        87
20.340        67
20.350       113
20.360       140
20.370        87
20.380        73
20.390       127
20.400       120
20.410       113
20.420       100
20.430       120
20.440        87
20.450        93
20.460       173
20.470       113
20.480       153
20.490       200
20.500        93
20.510       100
20.520       120
20.530       127
20.540       147
20.550        87
20.560        80
20.570       167
20.580       127
20.590        87
20.600       100
20.610        93
20.620       153
20.630       127
20.640       107
20.650        73
20.660       153
20.670       113
20.680       113
20.690        87
20.700       113
20.710       153
20.720       113
20.730        73
20.740       133
20.750       153
20.760       113
20.770        73
20.780        60
20.790       180
20.800       147
20.810       133
20.820        80
20.830       193
20.840        80
20.850       153
20.860        93
20.870       140
20.880        80
20.890        67
20.900        80
20.910       147
20.920       120
20.930       127
20.940        93
20.950       127
20.960       107
20.970       147
20.980       100
20.990       133
21.000       120
21.010       120
21.020        87
21.030       173
21.040       120
21.050       113
21.060        73
21.070       140
21.080       107
21.090       113
21.100       133
21.110        93
21.120       133
21.130       113
21.140       107
21.150        87
21.160        87
21.170       133
21.180       127
21.190       113
21.200        80
21.210       120
21.220        93
21.230       140
21.240       100
21.250       120
21.260       140
21.270       107
21.280       107
21.290        67
21.300       127
21.310       100
21.320       113
21.330       113
21.340       140
21.350       127
21.360       107
21.370       113
21.380        80
21.390       120
21.400       127
21.410       107
21.420       107
21.430       147
21.440       113
21.450       120
21.460        87
21.470       107
21.480        60
21.490        87
21.500        87
21.510       147
21.520       133
21.530       100
21.540        80
21.550        73
21.560       113
21.570       147
21.580       180
21.590       120
21.600       160
21.610       127
21.620       107
21.630       180
21.640       173
21.650       107
21.660       107
21.670       113
21.680       127
21.690       160
21.700       107
21.710       127
21.720        80
21.730        73
21.740       113
21.750       160
21.760       153
21.770       120
21.780       173
21.790       193
21.800       133
21.810       200
21.820       107
21.830       153
21.840       100
21.850       113
21.860        87
21.870       133
21.880       207
21.890       120
21.900       153
21.910       127
21.920       133
21.930       160
21.940       147
21.950       100
21.960       167
21.970       147
21.980       193
21.990       233
22.000        87
22.010       127
22.020       133
22.030       147
22.040       133
22.050       113
22.060       140
22.070       153
22.080       187
22.090       133
22.100       127
22.110       147
22.120        93
22.130       113
22.140       200
22.150       153
22.160       133
22.170       160
22.180       120
22.190       147
22.200       133
22.210       140
22.220       147
22.230       167
22.240       233
22.250       120
22.260       120
22.270       180
22.280       127
22.290       120
22.300       180
22.310       120
22.320       120
22.330       113
22.340       100
22.350       147
22.360       113
22.370       147
22.380       160
22.390       153
22.400       167
22.410       173
22.420       173
22.430       227
22.440       173
22.450       167
22.460       153
22.470       220
22.480       180
22.490       147
22.500       213
22.510       167
22.520       153
22.530       173
22.540       147
22.550       147
22.560       180
22.570       127
22.580       160
22.590       153
22.600       173
22.610       247
22.620       167
22.630       187
22.640       147
22.650       160
22.660       187
22.670       153
22.680       180
22.690       153
22.700       140
22.710       160
22.720       133
22.730       173
22.740       173
22.750       180
22.760       167
22.770       187
22.780       127
22.790       253
22.800       200
22.810       227
22.820       233
22.830       213
22.840       187
22.850       187
22.860       193
22.870       213
22.880       240
22.890       227
22.900       227
22.910       300
22.920       233
22.930       320
22.940       253
22.950       333
22.960       280
22.970       340
22.980       240
22.990       293
23.000       287
23.010       320
23.020       313
23.030       320
23.040       426
23.050       793
23.060      1066
23.070      1486
23.080      1853
23.090      2026
23.100      2066
23.110      2106
23.120      1893
23.130      1746
23.140      1313
23.150       726
23.160       540
23.170       340
23.180       360
23.190       280
23.200       380
23.210       426
23.220       293
23.230       267
23.240       227
23.250       307
23.260       273
23.270       273
23.280       187
23.290       213
23.300       320
23.310       267
23.320       193
23.330       240
23.340       287
23.350       213
23.360       160
23.370       200
23.380       167
23.390       207
23.400       173
23.410       267
23.420       220
23.430       247
23.440       167
23.450       213
23.460       200
23.470       313
23.480       180
23.490       273
23.500       193
23.510       267
23.520       267
23.530       233
23.540       193
23.550       267
23.560       233
23.570       240
23.580       220
23.590       227
23.600       213
23.610       240
23.620       200
23.630       173
23.640       280
23.650       280
23.660       180
23.670       227
23.680       240
23.690       287
23.700       247
23.710       247
23.720       213
23.730       187
23.740       207
23.750       253
23.760       200
23.770       227
23.780       233
23.790       200
23.800       240
23.810       167
23.820       173
23.830       220
23.840       260
23.850       180
23.860       153
23.870       180
23.880       220
23.890       187
23.900       233
23.910       233
23.920       213
23.930       307
23.940       213
23.950       193
23.960       173
23.970       300
23.980       187
23.990       213
24.000       200
24.010       240
24.020       167
24.030       227
24.040       180
24.050       253
24.060       287
24.070       213
24.080       193
24.090       253
24.100       200
24.110       213
24.120       287
24.130       173
24.140       140
24.150       193
24.160       220
24.170       193
24.180       200
24.190       193
24.200       147
24.210       140
24.220       187
24.230       227
24.240       173
24.250       180
24.260       207
24.270       193
24.280       293
24.290       180
24.300       173
24.310       213
24.320       193
24.330       247
24.340       227
24.350       173
24.360       167
24.370       253
24.380       200
24.390       213
24.400       187
24.410       187
24.420       200
24.430       193
24.440       180
24.450       267
24.460       187
24.470       187
24.480       160
24.490       173
24.500       207
24.510       233
24.520       247
24.530       167
24.540       167
24.550       240
24.560       260
24.570       220
24.580       247
24.590       260
24.600       200
24.610       247
24.620       147
24.630       180
24.640       207
24.650       247
24.660       260
24.670       287
24.680       327
24.690       407
24.700       460
24.710       473
24.720       646
24.730       793
24.740       706
24.750       993
24.760       893
24.770       973
24.780       920
24.790       920
24.800       966
24.810      1013
24.820       986
24.830      1080
24.840       986
24.850      1000
24.860       853
24.870       866
24.880      1066
24.890      1120
24.900       966
24.910      1046
24.920       820
24.930       906
24.940      1106
24.950       893
24.960      1020
24.970       920
24.980      1080
24.990      1093
25.000       893
25.010      1066
25.020       946
25.030       993
25.040      1180
25.050       953
25.060      1026
25.070      1020
25.080      1013
25.090      1206
25.100       980
25.110      1040
25.120       940
25.130      1126
25.140      1066
25.150      1060
25.160       966
25.170      1006
25.180      1193
25.190      1120
25.200      1146
25.210      1160
25.220      1026
25.230      1066
25.240      1013
25.250      1213
25.260      1133
25.270      1459
25.280      1160
25.290      1373
25.300      1579
25.310      1393
25.320      1339
25.330      1506
25.340      1513
25.350      1513
25.360      1639
25.370      1719
25.380      2279
25.390      2945
25.400      3472
25.410      4671
25.420      4991
25.430      6184
25.440      7564
25.450      8670
25.460     10542
25.470     11102
25.480     12062
25.490     13568
25.500     13941
25.510     15354
25.520     18506
25.530     21591
25.540     32900
25.550     59383
25.560    103659
25.570    146408
25.580    176030
25.590    187645
25.600    191450
25.610    194322
25.620    196768
25.630    186372
25.640    167027
25.650    142676
25.660    126983
25.670    121865
25.680    114408
25.690    100693
25.700     76076
25.710     49993
25.720     29935
25.730     20525
25.740     16040
25.750     14501
25.760     12448
25.770     10676
25.780     10169
25.790      8023
25.800      6844
25.810      5591
25.820      5045
25.830      4798
25.840      3519
25.850      3145
25.860      2352
25.870      1993
25.880      1979
25.890      1746
25.900      1873
25.910      1726
25.920      1659
25.930      1413
25.940      1299
25.950      1433
25.960      1439
25.970      1366
25.980      1306
25.990      1173
26.000      1273
26.010      1273
26.020      1233
26.030      1120
26.040      1106
26.050      1106
26.060      1126
26.070      1140
26.080      1060
26.090      1140
26.100      1200
26.110      1200
26.120      1060
26.130       993
26.140      1120
26.150       973
26.160      1040
26.170       940
26.180       873
26.190       973
26.200       940
26.210      1000
26.220       953
26.230       920
26.240       786
26.250       873
26.260       860
26.270       973
26.280       900
26.290       780
26.300       866
26.310       900
26.320       780
26.330       806
26.340       873
26.350       740
26.360       846
26.370       906
26.380       860
26.390       826
26.400       946
26.410       853
26.420       753
26.430       806
26.440       700
26.450       740
26.460       940
26.470       880
26.480       826
26.490       960
26.500       666
26.510       693
26.520       746
26.530       920
26.540       646
26.550       826
26.560       826
26.570       800
26.580       740
26.590       866
26.600       820
26.610       746
26.620       793
26.630       880
26.640       620
26.650       766
26.660       760
26.670       773
26.680       780
26.690       846
26.700       726
26.710       640
26.720       760
26.730       780
26.740       800
26.750       686
26.760       700
26.770       673
26.780       700
26.790       726
26.800       720
26.810       633
26.820       806
26.830       660
26.840       660
26.850       880
26.860       740
26.870       713
26.880       606
26.890       673
26.900       640
26.910       673
26.920       633
26.930       666
26.940       693
26.950       673
26.960       713
26.970       606
26.980       813
26.990       773
27.000       640
27.010       546
27.020       673
27.030       613
27.040       706
27.050       586
27.060       620
27.070       640
27.080       700
27.090       660
27.100       666
27.110       660
27.120       573
27.130       560
27.140       606
27.150       660
27.160       593
27.170       580
27.180       660
27.190       640
27.200       680
27.210       473
27.220       626
27.230       606
27.240       653
27.250       713
27.260       666
27.270       600
27.280       560
27.290       673
27.300       693
27.310       506
27.320       526
27.330       593
27.340       586
27.350       540
27.360       686
27.370       626
27.380       566
27.390       573
27.400       526
27.410       560
27.420       580
27.430       646
27.440       686
27.450       606
27.460       646
27.470       520
27.480       653
27.490       513
27.500       640
27.510       540
27.520       753
27.530       646
27.540       640
27.550       486
27.560       580
27.570       560
27.580       593
27.590       620
27.600       673
27.610       653
27.620       520
27.630       613
27.640       613
27.650       540
27.660       533
27.670       566
27.680       546
27.690       613
27.700       520
27.710       593
27.720       546
27.730       573
27.740       580
27.750       560
27.760       693
27.770       626
27.780       560
27.790       653
27.800       566
27.810       500
27.820       500
27.830       560
27.840       533
27.850       593
27.860       620
27.870       586
27.880       566
27.890       533
27.900       640
27.910       566
27.920       533
27.930       520
27.940       480
27.950       546
27.960       553
27.970       573
27.980       553
27.990       540
28.000       593
28.010       580
28.020       553
28.030       560
28.040       506
28.050       586
28.060       646
28.070       713
28.080       540
28.090       486
28.100       573
28.110       520
28.120       533
28.130       620
28.140       573
28.150       473
28.160       546
28.170       407
28.180       440
28.190       413
28.200       387
28.210       500
28.220       420
28.230       480
28.240       526
28.250       613
28.260       540
28.270       460
28.280       546
28.290       546
28.300       460
28.310       633
28.320       493
28.330       646
28.340       620
28.350       560
28.360       580
28.370       526
28.380       586
28.390       446
28.400       387
28.410       513
28.420       540
28.430       540
28.440       593
28.450       533
28.460       566
28.470       493
28.480       433
28.490       466
28.500       446
28.510       506
28.520       520
28.530       426
28.540       433
28.550       446
28.560       526
28.570       540
28.580       546
28.590       506
28.600       620
28.610       573
28.620       453
28.630       506
28.640       560
28.650       446
28.660       367
28.670       573
28.680       520
28.690       593
28.700       640
28.710       646
28.720       506
28.730       646
28.740       573
28.750       500
28.760       626
28.770       640
28.780       620
28.790       580
28.800       640
28.810       746
28.820       626
28.830       613
28.840       620
28.850       533
28.860       506
28.870       646
28.880       686
28.890       640
28.900       673
28.910       626
28.920       606
28.930       706
28.940       673
28.950       700
28.960       666
28.970       633
28.980       506
28.990       560
29.000       713
29.010       533
29.020       480
29.030       593
29.040       626
29.050       407
29.060       613
29.070       606
29.080       633
29.090       486
29.100       520
29.110       420
29.120       633
29.130       486
29.140       500
29.150       520
29.160       526
29.170       473
29.180       500
29.190       486
29.200       393
29.210       433
29.220       486
29.230       460
29.240       633
29.250       473
29.260       433
29.270       500
29.280       546
29.290       540
29.300       526
29.310       560
29.320       453
29.330       520
29.340       380
29.350       440
29.360       446
29.370       426
29.380       473
29.390       420
29.400       453
29.410       393
29.420       466
29.430       460
29.440       420
29.450       353
29.460       373
29.470       446
29.480       466
29.490       486
29.500       393
29.510       380
29.520       486
29.530       400
29.540       466
29.550       533
29.560       433
29.570       460
29.580       520
29.590       506
29.600       460
29.610       413
29.620       446
29.630       387
29.640       420
29.650       433
29.660       426
29.670       426
29.680       473
29.690       420
29.700       440
29.710       440
29.720       460
29.730       433
29.740       440
29.750       420
29.760       407
29.770       367
29.780       347
29.790       413
29.800       480
29.810       433
29.820       486
29.830       460
29.840       407
29.850       446
29.860       433
29.870       440
29.880       360
29.890       353
29.900       400
29.910       407
29.920       393
29.930       293
29.940       413
29.950       393
29.960       407
29.970       526
29.980       373
29.990       466
30.000       387
30.010       373
30.020       347
30.030       466
30.040       420
30.050       387
30.060       387
30.070       400
30.080       307
30.090       387
30.100       367
30.110       353
30.120       320
30.130       307
30.140       446
30.150       373
30.160       433
30.170       413
30.180       360
30.190       313
30.200       327
30.210       367
30.220       313
30.230       347
30.240       320
30.250       327
30.260       347
30.270       320
30.280       373
30.290       380
30.300       387
30.310       340
30.320       380
30.330       347
30.340       460
30.350       333
30.360       293
30.370       327
30.380       433
30.390       340
30.400       420
30.410       253
30.420       333
30.430       367
30.440       453
30.450       300
30.460       446
30.470       307
30.480       380
30.490       353
30.500       280
30.510       247
30.520       373
30.530       313
30.540       320
30.550       400
30.560       353
30.570       460
30.580       407
30.590       353
30.600       333
30.610       293
30.620       287
30.630       426
30.640       393
30.650       400
30.660       347
30.670       426
30.680       320
30.690       360
30.700       313
30.710       347
30.720       327
30.730       353
30.740       407
30.750       347
30.760       347
30.770       387
30.780       333
30.790       333
30.800       360
30.810       380
30.820       313
30.830       307
30.840       260
30.850       327
30.860       293
30.870       300
30.880       413
30.890       300
30.900       353
30.910       293
30.920       373
30.930       273
30.940       333
30.950       360
30.960       273
30.970       253
30.980       327
30.990       160
31.000       300
31.010       367
31.020       367
31.030       347
31.040       307
31.050       393
31.060       267
31.070       293
31.080       340
31.090       327
31.100       353
31.110       320
31.120       413
31.130       293
31.140       393
31.150       327
31.160       460
31.170       360
31.180       400
31.190       327
31.200       307
31.210       273
31.220       420
31.230       367
31.240       347
31.250       293
31.260       313
31.270       267
31.280       433
31.290       280
31.300       347
31.310       320
31.320       340
31.330       367
31.340       360
31.350       393
31.360       380
31.370       313
31.380       327
31.390       280
31.400       293
31.410       320
31.420       213
31.430       300
31.440       327
31.450       307
31.460       287
31.470       260
31.480       300
31.490       273
31.500       393
31.510       313
31.520       253
31.530       287
31.540       227
31.550       293
31.560       333
31.570       233
31.580       267
31.590       367
31.600       327
31.610       260
31.620       300
31.630       320
31.640       340
31.650       373
31.660       293
31.670       267
31.680       293
31.690       287
31.700       260
31.710       367
31.720       287
31.730       260
31.740       227
31.750       207
31.760       293
31.770       200
31.780       313
31.790       260
31.800       247
31.810       267
31.820       273
31.830       307
31.840       300
31.850       273
31.860       280
31.870       333
31.880       280
31.890       233
31.900       207
31.910       273
31.920       307
31.930       253
31.940       260
31.950       240
31.960       273
31.970       247
31.980       247
31.990       280
32.000       313
32.010       253
32.020       313
32.030       227
32.040       280
32.050       207
32.060       233
32.070       280
32.080       307
32.090       320
32.100       320
32.110       207
32.120       333
32.130       200
32.140       253
32.150       373
32.160       240
32.170       347
32.180       240
32.190       220
32.200       220
32.210       280
32.220       287
32.230       247
32.240       247
32.250       313
32.260       287
32.270       360
32.280       260
32.290       253
32.300       293
32.310       273
32.320       220
32.330       287
32.340       247
32.350       333
32.360       293
32.370       320
32.380       267
32.390       333
32.400       280
32.410       220
32.420       293
32.430       333
32.440       320
32.450       267
32.460       240
32.470       193
32.480       407
32.490       273
32.500       280
32.510       267
32.520       280
32.530       293
32.540       200
32.550       207
32.560       253
32.570       213
32.580       220
32.590       213
32.600       260
32.610       240
32.620       287
32.630       233
32.640       200
32.650       347
32.660       253
32.670       320
32.680       193
32.690       227
32.700       307
32.710       287
32.720       227
32.730       213
32.740       220
32.750       240
32.760       233
32.770       240
32.780       213
32.790       240
32.800       227
32.810       247
32.820       233
32.830       207
32.840       247
32.850       180
32.860       273
32.870       267
32.880       267
32.890       273
32.900       260
32.910       227
32.920       207
32.930       207
32.940       247
32.950       280
32.960       240
32.970       193
32.980       273
32.990       213
33.000       213
33.010       213
33.020       233
33.030       227
33.040       167
33.050       167
33.060       240
33.070       213
33.080       173
33.090       140
33.100       247
33.110       193
33.120       207
33.130       240
33.140       220
33.150       147
33.160       180
33.170       227
33.180       187
33.190       227
33.200       140
33.210       187
33.220       153
33.230       240
33.240       193
33.250       213
33.260       167
33.270       187
33.280       307
33.290       160
33.300       180
33.310       220
33.320       307
33.330       207
33.340       213
33.350       187
33.360       173
33.370       180
33.380       213
33.390       240
33.400       207
33.410       213
33.420       173
33.430       167
33.440       240
33.450       213
33.460       267
33.470       220
33.480       200
33.490       267
33.500       227
33.510       220
33.520       193
33.530       180
33.540       173
33.550       220
33.560       167
33.570       273
33.580       173
33.590       160
33.600       173
33.610       273
33.620       253
33.630       133
33.640       240
33.650       187
33.660       220
33.670       180
33.680       260
33.690       173
33.700       173
33.710       227
33.720       187
33.730       247
33.740       173
33.750       120
33.760       147
33.770       147
33.780       233
33.790       193
33.800       187
33.810       180
33.820       220
33.830       207
33.840       180
33.850       167
33.860       160
33.870       140
33.880       187
33.890       213
33.900       187
33.910       187
33.920       247
33.930       247
33.940       140
33.950       187
33.960       160
33.970       187
33.980       293
33.990       167
34.000       207
34.010       193
34.020       160
34.030       187
34.040       200
34.050       247
34.060       160
34.070       227
34.080       153
34.090       140
34.100       193
34.110       133
34.120       127
34.130       187
34.140       160
34.150       140
34.160       167
34.170       160
34.180       267
34.190        93
34.200       200
34.210       187
34.220       120
34.230       173
34.240       180
34.250       207
34.260       140
34.270        93
34.280       160
34.290       160
34.300       213
34.310       220
34.320       153
34.330       160
34.340       180
34.350       193
34.360       167
34.370       167
34.380       167
34.390       200
34.400       140
34.410       140
34.420       127
34.430       133
34.440       167
34.450       173
34.460       153
34.470       227
34.480       127
34.490       200
34.500       167
34.510       127
34.520       193
34.530       193
34.540       167
34.550       227
34.560       140
34.570       140
34.580       180
34.590       187
34.600       200
34.610       173
34.620       140
34.630       213
34.640       207
34.650       120
34.660       247
34.670       173
34.680       113
34.690       167
34.700       233
34.710       207
34.720       153
34.730       187
34.740       127
34.750       180
34.760       100
34.770       140
34.780       213
34.790       187
34.800       153
34.810       180
34.820       153
34.830       147
34.840       120
34.850       147
34.860       107
34.870       187
34.880       187
34.890       153
34.900       220
34.910       127
34.920       133
34.930       113
34.940       140
34.950       180
34.960       113
34.970       120
34.980       173
34.990       173
35.000       180
35.010       180
35.020       180
35.030       173
35.040       107
35.050       147
35.060       147
35.070       140
35.080       113
35.090       187
35.100       147
35.110       127
35.120        80
35.130       147
35.140       180
35.150       167
35.160       100
35.170       153
35.180       167
35.190       133
35.200       160
35.210       160
35.220       140
35.230       173
35.240       120
35.250       127
35.260       107
35.270       147
35.280       180
35.290       133
35.300       180
35.310       153
35.320       160
35.330       127
35.340       120
35.350       147
35.360        93
35.370       127
35.380       167
35.390       153
35.400       127
35.410        80
35.420       147
35.430       153
35.440        73
35.450       180
35.460        93
35.470       127
35.480       113
35.490        87
35.500       193
35.510       140
35.520       147
35.530        93
35.540       113
35.550       107
35.560       120
35.570       147
35.580       147
35.590       113
35.600       100
35.610       107
35.620       147
35.630       100
35.640       140
35.650       107
35.660        67
35.670       113
35.680       100
35.690       200
35.700       133
35.710       120
35.720       107
35.730       180
35.740        67
35.750       180
35.760       113
35.770       120
35.780       140
35.790       133
35.800       100
35.810       120
35.820       127
35.830       180
35.840       140
35.850       120
35.860       127
35.870       153
35.880       153
35.890       120
35.900       140
35.910       100
35.920        87
35.930       120
35.940        93
35.950        80
35.960        93
35.970       133
35.980       127
35.990       200
36.000       140
36.010       133
36.020       160
36.030       153
36.040       180
36.050       160
36.060        73
36.070       120
36.080       113
36.090       113
36.100       207
36.110       120
36.120       107
36.130       120
36.140        93
36.150        93
36.160        73
36.170       120
36.180       113
36.190       207
36.200       113
36.210       133
36.220        87
36.230        93
36.240       113
36.250        93
36.260       100
36.270       140
36.280       173
36.290       193
36.300       120
36.310       113
36.320       140
36.330       107
36.340       100
36.350        87
36.360       153
36.370       147
36.380        67
36.390       107
36.400       167
36.410       113
36.420       113
36.430       153
36.440       113
36.450        80
36.460       113
36.470       113
36.480       107
36.490       120
36.500       107
36.510        80
36.520        93
36.530       113
36.540       160
36.550       167
36.560       153
36.570       113
36.580        73
36.590       153
36.600        87
36.610       173
36.620        87
36.630        80
36.640       127
36.650       147
36.660       113
36.670        87
36.680        53
36.690       140
36.700       100
36.710       113
36.720       120
36.730       160
36.740        93
36.750        87
36.760       140
36.770       100
36.780       153
36.790       100
36.800        93
36.810        93
36.820        87
36.830        87
36.840       113
36.850       100
36.860       107
36.870       100
36.880       160
36.890        53
36.900       120
36.910        80
36.920        93
36.930        93
36.940        80
36.950       147
36.960       107
36.970       107
36.980       100
36.990        73
37.000        60
37.010        67
37.020       140
37.030       107
37.040        87
37.050       167
37.060        47
37.070       127
37.080        73
37.090       100
37.100        73
37.110        93
37.120        87
37.130        67
37.140       133
37.150       120
37.160        87
37.170       113
37.180        67
37.190       100
37.200       113
37.210       120
37.220       107
37.230       100
37.240       127
37.250       120
37.260       127
37.270        93
37.280        87
37.290       140
37.300        67
37.310        80
37.320       127
37.330        93
37.340        87
37.350        93
37.360        93
37.370        93
37.380        87
37.390       147
37.400       147
37.410       100
37.420       140
37.430       100
37.440        80
37.450        87
37.460       113
37.470        87
37.480       133
37.490       107
37.500       120
37.510       107
37.520        80
37.530       127
37.540       107
37.550       127
37.560       113
37.570       127
37.580       113
37.590       100
37.600       100
37.610        93
37.620        73
37.630       113
37.640       100
37.650       133
37.660       120
37.670       107
37.680        93
37.690        87
37.700        53
37.710       133
37.720        60
37.730       100
37.740        73
37.750        87
37.760        47
37.770        93
37.780        80
37.790        80
37.800        87
37.810        93
37.820       107
37.830        93
37.840        53
37.850       100
37.860       100
37.870        87
37.880       153
37.890       107
37.900        80
37.910       107
37.920       107
37.930        87
37.940       120
37.950        60
37.960        80
37.970        60
37.980       100
37.990        33
38.000        87
38.010        80
38.020        67
38.030        93
38.040       100
38.050        73
38.060        73
38.070       100
38.080        93
38.090        80
38.100       100
38.110        87
38.120        67
38.130       120
38.140       100
38.150        87
38.160        33
38.170        93
38.180        47
38.190        67
38.200        73
38.210       107
38.220        60
38.230       113
38.240        67
38.250       107
38.260       113
38.270        87
38.280        53
38.290        93
38.300        53
38.310        93
38.320        87
38.330       107
38.340        73
38.350        93
38.360        53
38.370       100
38.380        87
38.390        53
38.400        53
38.410       100
38.420        80
38.430        93
38.440        87
38.450       100
38.460        60
38.470       127
38.480       107
38.490        73
38.500        67
38.510        80
38.520        87
38.530        67
38.540       107
38.550        93
38.560       107
38.570        73
38.580       120
38.590       100
38.600        73
38.610        60
38.620        93
38.630        40
38.640        80
38.650        87
38.660        60
38.670        80
38.680        67
38.690        80
38.700        80
38.710        53
38.720        60
38.730        93
38.740        40
38.750        67
38.760        87
38.770       107
38.780        87
38.790        53
38.800        80
38.810        60
38.820       100
38.830        73
38.840        60
38.850        60
38.860        40
38.870        60
38.880       100
38.890        67
38.900       100
38.910       127
38.920        73
38.930        73
38.940        33
38.950        47
38.960        53
38.970        87
38.980        60
38.990        73
39.000        60
39.010        80
39.020        93
39.030        53
39.040       107
39.050        80
39.060        87
39.070        47
39.080        87
39.090        40
39.100        73
39.110        93
39.120        60
39.130        80
39.140       107
39.150        67
39.160        40
39.170        87
39.180        73
39.190        73
39.200        53
39.210        80
39.220        73
39.230       113
39.240        80
39.250        87
39.260        67
39.270        87
39.280        60
39.290        60
39.300       107
39.310        60
39.320        93
39.330        80
39.340        40
39.350        53
39.360        40
39.370        80
39.380        47
39.390        53
39.400        73
39.410        67
39.420        60
39.430        67
39.440        67
39.450        73
39.460        60
39.470        87
39.480        93
39.490        80
39.500        60
39.510        47
39.520        73
39.530        80
39.540        67
39.550        60
39.560        53
39.570        67
39.580        93
39.590        80
39.600        47
39.610        20
39.620        67
39.630        67
39.640        93
39.650        53
39.660        60
39.670        40
39.680        33
39.690        60
39.700       107
39.710        47
39.720        40
39.730        40
39.740        47
39.750        60
39.760        53
39.770        87
39.780        87
39.790        67
39.800        40
39.810        27
39.820        67
39.830        73
39.840        80
39.850        73
39.860        80
39.870       107
39.880        47
39.890        47
39.900        87
39.910        93
39.920        60
39.930        47
39.940        87
39.950        80
39.960        67
39.970       100
39.980       100
39.990        47
40.000        73
40.010        47
40.020        73
40.030       100
40.040       100
40.050        47
40.060        47
40.070        53
40.080        53
40.090        40
40.100        67
40.110       100
40.120        40
40.130        67
40.140        87
40.150        67
40.160        47
40.170        73
40.180        13
40.190       100
40.200        33
40.210       147
40.220       100
40.230        80
40.240        53
40.250        53
40.260        53
40.270       100
40.280        47
40.290        73
40.300        73
40.310        67
40.320        80
40.330        87
40.340        73
40.350       100
40.360       127
40.370        33
40.380       113
40.390        60
40.400        47
40.410        87
40.420        80
40.430        60
40.440        60
40.450        80
40.460        60
40.470        53
40.480        33
40.490       113
40.500        33
40.510        87
40.520        53
40.530        60
40.540        13
40.550        27
40.560        67
40.570        47
40.580        73
40.590        67
40.600        27
40.610        20
40.620        53
40.630        40
40.640        73
40.650        67
40.660        93
40.670        47
40.680        60
40.690        20
40.700        27
40.710        47
40.720        67
40.730        47
40.740        20
40.750        40
40.760        53
40.770        47
40.780       113
40.790        87
40.800        67
40.810        53
40.820        80
40.830        60
40.840        47
40.850        40
40.860        40
40.870        67
40.880        27
40.890        13
40.900        53
40.910        67
40.920        60
40.930        40
40.940        33
40.950        53
40.960        47
40.970        67
40.980        53
40.990        80
41.000        40
41.010        73
41.020        73
41.030        80
41.040        87
41.050        60
41.060        73
41.070        47
41.080        27
41.090        47
41.100        73
41.110        73
41.120        53
41.130        60
41.140        53
41.150        53
41.160        60
41.170        80
41.180        73
41.190        33
41.200        40
41.210        60
41.220        67
41.230        60
41.240        73
41.250        67
41.260        53
41.270        93
41.280        33
41.290        40
41.300        67
41.310        80
41.320        67
41.330        47
41.340        47
41.350        67
41.360        13
41.370        27
41.380        53
41.390        27
41.400        47
41.410        47
41.420        40
41.430        73
41.440        40
41.450        60
41.460        60
41.470        80
41.480        80
41.490       107
41.500        87
41.510        67
41.520        67
41.530        27
41.540        33
41.550        60
41.560        53
41.570        27
41.580        40
41.590        67
41.600        73
41.610        47
41.620        47
41.630        53
41.640        53
41.650        60
41.660        67
41.670        53
41.680        67
41.690        80
41.700        27
41.710        87
41.720        60
41.730        67
41.740        73
41.750        47
41.760        73
41.770        47
41.780        53
41.790        53
41.800        73
41.810         7
41.820        93
41.830        60
41.840        20
41.850        60
41.860        47
41.870       100
41.880        40
41.890        73
41.900        40
41.910        60
41.920        80
41.930        87
41.940       147
41.950        87
41.960        33
41.970        33
41.980        87
41.990        20
42.000        60
42.010        53
42.020        80
42.030        27
42.040        40
42.050        47
42.060        87
42.070        80
42.080        53
42.090        13
42.100        60
42.110        40
42.120        60
42.130        53
42.140        80
42.150        47
42.160        40
42.170        80
42.180        67
42.190        47
42.200        20
42.210       100
42.220        40
42.230        53
42.240        87
42.250        53
42.260        60
42.270        60
42.280        67
42.290        40
42.300        53
42.310        67
42.320        33
42.330        67
42.340        93
42.350        53
42.360        60
42.370        47
42.380        60
42.390        40
42.400        53
42.410        20
42.420        67
42.430        40
42.440        73
42.450        73
42.460        40
42.470        93
42.480        27
42.490        80
42.500        20
42.510        73
42.520        47
42.530        67
42.540       107
42.550        73
42.560        47
42.570        87
42.580        47
42.590        67
42.600        40
42.610        87
42.620        53
42.630        27
42.640        40
42.650        20
42.660        87
42.670        40
42.680        27
42.690        53
42.700        73
42.710        27
42.720        40
42.730        33
42.740        53
42.750        53
42.760        13
42.770        60
42.780        20
42.790        80
42.800        27
42.810       100
42.820        40
42.830        60
42.840        53
42.850        60
42.860        40
42.870        60
42.880        60
42.890        33
42.900        53
42.910        67
42.920        73
42.930        40
42.940        40
42.950        27
42.960        60
42.970        47
42.980        33
42.990        67
43.000        27
43.010        27
43.020        53
43.030        53
43.040        40
43.050        27
43.060         7
43.070        73
43.080        33
43.090        53
43.100        33
43.110        47
43.120        53
43.130        47
43.140        47
43.150        33
43.160        87
43.170        47
43.180        80
43.190        40
43.200        27
43.210        67
43.220        53
43.230        27
43.240        40
43.250        60
43.260        40
43.270        67
43.280        33
43.290        40
43.300        53
43.310        53
43.320        60
43.330        40
43.340        47
43.350        67
43.360        40
43.370        47
43.380        53
43.390        40
43.400        67
43.410        53
43.420        27
43.430        33
43.440        33
43.450        33
43.460        47
43.470        40
43.480        27
43.490        20
43.500        53
43.510        67
43.520        27
43.530        33
43.540        53
43.550        53
43.560        33
43.570        40
43.580        73
43.590        87
43.600        13
43.610        27
43.620        47
43.630        73
43.640        20
43.650        47
43.660        53
43.670        33
43.680        27
43.690        40
43.700        47
43.710        53
43.720        40
43.730        27
43.740        33
43.750        47
43.760        27
43.770        40
43.780        40
43.790        53
43.800        27
43.810        60
43.820        47
43.830        73
43.840        47
43.850        73
43.860        20
43.870        20
43.880        73
43.890        33
43.900        73
43.910        53
43.920        53
43.930        27
43.940        27
43.950        27
43.960        40
43.970        53
43.980        20
43.990        13
44.000        47
44.010        47
44.020        73
44.030        27
44.040        80
44.050        40
44.060        53
44.070        33
44.080        80
44.090        67
44.100        73
44.110        27
44.120        47
44.130        67
44.140        47
44.150        20
44.160        87
44.170        33
44.180        40
44.190        40
44.200        53
44.210        33
44.220        33
44.230        40
44.240        40
44.250        27
44.260        60
44.270        33
44.280        40
44.290        67
44.300        67
44.310        40
44.320        40
44.330        40
44.340        53
44.350        20
44.360        33
44.370        60
44.380        33
44.390        80
44.400        67
44.410        40
44.420        67
44.430        47
44.440        47
44.450        33
44.460        33
44.470        53
44.480        33
44.490        80
44.500        60
44.510        67
44.520        40
44.530        40
44.540        53
44.550         7
44.560        33
44.570        40
44.580         7
44.590        53
44.600        53
44.610         0
44.620        13
44.630        40
44.640        33
44.650         7
44.660        53
44.670        33
44.680        13
44.690        33
44.700        53
44.710        40
44.720        40
44.730        47
44.740        47
44.750        47
44.760        33
44.770        20
44.780        47
44.790        40
44.800        33
44.810        20
44.820        20
44.830        13
44.840        47
44.850        47
44.860        13
44.870        13
44.880        33
44.890        73
44.900        40
44.910         7
44.920        33
44.930        53
44.940        40
44.950        73
44.960        47
44.970        67
44.980        33
44.990        13
45.000        40
45.010        40
45.020        20
45.030        40
45.040        13
45.050        60
45.060        27
45.070        53
45.080        40
45.090        53
45.100        20
45.110        33
45.120        40
45.130        20
45.140        40
45.150        47
45.160        33
45.170        40
45.180        20
45.190        60
45.200        33
45.210        47
45.220        40
45.230        13
45.240        60
45.250        47
45.260        47
45.270        47
45.280        20
45.290        47
45.300         7
45.310        53
45.320        27
45.330         7
45.340        53
45.350        60
45.360        47
45.370        27
45.380        40
45.390        53
45.400        47
45.410        33
45.420        33
45.430        53
45.440        33
45.450        47
45.460        27
45.470        27
45.480        40
45.490        47
45.500        40
45.510        67
45.520        27
45.530        47
45.540        33
45.550        33
45.560        60
45.570        27
45.580        47
45.590        47
45.600        47
45.610        20
45.620        20
45.630        73
45.640        73
45.650        53
45.660        53
45.670        87
45.680        60
45.690        40
45.700        60
45.710        20
45.720        60
45.730        33
45.740        33
45.750        47
45.760        53
45.770        33
45.780        60
45.790        27
45.800        27
45.810        47
45.820        67
45.830        60
45.840        40
45.850        47
45.860        40
45.870        53
45.880        60
45.890        20
45.900        47
45.910        53
45.920        33
45.930        47
45.940        20
45.950        60
45.960        80
45.970        40
45.980        27
45.990        47
46.000        60
46.010        67
46.020        53
46.030        67
46.040        13
46.050        40
46.060        33
46.070        33
46.080        73
46.090        40
46.100        40
46.110        33
46.120        20
46.130        33
46.140        47
46.150        53
46.160        33
46.170        80
46.180        60
46.190        47
46.200        53
46.210        53
46.220        47
46.230        73
46.240         7
46.250        40
46.260        67
46.270        53
46.280        60
46.290        33
46.300        53
46.310        60
46.320        27
46.330        47
46.340        27
46.350        47
46.360        73
46.370        67
46.380        33
46.390        60
46.400        47
46.410        40
46.420        40
46.430        33
46.440        53
46.450        33
46.460        47
46.470        80
46.480        53
46.490        47
46.500        40
46.510        27
46.520        40
46.530        47
46.540        53
46.550        53
46.560        60
46.570        27
46.580        40
46.590        47
46.600        20
46.610        27
46.620        47
46.630        40
46.640        53
46.650        93
46.660        53
46.670        27
46.680        67
46.690        40
46.700        33
46.710        73
46.720        93
46.730        40
46.740        87
46.750        33
46.760        80
46.770        93
46.780        67
46.790        93
46.800        67
46.810       160
46.820       107
46.830        53
46.840       147
46.850        80
46.860       113
46.870        93
46.880       127
46.890        73
46.900        73
46.910        53
46.920        93
46.930        93
46.940        80
46.950       107
46.960       140
46.970        53
46.980       127
46.990       100
47.000        73
47.010       167
47.020       147
47.030       133
47.040       127
47.050       173
47.060       153
47.070       247
47.080       267
47.090       200
47.100       267
47.110       347
47.120       553
47.130       686
47.140       986
47.150      1160
47.160      1679
47.170      1906
47.180      2199
47.190      1886
47.200      2033
47.210      2092
47.220      1433
47.230      1253
47.240       880
47.250       640
47.260       533
47.270       493
47.280       300
47.290       320
47.300       240
47.310       180
47.320       213
47.330       227
47.340       227
47.350       233
47.360       167
47.370       213
47.380       153
47.390       120
47.400        87
47.410       147
47.420       107
47.430        53
47.440       120
47.450       120
47.460        67
47.470        53
47.480        73
47.490        73
47.500        67
47.510       107
47.520       100
47.530       127
47.540       107
47.550       100
47.560       107
47.570        80
47.580        20
47.590       100
47.600        93
47.610        73
47.620        80
47.630        67
47.640        93
47.650       107
47.660        73
47.670        87
47.680        73
47.690        93
47.700       100
47.710        73
47.720        87
47.730        80
47.740        53
47.750        47
47.760        60
47.770        87
47.780        93
47.790        47
47.800        40
47.810        47
47.820        60
47.830        73
47.840        93
47.850        73
47.860        33
47.870        53
47.880        67
47.890        27
47.900        67
47.910        40
47.920        20
47.930        47
47.940        60
47.950        93
47.960        47
47.970        40
47.980        47
47.990        33
48.000        80
48.010        53
48.020        40
48.030        53
48.040        13
48.050        20
48.060        67
48.070        60
48.080        53
48.090        73
48.100        40
48.110        40
48.120        87
48.130        40
48.140        53
48.150        47
48.160        47
48.170        53
48.180        47
48.190        27
48.200        47
48.210        53
48.220        40
48.230        40
48.240        93
48.250        67
48.260        40
48.270        53
48.280        27
48.290        67
48.300        47
48.310        40
48.320        60
48.330        47
48.340        87
48.350        67
48.360        80
48.370        53
48.380        73
48.390        20
48.400        67
48.410        20
48.420        60
48.430        40
48.440        47
48.450        13
48.460        47
48.470        27
48.480        33
48.490        40
48.500        80
48.510        20
48.520        33
48.530        53
48.540        47
48.550        80
48.560        47
48.570        40
48.580        27
48.590        80
48.600       113
48.610        27
48.620        73
48.630        33
48.640        20
48.650        47
48.660        73
48.670        13
48.680        40
48.690        13
48.700        53
48.710        53
48.720        53
48.730         7
48.740        53
48.750        53
48.760        53
48.770        27
48.780        67
48.790        60
48.800        60
48.810        47
48.820        40
48.830        60
48.840        20
48.850        27
48.860        27
48.870        73
48.880        40
48.890        40
48.900        47
48.910        73
48.920        33
48.930        27
48.940        53
48.950        53
48.960        40
48.970        47
48.980        67
48.990        40
49.000        47
49.010        87
49.020        33
49.030        53
49.040         7
49.050        47
49.060        33
49.070        80
49.080         7
49.090       100
49.100        47
49.110        40
49.120        27
49.130        13
49.140        53
49.150        47
49.160        27
49.170        53
49.180        60
49.190        80
49.200        87
49.210        47
49.220        67
49.230        40
49.240        40
49.250        80
49.260        93
49.270        60
49.280        53
49.290        27
49.300        53
49.310        40
49.320        33
49.330        73
49.340        47
49.350        40
49.360        47
49.370        80
49.380        53
49.390        47
49.400        27
49.410        47
49.420        60
49.430        60
49.440        53
49.450        40
49.460        60
49.470        40
49.480        33
49.490        73
49.500        40
49.510        40
49.520        80
49.530        40
49.540        40
49.550        60
49.560        73
49.570        60
49.580        53
49.590        53
49.600        33
49.610        40
49.620        33
49.630        67
49.640        47
49.650        73
49.660        27
49.670        47
49.680        27
49.690        47
49.700        27
49.710        67
49.720        47
49.730        47
49.740        33
49.750        80
49.760        40
49.770        80
49.780        53
49.790        47
49.800        87
49.810        80
49.820        53
49.830        53
49.840        40
49.850        13
49.860       113
49.870        40
49.880        53
49.890        67
49.900        33
49.910        40
49.920        53
49.930        67
49.940        87
49.950        47
49.960        87
49.970        67
49.980       113
49.990        33
50.000        33
50.010        33
50.020        67
50.030        60
50.040        60
50.050        27
50.060        33
50.070        40
50.080        40
50.090        47
50.100        67
50.110        53
50.120        93
50.130        40
50.140        73
50.150        47
50.160        47
50.170        47
50.180        67
50.190        40
50.200        53
50.210        80
50.220        60
50.230        47
50.240        33
50.250        33
50.260        80
50.270        73
50.280        47
50.290        33
50.300        67
50.310        40
50.320        40
50.330        27
50.340        27
50.350        33
50.360         7
50.370        47
50.380        47
50.390        47
50.400        40
50.410        53
50.420        40
50.430        20
50.440        60
50.450        60
50.460        20
50.470        60
50.480        73
50.490        53
50.500        47
50.510        40
50.520        53
50.530        67
50.540        53
50.550       100
50.560       127
50.570        47
50.580        67
50.590       107
50.600        87
50.610        67
50.620       140
50.630       127
50.640       200
50.650       280
50.660       313
50.670       340
50.680       393
50.690       426
50.700       400
50.710       433
50.720       473
50.730       573
50.740       533
50.750       646
50.760       500
50.770       553
50.780       506
50.790       446
50.800       533
50.810       546
50.820       560
50.830       573
50.840       626
50.850       586
50.860       506
50.870       633
50.880       486
50.890       526
50.900       400
50.910       500
50.920       546
50.930       500
50.940       546
50.950       460
50.960       473
50.970       606
50.980       553
50.990       593
51.000       606
51.010       520
51.020       673
51.030       513
51.040       593
51.050       593
51.060       673
51.070       533
51.080       493
51.090       626
51.100       626
51.110       580
51.120       620
51.130       580
51.140       573
51.150       546
51.160       513
51.170       486
51.180       480
51.190       566
51.200       586
51.210       626
51.220       533
51.230       553
51.240       640
51.250       520
51.260       446
51.270       500
51.280       640
51.290       426
51.300       580
51.310       446
51.320       533
51.330       573
51.340       486
51.350       600
51.360       646
51.370       473
51.380       540
51.390       600
51.400       553
51.410       540
51.420       586
51.430       580
51.440       500
51.450       646
51.460       466
51.470       573
51.480       540
51.490       593
51.500       500
51.510       486
51.520       500
51.530       600
51.540       580
51.550       666
51.560       633
51.570       606
51.580       540
51.590       640
51.600       533
51.610       586
51.620       500
51.630       680
51.640       580
51.650       573
51.660       513
51.670       700
51.680       686
51.690       593
51.700       560
51.710       560
51.720       806
51.730       640
51.740       693
51.750       620
51.760       573
51.770       620
51.780       600
51.790       720
51.800       706
51.810       566
51.820       633
51.830       626
51.840       700
51.850       646
51.860       653
51.870       766
51.880       660
51.890       613
51.900       760
51.910       706
51.920       653
51.930       813
51.940       920
51.950       726
51.960       880
51.970       806
51.980       826
51.990       860
52.000       766
52.010       973
52.020       586
52.030       833
52.040       820
52.050       793
52.060       993
52.070       860
52.080       840
52.090      1080
52.100       880
52.110       906
52.120      1006
52.130       966
52.140       940
52.150      1100
52.160      1273
52.170      1213
52.180      1173
52.190      1253
52.200      1186
52.210      1413
52.220      1506
52.230      1759
52.240      1839
52.250      1693
52.260      2259
52.270      2259
52.280      2466
52.290      2879
52.300      3292
52.310      3285
52.320      3912
52.330      4132
52.340      4398
52.350      5085
52.360      5604
52.370      5611
52.380      6477
52.390      6951
52.400      7850
52.410      8856
52.420      9843
52.430     10749
52.440     12488
52.450     13641
52.460     15214
52.470     16933
52.480     19359
52.490     23364
52.500     29295
52.510     37912
52.520     54032
52.530     82540
52.540    121625
52.550    157923
52.560    185419
52.570    201899
52.580    209536
52.590    208497
52.600    198421
52.610    178222
52.620    142423
52.630    106277
52.640     76756
52.650     60842
52.660     56997
52.670     65674
52.680     80968
52.690    101666
52.700    117153
52.710    126343
52.720    131174
52.730    129788
52.740    122231
52.750    105824
52.760     82041
52.770     59356
52.780     39731
52.790     27489
52.800     20292
52.810     15880
52.820     14094
52.830     11602
52.840     10449
52.850      9623
52.860      8763
52.870      8090
52.880      6437
52.890      6024
52.900      4865
52.910      3892
52.920      3499
52.930      2819
52.940      2606
52.950      2579
52.960      2346
52.970      2286
52.980      1713
52.990      1933
53.000      1706
53.010      1593
53.020      1626
53.030      1459
53.040      1233
53.050      1579
53.060      1473
53.070      1326
53.080      1313
53.090      1279
53.100      1146
53.110      1186
53.120      1160
53.130      1033
53.140      1146
53.150       960
53.160      1080
53.170       966
53.180      1140
53.190      1080
53.200       926
53.210       940
53.220      1006
53.230       940
53.240       986
53.250       920
53.260       873
53.270       646
53.280       926
53.290       753
53.300       793
53.310       860
53.320       933
53.330       873
53.340       700
53.350       826
53.360       600
53.370       653
53.380       773
53.390       886
53.400       660
53.410       660
53.420       713
53.430       706
53.440       600
53.450       720
53.460       600
53.470       613
53.480       633
53.490       686
53.500       540
53.510       606
53.520       646
53.530       620
53.540       600
53.550       573
53.560       633
53.570       586
53.580       453
53.590       693
53.600       593
53.610       580
53.620       573
53.630       553
53.640       600
53.650       593
53.660       453
53.670       500
53.680       493
53.690       600
53.700       613
53.710       473
53.720       493
53.730       626
53.740       500
53.750       506
53.760       380
53.770       486
53.780       433
53.790       533
53.800       387
53.810       533
53.820       440
53.830       460
53.840       566
53.850       473
53.860       520
53.870       473
53.880       340
53.890       446
53.900       413
53.910       460
53.920       486
53.930       466
53.940       440
53.950       433
53.960       480
53.970       453
53.980       446
53.990       380
54.000       506
54.010       360
54.020       440
54.030       387
54.040       420
54.050       440
54.060       353
54.070       360
54.080       453
54.090       446
54.100       466
54.110       340
54.120       466
54.130       380
54.140       440
54.150       413
54.160       327
54.170       460
54.180       446
54.190       360
54.200       493
54.210       493
54.220       380
54.230       426
54.240       413
54.250       387
54.260       340
54.270       380
54.280       340
54.290       400
54.300       526
54.310       387
54.320       446
54.330       500
54.340       380
54.350       407
54.360       380
54.370       400
54.380       486
54.390       513
54.400       446
54.410       466
54.420       420
54.430       380
54.440       300
54.450       433
54.460       400
54.470       333
54.480       340
54.490       353
54.500       466
54.510       420
54.520       360
54.530       353
54.540       380
54.550       353
54.560       400
54.570       393
54.580       466
54.590       333
54.600       493
54.610       320
54.620       373
54.630       367
54.640       353
54.650       367
54.660       367
54.670       426
54.680       353
54.690       393
54.700       333
54.710       307
54.720       367
54.730       380
54.740       327
54.750       333
54.760       313
54.770       446
54.780       360
54.790       373
54.800       373
54.810       320
54.820       440
54.830       373
54.840       400
54.850       327
54.860       333
54.870       307
54.880       313
54.890       347
54.900       233
54.910       440
54.920       300
54.930       333
54.940       327
54.950       340
54.960       313
54.970       353
54.980       307
54.990       387
55.000       307
55.010       320
55.020       327
55.030       413
55.040       440
55.050       353
55.060       340
55.070       380
55.080       340
55.090       313
55.100       300
55.110       400
55.120       340
55.130       253
55.140       287
55.150       307
55.160       327
55.170       327
55.180       267
55.190       280
55.200       320
55.210       340
55.220       373
55.230       320
55.240       387
55.250       227
55.260       347
55.270       247
55.280       300
55.290       273
55.300       380
55.310       260
55.320       340
55.330       307
55.340       360
55.350       300
55.360       407
55.370       300
55.380       327
55.390       307
55.400       227
55.410       387
55.420       313
55.430       293
55.440       333
55.450       220
55.460       320
55.470       300
55.480       327
55.490       287
55.500       373
55.510       307
55.520       287
55.530       347
55.540       347
55.550       293
55.560       287
55.570       247
55.580       313
55.590       267
55.600       313
55.610       313
55.620       267
55.630       307
55.640       353
55.650       353
55.660       260
55.670       253
55.680       333
55.690       213
55.700       233
55.710       267
55.720       287
55.730       260
55.740       313
55.750       300
55.760       380
55.770       280
55.780       280
55.790       340
55.800       273
55.810       267
55.820       260
55.830       320
55.840       233
55.850       320
55.860       180
55.870       300
55.880       247
55.890       280
55.900       267
55.910       333
55.920       320
55.930       253
55.940       233
55.950       240
55.960       300
55.970       227
55.980       300
55.990       287
56.000       240
56.010       253
56.020       333
56.030       267
56.040       300
56.050       220
56.060       240
56.070       227
56.080       287
56.090       220
56.100       233
56.110       267
56.120       247
56.130       260
56.140       233
56.150       227
56.160       253
56.170       220
56.180       293
56.190       280
56.200       247
56.210       213
56.220       240
56.230       200
56.240       220
56.250       220
56.260       260
56.270       287
56.280       207
56.290       180
56.300       253
56.310       253
56.320       280
56.330       340
56.340       300
56.350       280
56.360       313
56.370       253
56.380       240
56.390       353
56.400       180
56.410       287
56.420       220
56.430       253
56.440       253
56.450       233
56.460       273
56.470       227
56.480       320
56.490       207
56.500       253
56.510       253
56.520       280
56.530       247
56.540       233
56.550       267
56.560       220
56.570       220
56.580       347
56.590       260
56.600       280
56.610       287
56.620       207
56.630       213
56.640       267
56.650       260
56.660       247
56.670       260
56.680       267
56.690       180
56.700       300
56.710       287
56.720       247
56.730       207
56.740       187
56.750       220
56.760       233
56.770       273
56.780       160
56.790       300
56.800       207
56.810       233
56.820       293
56.830       147
56.840       240
56.850       213
56.860       253
56.870       247
56.880       207
56.890       253
56.900       193
56.910       233
56.920       293
56.930       173
56.940       193
56.950       200
56.960       193
56.970       273
56.980       227
56.990       247
57.000       187
57.010       187
57.020       207
57.030       227
57.040       207
57.050       213
57.060       200
57.070       233
57.080       240
57.090       140
57.100       220
57.110       240
57.120       207
57.130       307
57.140       227
57.150       200
57.160       293
57.170       253
57.180       247
57.190       233
57.200       307
57.210       273
57.220       253
57.230       267
57.240       227
57.250       180
57.260       160
57.270       273
57.280       127
57.290       240
57.300       220
57.310       213
57.320       253
57.330       207
57.340       267
57.350       220
57.360       200
57.370       200
57.380       193
57.390       173
57.400       247
57.410       240
57.420       180
57.430       247
57.440       240
57.450       233
57.460       173
57.470       227
57.480       227
57.490       233
57.500       173
57.510       207
57.520       273
57.530       220
57.540       240
57.550       253
57.560       287
57.570       207
57.580       220
57.590       247
57.600       193
57.610       220
57.620       147
57.630       260
57.640       240
57.650       293
57.660       220
57.670       193
57.680       193
57.690       200
57.700       193
57.710       260
57.720       213
57.730       200
57.740       213
57.750       240
57.760       213
57.770       193
57.780       253
57.790       153
57.800       180
57.810       187
57.820       207
57.830       253
57.840       193
57.850       153
57.860       320
57.870       267
57.880       200
57.890       253
57.900       233
57.910       220
57.920       240
57.930       193
57.940       207
57.950       207
57.960       200
57.970       207
57.980       193
57.990       233
58.000       173
58.010       187
58.020       200
58.030       220
58.040       240
58.050       207
58.060       193
58.070       247
58.080       193
58.090       193
58.100       233
58.110       160
58.120       240
58.130       233
58.140       140
58.150       173
58.160       193
58.170       233
58.180       220
58.190       187
58.200       220
58.210       167
58.220       300
58.230       273
58.240       240
58.250       180
58.260       120
58.270       220
58.280       200
58.290       167
58.300       167
58.310       200
58.320       220
58.330       167
58.340       200
58.350       187
58.360       167
58.370       240
58.380       140
58.390       180
58.400       247
58.410       207
58.420       180
58.430       233
58.440       220
58.450       193
58.460       160
58.470       187
58.480       187
58.490       173
58.500       127
58.510       153
58.520       213
58.530       153
58.540       173
58.550       200
58.560       207
58.570       133
58.580       193
58.590       200
58.600       267
58.610       200
58.620       200
58.630       200
58.640       200
58.650       167
58.660       213
58.670       180
58.680       180
58.690       153
58.700       187
58.710       140
58.720       160
58.730       187
58.740       220
58.750       193
58.760       160
58.770       160
58.780       140
58.790       173
58.800       187
58.810       200
58.820       167
58.830       207
58.840       140
58.850       127
58.860       147
58.870       160
58.880       167
58.890       167
58.900       180
58.910       207
58.920       227
58.930       153
58.940       227
58.950       133
58.960       160
58.970       207
58.980       240
58.990       247
59.000       127
59.010       140
59.020       213
59.030       207
59.040       140
59.050       240
59.060       127
59.070       193
59.080       160
59.090       153
59.100       200
59.110       127
59.120       173
59.130       147
59.140       167
59.150       193
59.160       153
59.170       180
59.180       213
59.190       133
59.200       193
59.210       100
59.220       167
59.230       100
59.240       180
59.250       167
59.260       133
59.270       200
59.280       247
59.290       167
59.300       133
59.310       100
59.320       140
59.330       247
59.340       173
59.350       187
59.360       173
59.370       213
59.380       160
59.390       207
59.400       133
59.410       127
59.420       167
59.430        93
59.440       173
59.450       160
59.460       233
59.470       167
59.480       193
59.490        93
59.500       160
59.510       207
59.520       100
59.530       140
59.540       253
59.550       167
59.560       133
59.570       160
59.580       140
59.590       193
59.600       160
59.610       140
59.620       153
59.630       193
59.640       173
59.650       173
59.660       187
59.670       153
59.680       160
59.690       140
59.700       133
59.710       153
59.720       207
59.730       193
59.740       120
59.750       233
59.760       180
59.770       113
59.780       167
59.790       147
59.800       127
59.810       107
59.820       180
59.830       180
59.840       133
59.850       167
59.860       200
59.870       180
59.880       133
59.890       147
59.900       187
59.910       147
59.920       173
59.930       173
59.940       140
59.950       187
59.960       113
59.970       227
59.980       140
59.990        40
60.000        40
