20.000       107
20.010       107
20.020        93
20.030       140
20.040       173
20.050       113
20.060        53
20.070       127
20.080       153
20.090       113
20.100       127
20.110       147
20.120       153
20.130       100
20.140       193
20.150       100
20.160       140
20.170       153
20.180       100
20.190       193
20.200        93
20.210       120
20.220       133
20.230       133
20.240       147
20.250       127
20.260       127
20.270       113
20.280       147
20.290       107
20.300       107
20.310        60
20.320       147
20.330       100
20.340       133
20.350        80
20.360       133
20.370       193
20.380       133
20.390       120
20.400        93
20.410       147
20.420        93
20.430       147
20.440       127
20.450       160
20.460        80
20.470       140
20.480        87
20.490       107
20.500       140
20.510       107
20.520       140
20.530       147
20.540       153
20.550        93
20.560       127
20.570       127
20.580       107
20.590       147
20.600       153
20.610       113
20.620       113
20.630       120
20.640        87
20.650       133
20.660       187
20.670       160
20.680       127
20.690       113
20.700        80
20.710        93
20.720       127
20.730       133
20.740        93
20.750        73
20.760       120
20.770        60
20.780        93
20.790        73
20.800       113
20.810       113
20.820       113
20.830        87
20.840       107
20.850        87
20.860       100
20.870       120
20.880        93
20.890       107
20.900       120
20.910       120
20.920       133
20.930       100
20.940       120
20.950       127
20.960       180
20.970       100
20.980       173
20.990       147
21.000       187
21.010       147
21.020       140
21.030       120
21.040       127
21.050       113
21.060       140
21.070       113
21.080       100
21.090       120
21.100        73
21.110       100
21.120       127
21.130       127
21.140       153
21.150       120
21.160       127
21.170       120
21.180       140
21.190       140
21.200       127
21.210        93
21.220       133
21.230        87
21.240       140
21.250       113
21.260       140
21.270       107
21.280        87
21.290        87
21.300        80
21.310       107
21.320       107
21.330        93
21.340        93
21.350       133
21.360       140
21.370       147
21.380       140
21.390        80
21.400       140
21.410       120
21.420       107
21.430       133
21.440       140
21.450       127
21.460       173
21.470       120
21.480       133
21.490       100
21.500       113
21.510       127
21.520       113
21.530       127
21.540       107
21.550        80
21.560        87
21.570       100
21.580       140
21.590       140
21.600       153
21.610        93
21.620       147
21.630       140
21.640       120
21.650       133
21.660        93
21.670       107
21.680       147
21.690       160
21.700       140
21.710       167
21.720       140
21.730       107
21.740       167
21.750       113
21.760       133
21.770       167
21.780       160
21.790       107
21.800        93
21.810        93
21.820        93
21.830       160
21.840       113
21.850       187
21.860       173
21.870       160
21.880       193
21.890       107
21.900       127
21.910       160
21.920       127
21.930       120
21.940       160
21.950       140
21.960       153
21.970       153
21.980       120
21.990        93
22.000       160
22.010       120
22.020       167
22.030        87
22.040       107
22.050       207
22.060       160
22.070        93
22.080        93
22.090       153
22.100       133
22.110       220
22.120       120
22.130       120
22.140       147
22.150       107
22.160       187
22.170       147
22.180       167
22.190       167
22.200       140
22.210        87
22.220       180
22.230       180
22.240       173
22.250       147
22.260       147
22.270       187
22.280       220
22.290       147
22.300       180
22.310       207
22.320       147
22.330       147
22.340       167
22.350       180
22.360       133
22.370       167
22.380       127
22.390       160
22.400       220
22.410       187
22.420       213
22.430       153
22.440       127
22.450       180
22.460       220
22.470       120
22.480       113
22.490       233
22.500       147
22.510       167
22.520       233
22.530       227
22.540       213
22.550       207
22.560       193
22.570       180
22.580       267
22.590       167
22.600       187
22.610       227
22.620       167
22.630       213
22.640       227
22.650       267
22.660       187
22.670       213
22.680       180
22.690       167
22.700       227
22.710       180
22.720       113
22.730       180
22.740       173
22.750       160
22.760       207
22.770       227
22.780       180
22.790       253
22.800       180
22.810       220
22.820       213
22.830       133
22.840       287
22.850       220
22.860       160
22.870       253
22.880       287
22.890       213
22.900       220
22.910       180
22.920       307
22.930       347
22.940       300
22.950       380
22.960       253
22.970       260
22.980       353
22.990       373
23.000       267
23.010       333
23.020       260
23.030       333
23.040       407
23.050       426
23.060       500
23.070       773
23.080      1259
23.090      1759
23.100      2046
23.110      2179
23.120      2439
23.130      2492
23.140      2299
23.150      1853
23.160      1286
23.170       940
23.180       573
23.190       387
23.200       426
23.210       413
23.220       340
23.230       327
23.240       313
23.250       340
23.260       353
23.270       233
23.280       260
23.290       320
23.300       227
23.310       213
23.320       233
23.330       220
23.340       313
23.350       173
23.360       220
23.370       233
23.380       260
23.390       280
23.400       147
23.410       273
23.420       233
23.430       260
23.440       227
23.450       287
23.460       173
23.470       240
23.480       300
23.490       240
23.500       273
23.510       167
23.520       220
23.530       300
23.540       200
23.550       193
23.560       233
23.570       233
23.580       240
23.590       187
23.600       160
23.610       213
23.620       180
23.630       247
23.640       240
23.650       233
23.660       193
23.670       280
23.680       260
23.690       240
23.700       307
23.710       180
23.720       240
23.730       273
23.740       173
23.750       173
23.760       180
23.770       240
23.780       193
23.790       200
23.800       273
23.810       220
23.820       220
23.830       193
23.840       247
23.850       240
23.860       207
23.870       293
23.880       200
23.890       140
23.900       160
23.910       280
23.920       200
23.930       213
23.940       247
23.950       200
23.960       187
23.970       240
23.980       253
23.990       173
24.000       227
24.010       253
24.020       293
24.030       200
24.040       247
24.050       260
24.060       180
24.070       167
24.080       167
24.090       200
24.100       193
24.110       167
24.120       233
24.130       120
24.140       233
24.150       213
24.160       173
24.170       253
24.180       240
24.190       280
24.200       240
24.210       233
24.220       207
24.230       220
24.240       260
24.250       233
24.260       220
24.270       207
24.280       227
24.290       253
24.300       247
24.310       200
24.320       187
24.330       287
24.340       180
24.350       213
24.360       240
24.370       240
24.380       180
24.390       220
24.400       207
24.410       207
24.420       240
24.430       180
24.440       273
24.450       213
24.460       193
24.470       320
24.480       227
24.490       207
24.500       213
24.510       207
24.520       200
24.530       280
24.540       167
24.550       240
24.560       193
24.570       207
24.580       173
24.590       273
24.600       267
24.610       207
24.620       253
24.630       253
24.640       233
24.650       273
24.660       240
24.670       340
24.680       307
24.690       267
24.700       353
24.710       520
24.720       493
24.730       593
24.740       653
24.750       926
24.760       986
24.770      1040
24.780      1033
24.790      1066
24.800      1160
24.810      1100
24.820      1100
24.830      1093
24.840      1086
24.850      1106
24.860      1186
24.870      1173
24.880      1173
24.890      1093
24.900      1013
24.910      1086
24.920      1153
24.930      1086
24.940      1093
24.950      1013
24.960      1113
24.970      1106
24.980      1180
24.990      1093
25.000      1073
25.010      1100
25.020      1186
25.030      1200
25.040      1240
25.050      1180
25.060      1120
25.070      1193
25.080      1299
25.090      1246
25.100      1186
25.110      1140
25.120      1113
25.130      1346
25.140      1093
25.150      1060
25.160      1173
25.170      1173
25.180      1293
25.190      1306
25.200      1306
25.210      1160
25.220      1319
25.230      1299
25.240      1426
25.250      1533
25.260      1426
25.270      1479
25.280      1366
25.290      1373
25.300      1366
25.310      1473
25.320      1599
25.330      1646
25.340      1686
25.350      1913
25.360      1946
25.370      2559
25.380      2852
25.390      3639
25.400      4052
25.410      5045
25.420      6044
25.430      6764
25.440      8437
25.450      9703
25.460     10403
25.470     11642
25.480     13095
25.490     13868
25.500     15907
25.510     16234
25.520     16927
25.530     18906
25.540     20805
25.550     24170
25.560     32727
25.570     57437
25.580    103065
25.590    152992
25.600    188611
25.610    206624
25.620    212188
25.630    217206
25.640    220538
25.650    214594
25.660    195788
25.670    172411
25.680    148474
25.690    141057
25.700    135019
25.710    122744
25.720    100653
25.730     68506
25.740     40217
25.750     23397
25.760     17020
25.770     13821
25.780     11615
25.790      9676
25.800      7737
25.810      6837
25.820      5731
25.830      5504
25.840      4438
25.850      3725
25.860      3099
25.870      2606
25.880      2639
25.890      2426
25.900      2179
25.910      1913
25.920      2053
25.930      2013
25.940      1779
25.950      1633
25.960      1599
25.970      1693
25.980      1686
25.990      1513
26.000      1579
26.010      1426
26.020      1439
26.030      1306
26.040      1359
26.050      1293
26.060      1279
26.070      1273
26.080      1359
26.090      1206
26.100      1346
26.110      1180
26.120      1220
26.130      1093
26.140       993
26.150      1173
26.160      1146
26.170      1240
26.180      1073
26.190      1080
26.200      1166
26.210      1000
26.220      1166
26.230      1093
26.240      1053
26.250      1153
26.260      1086
26.270       980
26.280      1133
26.290      1020
26.300      1120
26.310      1000
26.320       946
26.330       906
26.340      1013
26.350      1020
26.360      1013
26.370      1126
26.380      1033
26.390       973
26.400      1006
26.410      1060
26.420       846
26.430       946
26.440       980
26.450      1073
26.460      1080
26.470       953
26.480       946
26.490       846
26.500       913
26.510       946
26.520       893
26.530      1000
26.540       820
26.550       833
26.560       893
26.570       806
26.580       873
26.590       940
26.600       913
26.610       833
26.620       893
26.630       800
26.640       826
26.650       780
26.660       800
26.670       926
26.680       946
26.690       806
26.700       853
26.710       840
26.720       800
26.730       720
26.740       820
26.750       853
26.760       753
26.770       833
26.780       860
26.790       766
26.800       720
26.810       873
26.820       766
26.830       880
26.840       873
26.850       866
26.860       733
26.870       733
26.880       833
26.890       786
26.900       780
26.910       700
26.920       866
26.930       766
26.940       686
26.950       693
26.960       726
26.970       900
26.980       920
26.990       826
27.000       693
27.010       813
27.020       753
27.030       693
27.040       840
27.050       820
27.060       793
27.070       800
27.080       713
27.090       746
27.100       906
27.110       653
27.120       606
27.130       706
27.140       566
27.150       726
27.160       726
27.170       666
27.180       726
27.190       793
27.200       640
27.210       720
27.220       600
27.230       626
27.240       780
27.250       846
27.260       666
27.270       666
27.280       706
27.290       806
27.300       626
27.310       733
27.320       693
27.330       640
27.340       746
27.350       680
27.360       646
27.370       720
27.380       660
27.390       780
27.400       806
27.410       606
27.420       680
27.430       693
27.440       580
27.450       653
27.460       686
27.470       606
27.480       666
27.490       740
27.500       660
27.510       606
27.520       640
27.530       833
27.540       780
27.550       660
27.560       693
27.570       620
27.580       640
27.590       766
27.600       593
27.610       673
27.620       600
27.630       680
27.640       680
27.650       586
27.660       660
27.670       706
27.680       653
27.690       646
27.700       613
27.710       586
27.720       540
27.730       600
27.740       633
27.750       640
27.760       666
27.770       766
27.780       766
27.790       780
27.800       580
27.810       760
27.820       773
27.830       713
27.840       626
27.850       633
27.860       626
27.870       693
27.880       726
27.890       646
27.900       653
27.910       600
27.920       640
27.930       606
27.940       626
27.950       620
27.960       566
27.970       606
27.980       526
27.990       640
28.000       586
28.010       640
28.020       633
28.030       646
28.040       606
28.050       533
28.060       653
28.070       666
28.080       666
28.090       506
28.100       673
28.110       606
28.120       606
28.130       520
28.140       426
28.150       746
28.160       620
28.170       706
28.180       573
28.190       573
28.200       546
28.210       620
28.220       653
28.230       586
28.240       566
28.250       613
28.260       600
28.270       446
28.280       566
28.290       566
28.300       646
28.310       626
28.320       513
28.330       486
28.340       493
28.350       753
28.360       586
28.370       566
28.380       640
28.390       606
28.400       533
28.410       540
28.420       620
28.430       593
28.440       526
28.450       566
28.460       480
28.470       580
28.480       520
28.490       586
28.500       493
28.510       593
28.520       513
28.530       453
28.540       606
28.550       506
28.560       513
28.570       653
28.580       546
28.590       573
28.600       586
28.610       613
28.620       486
28.630       566
28.640       553
28.650       506
28.660       453
28.670       700
28.680       540
28.690       546
28.700       593
28.710       586
28.720       633
28.730       566
28.740       573
28.750       646
28.760       673
28.770       660
28.780       566
28.790       653
28.800       680
28.810       633
28.820       586
28.830       653
28.840       560
28.850       553
28.860       606
28.870       560
28.880       486
28.890       593
28.900       573
28.910       546
28.920       600
28.930       726
28.940       580
28.950       666
28.960       673
28.970       640
28.980       493
28.990       526
29.000       626
29.010       440
29.020       466
29.030       446
29.040       533
29.050       506
29.060       566
29.070       546
29.080       546
29.090       626
29.100       606
29.110       500
29.120       573
29.130       606
29.140       606
29.150       453
29.160       560
29.170       580
29.180       593
29.190       586
29.200       440
29.210       600
29.220       453
29.230       440
29.240       440
29.250       513
29.260       453
29.270       466
29.280       546
29.290       400
29.300       446
29.310       553
29.320       513
29.330       500
29.340       486
29.350       493
29.360       500
29.370       493
29.380       473
29.390       413
29.400       620
29.410       573
29.420       513
29.430       600
29.440       546
29.450       520
29.460       480
29.470       440
29.480       520
29.490       486
29.500       506
29.510       446
29.520       500
29.530       560
29.540       593
29.550       526
29.560       540
29.570       586
29.580       553
29.590       526
29.600       606
29.610       586
29.620       626
29.630       626
29.640       713
29.650       600
29.660       653
29.670       700
29.680       606
29.690       600
29.700       533
29.710       626
29.720       546
29.730       473
29.740       553
29.750       493
29.760       546
29.770       540
29.780       420
29.790       433
29.800       526
29.810       500
29.820       413
29.830       433
29.840       520
29.850       553
29.860       373
29.870       380
29.880       473
29.890       367
29.900       473
29.910       446
29.920       373
29.930       520
29.940       513
29.950       466
29.960       513
29.970       347
29.980       453
29.990       446
30.000       420
30.010       420
30.020       506
30.030       353
30.040       353
30.050       466
30.060       420
30.070       373
30.080       446
30.090       433
30.100       440
30.110       433
30.120       420
30.130       446
30.140       353
30.150       460
30.160       407
30.170       400
30.180       420
30.190       473
30.200       486
30.210       433
30.220       400
30.230       473
30.240       426
30.250       426
30.260       433
30.270       360
30.280       393
30.290       440
30.300       320
30.310       380
30.320       347
30.330       393
30.340       446
30.350       400
30.360       393
30.370       347
30.380       426
30.390       426
30.400       513
30.410       413
30.420       387
30.430       393
30.440       360
30.450       367
30.460       466
30.470       360
30.480       453
30.490       446
30.500       360
30.510       387
30.520       287
30.530       387
30.540       407
30.550       433
30.560       486
30.570       367
30.580       453
30.590       440
30.600       367
30.610       327
30.620       387
30.630       380
30.640       486
30.650       333
30.660       347
30.670       300
30.680       407
30.690       393
30.700       420
30.710       333
30.720       387
30.730       353
30.740       353
30.750       353
30.760       367
30.770       320
30.780       407
30.790       433
30.800       413
30.810       333
30.820       380
30.830       320
30.840       280
30.850       453
30.860       373
30.870       273
30.880       420
30.890       353
30.900       340
30.910       380
30.920       413
30.930       347
30.940       360
30.950       473
30.960       393
30.970       293
30.980       327
30.990       260
31.000       440
31.010       320
31.020       373
31.030       426
31.040       333
31.050       407
31.060       367
31.070       327
31.080       380
31.090       347
31.100       347
31.110       380
31.120       333
31.130       393
31.140       280
31.150       347
31.160       313
31.170       340
31.180       333
31.190       360
31.200       340
31.210       287
31.220       380
31.230       367
31.240       360
31.250       253
31.260       373
31.270       360
31.280       460
31.290       380
31.300       273
31.310       360
31.320       347
31.330       353
31.340       407
31.350       413
31.360       400
31.370       413
31.380       287
31.390       267
31.400       360
31.410       353
31.420       393
31.430       320
31.440       340
31.450       327
31.460       280
31.470       420
31.480       307
31.490       333
31.500       313
31.510       240
31.520       287
31.530       347
31.540       380
31.550       287
31.560       293
31.570       320
31.580       313
31.590       347
31.600       320
31.610       373
31.620       247
31.630       360
31.640       313
31.650       327
31.660       240
31.670       293
31.680       300
31.690       240
31.700       373
31.710       300
31.720       313
31.730       280
31.740       287
31.750       380
31.760       313
31.770       313
31.780       327
31.790       300
31.800       227
31.810       293
31.820       267
31.830       353
31.840       307
31.850       233
31.860       360
31.870       260
31.880       353
31.890       320
31.900       300
31.910       446
31.920       253
31.930       213
31.940       307
31.950       353
31.960       367
31.970       300
31.980       300
31.990       327
32.000       313
32.010       313
32.020       280
32.030       280
32.040       333
32.050       267
32.060       360
32.070       287
32.080       413
32.090       267
32.100       333
32.110       333
32.120       420
32.130       360
32.140       333
32.150       387
32.160       420
32.170       340
32.180       293
32.190       360
32.200       420
32.210       380
32.220       400
32.230       307
32.240       367
32.250       287
32.260       367
32.270       393
32.280       360
32.290       387
32.300       333
32.310       327
32.320       300
32.330       273
32.340       300
32.350       300
32.360       340
32.370       333
32.380       347
32.390       253
32.400       307
32.410       313
32.420       373
32.430       320
32.440       280
32.450       253
32.460       267
32.470       267
32.480       260
32.490       393
32.500       227
32.510       247
32.520       273
32.530       267
32.540       260
32.550       300
32.560       280
32.570       320
32.580       307
32.590       267
32.600       260
32.610       253
32.620       233
32.630       240
32.640       353
32.650       200
32.660       260
32.670       267
32.680       233
32.690       267
32.700       360
32.710       360
32.720       273
32.730       300
32.740       327
32.750       247
32.760       280
32.770       247
32.780       260
32.790       193
32.800       207
32.810       193
32.820       253
32.830       313
32.840       233
32.850       193
32.860       207
32.870       340
32.880       227
32.890       267
32.900       320
32.910       287
32.920       200
32.930       327
32.940       193
32.950       227
32.960       293
32.970       446
32.980       233
32.990       260
33.000       267
33.010       240
33.020       160
33.030       140
33.040       247
33.050       220
33.060       307
33.070       267
33.080       200
33.090       187
33.100       173
33.110       253
33.120       253
33.130       200
33.140       193
33.150       233
33.160       227
33.170       240
33.180       200
33.190       240
33.200       273
33.210       247
33.220       240
33.230       247
33.240       247
33.250       200
33.260       247
33.270       273
33.280       220
33.290       227
33.300       307
33.310       260
33.320       247
33.330       267
33.340       213
33.350       173
33.360       240
33.370       253
33.380       227
33.390       220
33.400       207
33.410       207
33.420       140
33.430       167
33.440       187
33.450       207
33.460       200
33.470       207
33.480       207
33.490       187
33.500       173
33.510       180
33.520       233
33.530       227
33.540       220
33.550       193
33.560       213
33.570       207
33.580       273
33.590       213
33.600       173
33.610       180
33.620       220
33.630       227
33.640       267
33.650       247
33.660       173
33.670       160
33.680       220
33.690       213
33.700       227
33.710       160
33.720       247
33.730       127
33.740       280
33.750       187
33.760       200
33.770       193
33.780       227
33.790       200
33.800       240
33.810       173
33.820       267
33.830       260
33.840       240
33.850       187
33.860       180
33.870       133
33.880       193
33.890       167
33.900       240
33.910       220
33.920       193
33.930       193
33.940       147
33.950       147
33.960       207
33.970       247
33.980       160
33.990       140
34.000       240
34.010       200
34.020       153
34.030       140
34.040       107
34.050       147
34.060       160
34.070       187
34.080       167
34.090       227
34.100       247
34.110       200
34.120       193
34.130       187
34.140       193
34.150       187
34.160       160
34.170       180
34.180       187
34.190       187
34.200       193
34.210       213
34.220       160
34.230       140
34.240       193
34.250       213
34.260       220
34.270       187
34.280       127
34.290       233
34.300       200
34.310       160
34.320       160
34.330       240
34.340       220
34.350       187
34.360       160
34.370       240
34.380       133
34.390       200
34.400       180
34.410       147
34.420       140
34.430       167
34.440       160
34.450       207
34.460       233
34.470       187
34.480       133
34.490       207
34.500       153
34.510       127
34.520       233
34.530       213
34.540       167
34.550       113
34.560       187
34.570       200
34.580       193
34.590       200
34.600       233
34.610       153
34.620       213
34.630       213
34.640       200
34.650       160
34.660       233
34.670       193
34.680        87
34.690       167
34.700       173
34.710       133
34.720       220
34.730       213
34.740       173
34.750       160
34.760       160
34.770       140
34.780       180
34.790       153
34.800       133
34.810       253
34.820       227
34.830       127
34.840       147
34.850       187
34.860       167
34.870       233
34.880       173
34.890       207
34.900       167
34.910       187
34.920       153
34.930       180
34.940       173
34.950       167
34.960       180
34.970       187
34.980       187
34.990       187
35.000       147
35.010       200
35.020       193
35.030       167
35.040       180
35.050       113
35.060       113
35.070       160
35.080       120
35.090       167
35.100       147
35.110       173
35.120       187
35.130       173
35.140       193
35.150       180
35.160       127
35.170       200
35.180       233
35.190       160
35.200       133
35.210       207
35.220       147
35.230       133
35.240       140
35.250       240
35.260       127
35.270       107
35.280       133
35.290       213
35.300       133
35.310       113
35.320       153
35.330       180
35.340       113
35.350       147
35.360       140
35.370       207
35.380       107
35.390       160
35.400       133
35.410       140
35.420        73
35.430       147
35.440       120
35.450       173
35.460        93
35.470       193
35.480       180
35.490       153
35.500       173
35.510       160
35.520       127
35.530       140
35.540       160
35.550       140
35.560       187
35.570       147
35.580       133
35.590       147
35.600       133
35.610       120
35.620       153
35.630       113
35.640       200
35.650       147
35.660       133
35.670       213
35.680       180
35.690       173
35.700       160
35.710       140
35.720       153
35.730       193
35.740       140
35.750       167
35.760       100
35.770       140
35.780       147
35.790       147
35.800       120
35.810       133
35.820       167
35.830       127
35.840       160
35.850       113
35.860       153
35.870       207
35.880       140
35.890       113
35.900       160
35.910        93
35.920       173
35.930       180
35.940       107
35.950       140
35.960       113
35.970       173
35.980       113
35.990       147
36.000       133
36.010        93
36.020       120
36.030       187
36.040       133
36.050       107
36.060       127
36.070       113
36.080       133
36.090       140
36.100       173
36.110       107
36.120       140
36.130       127
36.140       120
36.150       133
36.160       120
36.170       120
36.180       147
36.190        93
36.200       180
36.210        60
36.220       113
36.230       173
36.240       107
36.250       187
36.260       193
36.270       167
36.280       127
36.290        47
36.300       173
36.310       113
36.320       133
36.330       127
36.340       127
36.350       167
36.360       120
36.370       187
36.380       147
36.390       167
36.400       107
36.410        93
36.420       147
36.430       153
36.440       160
36.450       100
36.460        67
36.470       193
36.480        93
36.490       127
36.500        87
36.510        87
36.520       147
36.530       120
36.540        73
36.550       200
36.560       153
36.570       160
36.580       140
36.590       180
36.600       100
36.610       147
36.620       100
36.630        80
36.640        93
36.650        67
36.660        87
36.670       140
36.680        67
36.690       107
36.700       107
36.710       133
36.720       133
36.730       100
36.740       120
36.750       140
36.760        60
36.770       120
36.780       113
36.790       127
36.800       160
36.810       173
36.820       113
36.830       120
36.840       133
36.850       200
36.860       120
36.870       100
36.880       140
36.890       120
36.900        60
36.910       140
36.920       153
36.930        87
36.940        67
36.950       120
36.960        87
36.970        80
36.980       133
36.990       173
37.000       107
37.010        93
37.020        87
37.030        73
37.040       113
37.050        87
37.060       160
37.070       107
37.080       127
37.090       127
37.100       120
37.110       107
37.120       107
37.130        93
37.140       120
37.150        73
37.160        60
37.170        80
37.180       107
37.190        93
37.200        53
37.210        93
37.220       140
37.230       147
37.240        93
37.250        93
37.260        73
37.270        73
37.280        87
37.290       113
37.300       153
37.310        87
37.320       127
37.330        93
37.340       120
37.350       140
37.360       113
37.370       133
37.380        93
37.390       107
37.400       120
37.410        93
37.420       113
37.430       120
37.440       120
37.450       127
37.460        93
37.470       147
37.480        67
37.490        93
37.500        93
37.510        80
37.520       120
37.530       133
37.540        73
37.550       147
37.560        60
37.570        93
37.580       120
37.590        93
37.600        80
37.610        73
37.620        80
37.630       167
37.640       133
37.650        73
37.660        80
37.670       113
37.680       107
37.690        40
37.700       107
37.710       107
37.720       127
37.730       140
37.740        87
37.750       100
37.760        53
37.770       127
37.780       100
37.790        93
37.800       113
37.810        93
37.820       120
37.830       100
37.840       140
37.850        53
37.860       107
37.870        73
37.880        40
37.890        73
37.900        67
37.910       100
37.920        80
37.930       113
37.940       100
37.950        93
37.960       120
37.970        80
37.980       100
37.990        67
38.000        73
38.010        93
38.020        80
38.030       140
38.040       160
38.050        93
38.060        93
38.070        87
38.080       120
38.090        93
38.100        93
38.110       113
38.120       100
38.130        80
38.140        47
38.150       140
38.160        93
38.170       113
38.180        67
38.190        67
38.200       107
38.210       120
38.220       107
38.230       100
38.240       140
38.250       107
38.260       113
38.270        93
38.280        73
38.290        80
38.300       100
38.310        53
38.320       120
38.330        60
38.340       120
38.350        80
38.360       120
38.370        87
38.380        47
38.390        80
38.400       107
38.410        67
38.420        80
38.430        93
38.440       107
38.450       100
38.460        67
38.470        80
38.480        67
38.490       113
38.500        93
38.510        53
38.520        93
38.530        53
38.540        87
38.550        87
38.560        67
38.570        93
38.580        60
38.590        60
38.600        87
38.610        67
38.620        60
38.630       147
38.640        53
38.650        87
38.660       120
38.670        87
38.680       120
38.690        67
38.700        53
38.710        87
38.720        93
38.730       113
38.740        87
38.750        87
38.760       100
38.770        73
38.780        93
38.790       107
38.800        80
38.810        53
38.820       113
38.830        60
38.840        67
38.850        73
38.860        60
38.870        80
38.880        60
38.890        80
38.900        80
38.910        53
38.920       120
38.930        67
38.940        40
38.950       107
38.960       107
38.970        73
38.980        73
38.990        80
39.000       100
39.010        93
39.020        67
39.030        53
39.040       113
39.050        60
39.060        73
39.070        73
39.080       113
39.090       107
39.100        93
39.110        67
39.120       107
39.130        60
39.140        60
39.150        93
39.160        67
39.170        53
39.180        67
39.190        73
39.200        87
39.210        73
39.220        80
39.230       133
39.240       133
39.250        53
39.260        47
39.270        80
39.280        73
39.290        53
39.300        67
39.310        40
39.320        53
39.330       100
39.340        80
39.350        53
39.360        67
39.370       107
39.380        53
39.390        80
39.400        33
39.410        47
39.420       113
39.430        40
39.440        80
39.450        67
39.460        93
39.470        60
39.480        87
39.490        67
39.500        33
39.510        60
39.520        33
39.530       100
39.540       100
39.550        80
39.560        73
39.570        73
39.580        53
39.590        60
39.600        47
39.610        73
39.620        73
39.630        73
39.640        40
39.650        47
39.660        93
39.670        53
39.680        67
39.690       100
39.700        40
39.710        80
39.720        67
39.730        87
39.740        87
39.750        67
39.760        73
39.770        80
39.780        73
39.790       107
39.800        27
39.810        80
39.820       100
39.830        40
39.840        20
39.850        40
39.860        60
39.870       100
39.880        73
39.890        87
39.900       147
39.910       133
39.920        27
39.930       113
39.940        87
39.950        87
39.960        87
39.970        47
39.980        67
39.990        73
40.000        47
40.010        67
40.020        53
40.030        67
40.040       127
40.050        87
40.060        47
40.070        60
40.080        73
40.090        53
40.100       100
40.110        80
40.120        73
40.130        73
40.140        67
40.150        47
40.160        87
40.170        40
40.180        67
40.190        33
40.200        60
40.210        47
40.220        67
40.230        67
40.240       100
40.250        87
40.260        87
40.270        87
40.280        60
40.290        67
40.300        67
40.310        40
40.320       160
40.330        53
40.340        53
40.350       107
40.360       100
40.370        80
40.380        93
40.390       107
40.400        67
40.410       113
40.420        53
40.430        47
40.440        20
40.450        67
40.460        67
40.470        53
40.480        93
40.490        60
40.500        47
40.510        60
40.520        67
40.530        73
40.540        60
40.550        93
40.560        47
40.570        87
40.580        53
40.590        67
40.600        60
40.610        47
40.620        87
40.630        53
40.640        40
40.650        93
40.660        40
40.670        60
40.680        60
40.690        60
40.700        80
40.710        67
40.720        53
40.730        60
40.740        93
40.750        73
40.760        47
40.770        40
40.780        67
40.790        80
40.800        67
40.810        40
40.820        67
40.830        33
40.840        67
40.850        60
40.860        40
40.870        53
40.880        87
40.890        33
40.900        47
40.910        67
40.920        40
40.930        53
40.940        53
40.950       100
40.960        40
40.970        40
40.980        87
40.990        60
41.000        47
41.010        87
41.020        40
41.030        53
41.040        80
41.050        80
41.060        67
41.070        33
41.080        60
41.090        80
41.100        27
41.110        53
41.120        73
41.130        87
41.140        47
41.150        53
41.160        40
41.170        47
41.180        60
41.190        33
41.200        27
41.210        80
41.220        67
41.230        20
41.240        93
41.250        40
41.260        33
41.270        67
41.280        13
41.290        47
41.300        40
41.310        93
41.320        47
41.330        53
41.340        40
41.350        93
41.360        67
41.370        87
41.380        20
41.390       100
41.400        67
41.410        60
41.420        27
41.430        27
41.440        53
41.450        67
41.460        60
41.470        47
41.480        20
41.490        67
41.500        20
41.510        73
41.520        67
41.530        53
41.540        40
41.550        47
41.560        53
41.570        53
41.580        60
41.590        67
41.600        67
41.610        33
41.620        67
41.630        60
41.640        73
41.650        53
41.660        47
41.670        60
41.680        33
41.690        73
41.700        87
41.710        27
41.720        27
41.730        27
41.740        27
41.750        53
41.760        53
41.770        60
41.780        73
41.790        47
41.800        60
41.810        53
41.820        40
41.830        47
41.840        53
41.850        33
41.860        93
41.870        33
41.880        47
41.890        40
41.900        67
41.910        60
41.920        40
41.930        73
41.940        67
41.950        33
41.960        47
41.970        93
41.980        53
41.990        27
42.000        67
42.010       107
42.020        73
42.030        47
42.040        53
42.050        33
42.060        40
42.070        33
42.080        73
42.090        73
42.100        27
42.110       100
42.120        60
42.130        40
42.140        40
42.150        80
42.160        47
42.170       120
42.180        33
42.190        40
42.200        33
42.210        73
42.220        60
42.230        47
42.240        67
42.250        53
42.260        73
42.270        33
42.280        87
42.290        67
42.300        60
42.310        47
42.320        40
42.330        73
42.340        53
42.350        67
42.360        73
42.370        40
42.380        73
42.390        80
42.400        47
42.410        27
42.420        73
42.430       113
42.440        60
42.450        80
42.460        80
42.470        67
42.480        60
42.490       107
42.500        67
42.510        80
42.520        93
42.530        47
42.540        40
42.550        53
42.560       120
42.570        60
42.580        67
42.590        53
42.600        60
42.610        67
42.620        60
42.630        73
42.640        67
42.650        40
42.660        60
42.670        87
42.680        73
42.690        53
42.700        40
42.710        40
42.720        73
42.730        40
42.740        53
42.750        73
42.760        53
42.770        27
42.780        80
42.790        67
42.800        80
42.810        53
42.820        47
42.830       107
42.840        13
42.850        80
42.860        60
42.870        33
42.880        60
42.890        53
42.900        73
42.910        87
42.920        53
42.930        53
42.940        33
42.950        33
42.960        20
42.970        47
42.980        53
42.990        40
43.000        60
43.010        73
43.020        47
43.030        67
43.040        33
43.050        40
43.060        33
43.070        40
43.080        53
43.090        33
43.100        33
43.110        27
43.120        53
43.130        87
43.140        47
43.150        40
43.160        47
43.170        47
43.180        53
43.190        47
43.200        33
43.210        27
43.220        80
43.230        60
43.240        33
43.250        13
43.260        33
43.270        33
43.280        67
43.290        27
43.300        53
43.310        13
43.320        20
43.330        13
43.340        60
43.350        33
43.360        53
43.370        40
43.380        47
43.390        60
43.400        53
43.410        67
43.420        33
43.430        60
43.440        27
43.450        40
43.460        33
43.470        33
43.480        53
43.490        27
43.500        47
43.510        20
43.520        13
43.530        73
43.540        33
43.550        53
43.560        53
43.570        40
43.580        33
43.590        40
43.600        60
43.610        80
43.620        27
43.630        20
43.640        53
43.650        73
43.660        80
43.670        47
43.680        27
43.690        47
43.700        60
43.710        60
43.720        67
43.730        40
43.740        20
43.750        47
43.760        47
43.770        60
43.780        33
43.790        40
43.800        13
43.810        27
43.820        20
43.830        20
43.840        40
43.850        67
43.860        47
43.870        33
43.880        40
43.890        53
43.900        53
43.910        73
43.920        47
43.930        47
43.940        40
43.950        27
43.960        40
43.970        20
43.980        40
43.990        40
44.000        40
44.010        53
44.020        33
44.030        80
44.040        67
44.050        53
44.060        67
44.070        40
44.080        47
44.090        40
44.100        47
44.110        53
44.120        40
44.130        33
44.140        40
44.150        27
44.160        40
44.170        47
44.180        47
44.190        53
44.200        47
44.210        53
44.220        33
44.230        40
44.240        20
44.250        20
44.260        53
44.270        73
44.280        20
44.290        67
44.300         7
44.310        40
44.320        27
44.330        20
44.340        60
44.350        40
44.360        53
44.370        67
44.380        60
44.390        20
44.400        47
44.410        27
44.420         7
44.430        33
44.440        33
44.450        47
44.460        60
44.470        33
44.480        53
44.490        53
44.500        40
44.510        53
44.520        33
44.530        47
44.540        33
44.550        20
44.560        87
44.570        20
44.580        53
44.590        33
44.600        33
44.610        60
44.620        53
44.630        53
44.640        40
44.650        47
44.660        13
44.670        53
44.680        53
44.690        20
44.700        47
44.710        27
44.720        27
44.730        53
44.740        13
44.750        13
44.760        20
44.770        53
44.780        67
44.790        40
44.800        33
44.810        40
44.820        40
44.830        53
44.840        33
44.850        47
44.860        53
44.870        13
44.880        20
44.890        47
44.900        53
44.910        20
44.920        40
44.930        40
44.940        27
44.950        67
44.960        40
44.970        73
44.980        33
44.990        27
45.000        40
45.010        53
45.020        40
45.030        73
45.040        53
45.050        27
45.060        33
45.070        40
45.080        27
45.090        27
45.100        53
45.110        47
45.120        47
45.130        53
45.140        40
45.150        47
45.160        47
45.170        27
45.180        20
45.190        73
45.200        40
45.210        20
45.220        47
45.230        40
45.240        20
45.250        53
45.260        33
45.270        47
45.280        27
45.290        53
45.300        53
45.310         7
45.320        60
45.330        20
45.340        33
45.350        27
45.360        40
45.370        33
45.380        53
45.390        27
45.400        40
45.410        47
45.420        33
45.430        67
45.440        33
45.450        40
45.460        27
45.470        40
45.480        27
45.490        20
45.500        20
45.510        53
45.520        27
45.530        20
45.540        13
45.550        47
45.560        13
45.570        33
45.580        67
45.590        73
45.600        47
45.610        53
45.620        47
45.630        27
45.640        33
45.650        27
45.660        13
45.670        40
45.680        40
45.690        33
45.700        27
45.710        20
45.720        40
45.730        40
45.740        47
45.750        33
45.760        33
45.770        53
45.780        27
45.790        20
45.800        47
45.810        73
45.820        47
45.830        67
45.840        40
45.850        33
45.860        27
45.870        53
45.880        53
45.890        53
45.900        20
45.910        33
45.920        53
45.930        53
45.940        67
45.950        40
45.960        13
45.970        33
45.980        27
45.990        47
46.000        67
46.010        47
46.020        53
46.030        27
46.040        67
46.050        47
46.060        67
46.070        40
46.080         7
46.090        33
46.100        47
46.110        60
46.120        27
46.130        40
46.140        73
46.150        80
46.160        27
46.170        67
46.180        93
46.190        33
46.200        73
46.210        60
46.220        40
46.230        60
46.240        33
46.250        53
46.260        53
46.270        47
46.280        67
46.290        87
46.300        27
46.310        47
46.320        33
46.330        47
46.340        47
46.350        73
46.360        53
46.370        47
46.380        47
46.390        80
46.400        27
46.410        20
46.420        60
46.430        27
46.440        40
46.450        47
46.460        27
46.470        47
46.480        33
46.490        27
46.500        33
46.510        67
46.520        33
46.530        40
46.540        47
46.550        60
46.560        27
46.570        47
46.580        87
46.590        53
46.600        27
46.610        33
46.620        80
46.630        73
46.640        33
46.650        80
46.660        60
46.670        47
46.680        67
46.690        67
46.700        47
46.710        53
46.720        33
46.730        53
46.740        93
46.750        80
46.760        67
46.770        53
46.780        73
46.790       107
46.800        73
46.810        87
46.820        80
46.830       113
46.840       127
46.850       120
46.860       113
46.870       173
46.880       127
46.890        80
46.900        93
46.910       113
46.920       107
46.930       100
46.940        87
46.950        60
46.960       100
46.970       133
46.980       100
46.990       147
47.000       193
47.010       113
47.020        93
47.030       147
47.040       113
47.050       133
47.060       140
47.070       127
47.080       153
47.090       207
47.100       267
47.110       220
47.120       260
47.130       333
47.140       420
47.150       520
47.160       846
47.170      1026
47.180      1393
47.190      1899
47.200      1973
47.210      2126
47.220      2212
47.230      2066
47.240      1926
47.250      1713
47.260      1286
47.270       706
47.280       526
47.290       453
47.300       407
47.310       453
47.320       333
47.330       213
47.340       187
47.350       173
47.360       120
47.370       153
47.380       153
47.390       147
47.400       147
47.410       120
47.420        67
47.430       147
47.440        87
47.450       140
47.460        87
47.470        80
47.480       100
47.490        67
47.500       100
47.510        80
47.520        67
47.530        53
47.540        67
47.550        80
47.560        60
47.570       120
47.580        53
47.590        53
47.600        53
47.610        73
47.620        47
47.630       100
47.640        53
47.650        73
47.660        53
47.670        80
47.680        73
47.690        67
47.700        73
47.710        47
47.720        13
47.730        87
47.740        47
47.750        67
47.760        60
47.770        47
47.780        40
47.790        67
47.800        80
47.810       120
47.820        80
47.830        53
47.840        40
47.850        53
47.860        73
47.870        67
47.880       107
47.890        67
47.900        60
47.910        60
47.920        33
47.930        67
47.940        73
47.950        27
47.960        53
47.970        13
47.980        53
47.990        53
48.000        73
48.010        33
48.020        13
48.030        60
48.040        60
48.050        53
48.060        73
48.070        33
48.080        33
48.090        40
48.100        40
48.110        40
48.120        60
48.130        40
48.140        53
48.150        20
48.160        13
48.170        93
48.180        67
48.190        53
48.200        47
48.210        47
48.220        67
48.230        67
48.240        53
48.250        60
48.260        47
48.270        87
48.280        67
48.290        40
48.300        60
48.310        60
48.320        47
48.330        53
48.340        33
48.350        33
48.360        33
48.370        33
48.380        60
48.390         7
48.400        40
48.410        13
48.420        73
48.430        73
48.440        20
48.450        40
48.460        47
48.470        47
48.480        47
48.490        53
48.500        67
48.510        33
48.520        33
48.530        40
48.540        40
48.550        33
48.560        27
48.570        53
48.580        27
48.590        33
48.600        40
48.610        40
48.620        40
48.630        33
48.640        47
48.650        27
48.660       100
48.670        40
48.680        53
48.690        33
48.700        40
48.710        33
48.720        53
48.730        47
48.740        33
48.750        20
48.760        40
48.770        53
48.780        87
48.790        27
48.800        20
48.810        33
48.820        60
48.830        20
48.840        60
48.850        67
48.860        73
48.870        20
48.880        40
48.890        73
48.900        27
48.910        73
48.920        80
48.930        73
48.940        47
48.950        33
48.960        73
48.970        40
48.980        60
48.990        60
49.000        73
49.010        27
49.020        27
49.030        53
49.040        53
49.050        73
49.060        67
49.070        20
49.080        80
49.090        60
49.100        47
49.110        47
49.120        60
49.130        53
49.140        40
49.150        80
49.160        40
49.170        80
49.180        67
49.190        67
49.200        60
49.210        53
49.220        27
49.230        47
49.240        73
49.250        87
49.260        47
49.270       100
49.280       100
49.290        67
49.300        93
49.310        47
49.320        53
49.330        80
49.340        33
49.350        40
49.360        67
49.370        40
49.380        60
49.390        33
49.400        67
49.410        47
49.420        80
49.430        60
49.440        53
49.450        60
49.460        47
49.470        87
49.480        33
49.490        33
49.500        33
49.510        20
49.520        60
49.530        40
49.540        47
49.550        47
49.560        60
49.570        33
49.580        33
49.590        40
49.600        27
49.610        40
49.620        33
49.630        27
49.640        47
49.650        47
49.660        67
49.670        27
49.680        40
49.690        27
49.700         7
49.710        53
49.720        53
49.730        67
49.740        40
49.750        47
49.760        47
49.770        40
49.780        40
49.790        53
49.800       113
49.810        33
49.820        33
49.830        73
49.840        60
49.850        47
49.860       107
49.870        47
49.880       100
49.890        40
49.900        40
49.910        27
49.920        40
49.930        40
49.940        47
49.950        40
49.960        67
49.970        67
49.980        40
49.990        53
50.000        87
50.010        27
50.020        47
50.030        40
50.040        80
50.050        33
50.060        40
50.070        67
50.080        33
50.090        33
50.100        33
50.110        40
50.120        40
50.130        27
50.140        33
50.150        27
50.160        27
50.170        47
50.180        20
50.190        60
50.200        60
50.210        40
50.220        60
50.230        33
50.240        40
50.250        33
50.260        60
50.270        13
50.280        33
50.290        40
50.300        47
50.310        53
50.320        20
50.330        73
50.340        47
50.350        33
50.360        33
50.370        27
50.380        53
50.390        40
50.400        67
50.410        40
50.420        27
50.430        53
50.440        47
50.450        47
50.460        87
50.470        60
50.480        27
50.490        67
50.500        60
50.510        80
50.520        73
50.530        47
50.540        47
50.550        53
50.560        73
50.570        53
50.580        80
50.590       100
50.600        87
50.610       100
50.620        53
50.630        73
50.640       100
50.650       207
50.660       200
50.670       327
50.680       253
50.690       380
50.700       327
50.710       347
50.720       540
50.730       520
50.740       553
50.750       526
50.760       580
50.770       460
50.780       566
50.790       613
50.800       580
50.810       526
50.820       713
50.830       500
50.840       573
50.850       613
50.860       600
50.870       620
50.880       646
50.890       633
50.900       660
50.910       586
50.920       533
50.930       626
50.940       633
50.950       493
50.960       553
50.970       566
50.980       600
50.990       520
51.000       653
51.010       526
51.020       626
51.030       486
51.040       666
51.050       586
51.060       500
51.070       620
51.080       640
51.090       626
51.100       613
51.110       553
51.120       606
51.130       580
51.140       520
51.150       560
51.160       633
51.170       626
51.180       520
51.190       660
51.200       706
51.210       573
51.220       560
51.230       573
51.240       526
51.250       646
51.260       553
51.270       600
51.280       526
51.290       526
51.300       653
51.310       566
51.320       546
51.330       560
51.340       600
51.350       633
51.360       626
51.370       646
51.380       620
51.390       713
51.400       720
51.410       513
51.420       606
51.430       653
51.440       626
51.450       580
51.460       600
51.470       666
51.480       593
51.490       600
51.500       493
51.510       593
51.520       553
51.530       560
51.540       573
51.550       633
51.560       586
51.570       573
51.580       566
51.590       660
51.600       626
51.610       620
51.620       566
51.630       546
51.640       646
51.650       700
51.660       633
51.670       673
51.680       653
51.690       613
51.700       633
51.710       633
51.720       673
51.730       766
51.740       593
51.750       633
51.760       626
51.770       733
51.780       606
51.790       566
51.800       620
51.810       786
51.820       706
51.830       680
51.840       646
51.850       593
51.860       793
51.870       753
51.880       660
51.890       786
51.900       800
51.910       913
51.920       700
51.930       760
51.940       880
51.950       753
51.960       853
51.970       826
51.980       853
51.990       700
52.000       833
52.010       873
52.020       746
52.030       853
52.040       966
52.050       780
52.060       946
52.070       813
52.080       993
52.090      1033
52.100      1073
52.110       900
52.120       940
52.130      1073
52.140      1066
52.150      1073
52.160      1066
52.170      1080
52.180      1086
52.190      1220
52.200      1413
52.210      1406
52.220      1473
52.230      1453
52.240      1246
52.250      1499
52.260      1653
52.270      1886
52.280      2179
52.290      2186
52.300      2392
52.310      2666
52.320      3019
52.330      3818
52.340      3998
52.350      4272
52.360      5398
52.370      5611
52.380      6511
52.390      7457
52.400      7877
52.410      9190
52.420     10016
52.430     10416
52.440     11929
52.450     12981
52.460     12921
52.470     14501
52.480     15447
52.490     16867
52.500     17733
52.510     21265
52.520     24030
52.530     30255
52.540     38125
52.550     54925
52.560     85759
52.570    125903
52.580    165327
52.590    195422
52.600    214541
52.610    222851
52.620    223244
52.630    217080
52.640    195275
52.650    160236
52.660    118746
52.670     84200
52.680     64854
52.690     60383
52.700     68439
52.710     84313
52.720    107377
52.730    123571
52.740    135373
52.750    140477
52.760    139851
52.770    131634
52.780    113901
52.790     90284
52.800     65027
52.810     42543
52.820     29408
52.830     21212
52.840     17146
52.850     13854
52.860     11949
52.870     10009
52.880      8543
52.890      7644
52.900      6404
52.910      6098
52.920      4718
52.930      4338
52.940      3865
52.950      3265
52.960      3012
52.970      2772
52.980      2626
52.990      2266
53.000      2266
53.010      2086
53.020      2073
53.030      2026
53.040      1806
53.050      1779
53.060      1759
53.070      1826
53.080      1233
53.090      1459
53.100      1566
53.110      1386
53.120      1226
53.130      1273
53.140      1273
53.150      1073
53.160      1313
53.170      1106
53.180      1126
53.190      1259
53.200      1046
53.210      1086
53.220      1100
53.230      1120
53.240      1113
53.250       986
53.260       866
53.270      1180
53.280       920
53.290       913
53.300       926
53.310       906
53.320       940
53.330       893
53.340       760
53.350       913
53.360       900
53.370       766
53.380       913
53.390       846
53.400       813
53.410       953
53.420       760
53.430       666
53.440       713
53.450       746
53.460       773
53.470       793
53.480       666
53.490       613
53.500       653
53.510       813
53.520       640
53.530       673
53.540       760
53.550       620
53.560       813
53.570       740
53.580       693
53.590       666
53.600       580
53.610       466
53.620       626
53.630       566
53.640       660
53.650       540
53.660       566
53.670       533
53.680       586
53.690       506
53.700       633
53.710       706
53.720       686
53.730       593
53.740       586
53.750       613
53.760       506
53.770       600
53.780       440
53.790       793
53.800       533
53.810       566
53.820       673
53.830       540
53.840       746
53.850       540
53.860       600
53.870       526
53.880       506
53.890       546
53.900       600
53.910       460
53.920       486
53.930       400
53.940       513
53.950       506
53.960       613
53.970       606
53.980       380
53.990       506
54.000       453
54.010       626
54.020       520
54.030       360
54.040       466
54.050       460
54.060       513
54.070       446
54.080       433
54.090       493
54.100       533
54.110       466
54.120       466
54.130       466
54.140       473
54.150       446
54.160       513
54.170       413
54.180       486
54.190       520
54.200       453
54.210       420
54.220       400
54.230       407
54.240       480
54.250       480
54.260       560
54.270       566
54.280       420
54.290       426
54.300       426
54.310       526
54.320       380
54.330       453
54.340       453
54.350       426
54.360       506
54.370       420
54.380       473
54.390       407
54.400       400
54.410       453
54.420       393
54.430       426
54.440       320
54.450       373
54.460       433
54.470       453
54.480       440
54.490       446
54.500       380
54.510       426
54.520       400
54.530       413
54.540       433
54.550       440
54.560       473
54.570       453
54.580       533
54.590       380
54.600       473
54.610       426
54.620       486
54.630       380
54.640       333
54.650       413
54.660       380
54.670       473
54.680       333
54.690       493
54.700       453
54.710       460
54.720       327
54.730       393
54.740       267
54.750       400
54.760       353
54.770       453
54.780       500
54.790       373
54.800       300
54.810       426
54.820       380
54.830       446
54.840       353
54.850       287
54.860       380
54.870       360
54.880       407
54.890       373
54.900       360
54.910       413
54.920       387
54.930       340
54.940       400
54.950       380
54.960       367
54.970       407
54.980       407
54.990       360
55.000       446
55.010       307
55.020       360
55.030       300
55.040       400
55.050       426
55.060       367
55.070       393
55.080       426
55.090       393
55.100       367
55.110       360
55.120       400
55.130       347
55.140       466
55.150       260
55.160       273
55.170       360
55.180       213
55.190       387
55.200       307
55.210       273
55.220       433
55.230       373
55.240       307
55.250       247
55.260       373
55.270       393
55.280       327
55.290       260
55.300       313
55.310       373
55.320       353
55.330       353
55.340       287
55.350       426
55.360       300
55.370       360
55.380       333
55.390       227
55.400       373
55.410       287
55.420       240
55.430       353
55.440       420
55.450       340
55.460       440
55.470       327
55.480       340
55.490       373
55.500       293
55.510       387
55.520       353
55.530       426
55.540       360
55.550       300
55.560       367
55.570       360
55.580       233
55.590       353
55.600       327
55.610       280
55.620       333
55.630       353
55.640       320
55.650       340
55.660       280
55.670       360
55.680       313
55.690       393
55.700       300
55.710       340
55.720       373
55.730       300
55.740       360
55.750       273
55.760       293
55.770       367
55.780       313
55.790       260
55.800       313
55.810       253
55.820       320
55.830       327
55.840       300
55.850       327
55.860       260
55.870       307
55.880       287
55.890       340
55.900       327
55.910       353
55.920       333
55.930       260
55.940       313
55.950       347
55.960       347
55.970       407
55.980       367
55.990       267
56.000       280
56.010       320
56.020       260
56.030       360
56.040       327
56.050       280
56.060       373
56.070       307
56.080       267
56.090       260
56.100       227
56.110       273
56.120       353
56.130       387
56.140       347
56.150       273
56.160       227
56.170       227
56.180       320
56.190       260
56.200       280
56.210       267
56.220       300
56.230       280
56.240       300
56.250       253
56.260       273
56.270       333
56.280       280
56.290       280
56.300       293
56.310       313
56.320       180
56.330       327
56.340       347
56.350       187
56.360       273
56.370       273
56.380       353
56.390       213
56.400       200
56.410       327
56.420       220
56.430       240
56.440       307
56.450       227
56.460       280
56.470       280
56.480       293
56.490       287
56.500       273
56.510       287
56.520       307
56.530       267
56.540       307
56.550       333
56.560       413
56.570       247
56.580       300
56.590       293
56.600       233
56.610       227
56.620       240
56.630       380
56.640       280
56.650       220
56.660       233
56.670       327
56.680       267
56.690       300
56.700       233
56.710       280
56.720       333
56.730       280
56.740       333
56.750       293
56.760       227
56.770       327
56.780       180
56.790       247
56.800       267
56.810       233
56.820       300
56.830       260
56.840       267
56.850       320
56.860       253
56.870       247
56.880       240
56.890       207
56.900       280
56.910       233
56.920       267
56.930       247
56.940       280
56.950       280
56.960       293
56.970       327
56.980       280
56.990       253
57.000       253
57.010       300
57.020       320
57.030       267
57.040       233
57.050       227
57.060       293
57.070       267
57.080       260
57.090       213
57.100       287
57.110       240
57.120       253
57.130       293
57.140       207
57.150       253
57.160       293
57.170       240
57.180       260
57.190       260
57.200       253
57.210       220
57.220       253
57.230       253
57.240       260
57.250       300
57.260       187
57.270       313
57.280       240
57.290       227
57.300       307
57.310       247
57.320       300
57.330       307
57.340       293
57.350       220
57.360       260
57.370       287
57.380       200
57.390       220
57.400       247
57.410       240
57.420       260
57.430       247
57.440       280
57.450       240
57.460       287
57.470       313
57.480       320
57.490       260
57.500       293
57.510       227
57.520       227
57.530       187
57.540       253
57.550       160
57.560       207
57.570       227
57.580       307
57.590       287
57.600       307
57.610       307
57.620       253
57.630       267
57.640       373
57.650       267
57.660       253
57.670       353
57.680       213
57.690       240
57.700       173
57.710       213
57.720       267
57.730       273
57.740       287
57.750       200
57.760       207
57.770       253
57.780       180
57.790       220
57.800       213
57.810       220
57.820       213
57.830       207
57.840       267
57.850       180
57.860       187
57.870       253
57.880       260
57.890       200
57.900       187
57.910       267
57.920       260
57.930       260
57.940       280
57.950       227
57.960       187
57.970       153
57.980       180
57.990       233
58.000       227
58.010       200
58.020       253
58.030       207
58.040       273
58.050       260
58.060       180
58.070       180
58.080       260
58.090       227
58.100       287
58.110       227
58.120       193
58.130       213
58.140       207
58.150       180
58.160       240
58.170       233
58.180       273
58.190       260
58.200       133
58.210       200
58.220       227
58.230       167
58.240       187
58.250       253
58.260       180
58.270       127
58.280       213
58.290       287
58.300       167
58.310       233
58.320       147
58.330       193
58.340       247
58.350       260
58.360       180
58.370       173
58.380       267
58.390       187
58.400       133
58.410       173
58.420       193
58.430       193
58.440       240
58.450       207
58.460       253
58.470       153
58.480       207
58.490       280
58.500       200
58.510       193
58.520       247
58.530       207
58.540       153
58.550       187
58.560       140
58.570       280
58.580       280
58.590       207
58.600       200
58.610       240
58.620       253
58.630       200
58.640       153
58.650       193
58.660       187
58.670       200
58.680       233
58.690       253
58.700       227
58.710       227
58.720       247
58.730       220
58.740       167
58.750       187
58.760       227
58.770       167
58.780       173
58.790       240
58.800       247
58.810       193
58.820       207
58.830       240
58.840       160
58.850       200
58.860       213
58.870       233
58.880       220
58.890       227
58.900       193
58.910       253
58.920       173
58.930       220
58.940       233
58.950       220
58.960       253
58.970       147
58.980       160
58.990       173
59.000       133
59.010       180
59.020       153
59.030       140
59.040       167
59.050       180
59.060       147
59.070       240
59.080       187
59.090       260
59.100       140
59.110       227
59.120       273
59.130       180
59.140       253
59.150       227
59.160       147
59.170       247
59.180       233
59.190       200
59.200       100
59.210       167
59.220       187
59.230       220
59.240       300
59.250       200
59.260       227
59.270       180
59.280       200
59.290       160
59.300       207
59.310       187
59.320       127
59.330       133
59.340       207
59.350       207
59.360       233
59.370       133
59.380       220
59.390       140
59.400       220
59.410       160
59.420       220
59.430       193
59.440       200
59.450       220
59.460       180
59.470       173
59.480       233
59.490       213
59.500       193
59.510       153
59.520       207
59.530       233
59.540       207
59.550       133
59.560       160
59.570       233
59.580       180
59.590       220
59.600       187
59.610       260
59.620       133
59.630       160
59.640       213
59.650       227
59.660       233
59.670       167
59.680       180
59.690       180
59.700       160
59.710       200
59.720       233
59.730       227
59.740       173
59.750       193
59.760       167
59.770       140
59.780       187
59.790       140
59.800       240
59.810       153
59.820       127
59.830       220
59.840       153
59.850       213
59.860       233
59.870       113
59.880       153
59.890       200
59.900       207
59.910       133
59.920       187
59.930       140
59.940       107
59.950       187
59.960       180
59.970       113
59.980       127
59.990       187
60.000       147
