20.000        93
20.010       147
20.020       160
20.030        73
20.040        93
20.050       153
20.060       113
20.070       147
20.080       153
20.090        67
20.100        93
20.110       120
20.120       140
20.130       100
20.140       153
20.150       107
20.160       173
20.170        67
20.180       120
20.190       120
20.200       140
20.210        67
20.220       127
20.230       113
20.240       127
20.250        80
20.260       100
20.270        80
20.280       113
20.290       107
20.300       180
20.310       140
20.320       147
20.330        60
20.340       113
20.350        93
20.360       140
20.370       107
20.380       140
20.390       120
20.400       100
20.410        73
20.420       100
20.430       113
20.440       113
20.450       107
20.460       100
20.470       127
20.480       113
20.490       140
20.500        87
20.510        93
20.520       120
20.530       100
20.540       140
20.550       127
20.560        93
20.570        93
20.580        93
20.590       100
20.600       120
20.610       100
20.620       133
20.630       167
20.640       120
20.650       127
20.660       127
20.670       100
20.680       140
20.690       120
20.700       100
20.710       133
20.720       100
20.730       167
20.740       113
20.750       133
20.760       160
20.770        80
20.780       100
20.790       100
20.800        73
20.810        93
20.820       153
20.830       127
20.840        67
20.850       153
20.860       100
20.870       113
20.880       113
20.890       127
20.900       100
20.910       147
20.920       100
20.930        93
20.940        73
20.950       140
20.960       113
20.970       160
20.980       167
20.990       107
21.000       100
21.010       113
21.020       127
21.030        87
21.040       140
21.050       133
21.060       113
21.070       153
21.080       140
21.090       107
21.100       120
21.110       160
21.120       100
21.130        80
21.140       113
21.150       120
21.160        80
21.170        87
21.180       113
21.190        60
21.200       113
21.210        47
21.220       153
21.230       133
21.240       167
21.250       100
21.260       100
21.270       147
21.280       133
21.290       147
21.300       147
21.310       100
21.320        87
21.330       153
21.340       133
21.350       113
21.360       100
21.370       113
21.380       147
21.390        80
21.400        73
21.410       140
21.420       127
21.430       100
21.440        67
21.450        87
21.460       107
21.470       120
21.480       140
21.490        87
21.500        60
21.510       133
21.520       100
21.530       127
21.540       140
21.550       160
21.560       113
21.570       193
21.580        60
21.590       107
21.600       147
21.610       167
21.620       133
21.630       133
21.640        93
21.650       127
21.660       113
21.670        87
21.680       180
21.690       120
21.700       160
21.710       140
21.720       140
21.730       113
21.740        93
21.750       153
21.760       113
21.770       107
21.780       167
21.790       160
21.800        73
21.810       113
21.820       140
21.830       107
21.840       173
21.850       140
21.860       180
21.870       160
21.880        80
21.890       120
21.900       133
21.910       127
21.920       153
21.930       187
21.940       107
21.950       147
21.960       113
21.970       147
21.980       127
21.990       140
22.000       140
22.010       140
22.020       167
22.030       167
22.040       127
22.050       120
22.060       113
22.070       140
22.080       173
22.090       180
22.100       153
22.110       153
22.120       180
22.130       147
22.140       207
22.150       147
22.160       127
22.170       213
22.180       147
22.190        93
22.200       193
22.210       173
22.220       147
22.230       167
22.240       180
22.250       173
22.260       187
22.270       153
22.280       220
22.290       167
22.300       133
22.310       180
22.320       187
22.330       127
22.340       153
22.350       213
22.360       160
22.370       207
22.380       187
22.390       200
22.400       160
22.410       167
22.420       160
22.430       160
22.440       133
22.450       200
22.460       193
22.470       160
22.480       187
22.490       153
22.500       207
22.510       113
22.520       200
22.530       173
22.540       147
22.550       113
22.560       147
22.570       160
22.580       200
22.590       180
22.600       187
22.610       200
22.620       173
22.630       220
22.640       207
22.650       187
22.660       160
22.670       200
22.680       120
22.690       193
22.700       180
22.710       153
22.720       120
22.730       113
22.740       220
22.750       187
22.760       140
22.770       173
22.780       200
22.790       167
22.800       113
22.810       207
22.820       200
22.830       233
22.840       200
22.850       207
22.860       187
22.870       253
22.880       220
22.890       193
22.900       267
22.910       180
22.920       233
22.930       273
22.940       273
22.950       267
22.960       307
22.970       287
22.980       320
22.990       273
23.000       300
23.010       287
23.020       327
23.030       353
23.040       440
23.050       760
23.060      1213
23.070      1693
23.080      1913
23.090      1939
23.100      2099
23.110      2119
23.120      1846
23.130      1393
23.140      1026
23.150       700
23.160       493
23.170       480
23.180       433
23.190       380
23.200       307
23.210       220
23.220       267
23.230       380
23.240       267
23.250       233
23.260       280
23.270       287
23.280       240
23.290       207
23.300       233
23.310       287
23.320       287
23.330       207
23.340       193
23.350       200
23.360       180
23.370       247
23.380       193
23.390       260
23.400       193
23.410       220
23.420       253
23.430       260
23.440       180
23.450       220
23.460       167
23.470       207
23.480       213
23.490       267
23.500       200
23.510       213
23.520       173
23.530       187
23.540       253
23.550       167
23.560       220
23.570       253
23.580       260
23.590       233
23.600       180
23.610       180
23.620       167
23.630       253
23.640       207
23.650       187
23.660       200
23.670       233
23.680       193
23.690       173
23.700       253
23.710       180
23.720       140
23.730       220
23.740       200
23.750       167
23.760       200
23.770       173
23.780       200
23.790       207
23.800       167
23.810       173
23.820       247
23.830       200
23.840       260
23.850       213
23.860       207
23.870       220
23.880       207
23.890       267
23.900       227
23.910       233
23.920       247
23.930       213
23.940       220
23.950       247
23.960       187
23.970       193
23.980       180
23.990       280
24.000       200
24.010       140
24.020       273
24.030       233
24.040       240
24.050       187
24.060       220
24.070       193
24.080       233
24.090       173
24.100       213
24.110       180
24.120       200
24.130       233
24.140       173
24.150       240
24.160       200
24.170       267
24.180       133
24.190       127
24.200       220
24.210       233
24.220       227
24.230       213
24.240       173
24.250       160
24.260       247
24.270       180
24.280       147
24.290       187
24.300       167
24.310       193
24.320       253
24.330       207
24.340       213
24.350       227
24.360       233
24.370       200
24.380       293
24.390       220
24.400       207
24.410       213
24.420       207
24.430       213
24.440       273
24.450       213
24.460       233
24.470       233
24.480       260
24.490       240
24.500       173
24.510       200
24.520       233
24.530       273
24.540       253
24.550       220
24.560       233
24.570       260
24.580       193
24.590       267
24.600       267
24.610       240
24.620       240
24.630       287
24.640       333
24.650       240
24.660       420
24.670       293
24.680       307
24.690       347
24.700       506
24.710       553
24.720       740
24.730       780
24.740       746
24.750       926
24.760      1046
24.770      1000
24.780      1100
24.790       806
24.800       920
24.810       953
24.820      1126
24.830       986
24.840       986
24.850       840
24.860      1093
24.870       860
24.880      1193
24.890      1033
24.900       913
24.910       766
24.920       893
24.930       980
24.940       960
24.950      1020
24.960      1040
24.970       973
24.980      1040
24.990      1020
25.000       853
25.010       946
25.020       953
25.030      1153
25.040      1033
25.050       986
25.060      1040
25.070      1073
25.080       980
25.090       913
25.100      1026
25.110      1013
25.120      1146
25.130       860
25.140      1073
25.150      1166
25.160       966
25.170      1160
25.180      1126
25.190      1153
25.200      1186
25.210      1213
25.220      1213
25.230      1080
25.240      1133
25.250      1166
25.260      1126
25.270      1313
25.280      1240
25.290      1206
25.300      1273
25.310      1473
25.320      1399
25.330      1493
25.340      1646
25.350      1906
25.360      2432
25.370      2939
25.380      3765
25.390      4485
25.400      5451
25.410      6911
25.420      7550
25.430      9223
25.440      9783
25.450     11249
25.460     12288
25.470     13981
25.480     14781
25.490     15654
25.500     16180
25.510     17806
25.520     19292
25.530     23331
25.540     32980
25.550     60496
25.560    102192
25.570    144336
25.580    169752
25.590    180075
25.600    186159
25.610    189371
25.620    193343
25.630    181654
25.640    163021
25.650    136965
25.660    123311
25.670    116460
25.680    111975
25.690     99680
25.700     75990
25.710     49074
25.720     28095
25.730     18846
25.740     14827
25.750     12348
25.760     10363
25.770      8730
25.780      7051
25.790      6271
25.800      4878
25.810      4478
25.820      3679
25.830      3385
25.840      2832
25.850      2206
25.860      2053
25.870      1813
25.880      1726
25.890      1799
25.900      1699
25.910      1379
25.920      1453
25.930      1446
25.940      1519
25.950      1366
25.960      1433
25.970      1253
25.980      1379
25.990      1253
26.000      1180
26.010      1186
26.020      1080
26.030      1233
26.040      1046
26.050      1100
26.060      1146
26.070      1013
26.080       973
26.090      1026
26.100      1000
26.110      1093
26.120      1066
26.130       933
26.140       860
26.150      1033
26.160       920
26.170      1073
26.180       966
26.190       813
26.200       746
26.210       866
26.220       846
26.230       980
26.240       793
26.250       973
26.260       833
26.270       773
26.280       746
26.290       873
26.300       833
26.310       813
26.320       766
26.330       886
26.340       966
26.350       740
26.360       986
26.370       693
26.380       980
26.390       653
26.400       793
26.410       780
26.420       800
26.430       820
26.440       820
26.450       813
26.460       746
26.470       706
26.480       793
26.490       753
26.500       646
26.510       706
26.520       826
26.530       733
26.540       753
26.550       746
26.560       713
26.570       706
26.580       753
26.590       700
26.600       660
26.610       653
26.620       713
26.630       766
26.640       673
26.650       780
26.660       713
26.670       653
26.680       740
26.690       546
26.700       826
26.710       806
26.720       720
26.730       620
26.740       793
26.750       720
26.760       780
26.770       700
26.780       813
26.790       673
26.800       633
26.810       673
26.820       613
26.830       720
26.840       820
26.850       566
26.860       560
26.870       713
26.880       606
26.890       686
26.900       653
26.910       600
26.920       760
26.930       680
26.940       613
26.950       766
26.960       600
26.970       513
26.980       653
26.990       666
27.000       653
27.010       680
27.020       626
27.030       713
27.040       566
27.050       633
27.060       600
27.070       593
27.080       646
27.090       626
27.100       546
27.110       626
27.120       666
27.130       653
27.140       680
27.150       686
27.160       593
27.170       673
27.180       566
27.190       673
27.200       640
27.210       660
27.220       560
27.230       600
27.240       613
27.250       613
27.260       546
27.270       533
27.280       593
27.290       640
27.300       633
27.310       673
27.320       573
27.330       653
27.340       633
27.350       700
27.360       573
27.370       653
27.380       566
27.390       566
27.400       580
27.410       500
27.420       713
27.430       546
27.440       626
27.450       533
27.460       546
27.470       573
27.480       506
27.490       526
27.500       606
27.510       640
27.520       526
27.530       586
27.540       573
27.550       573
27.560       486
27.570       553
27.580       546
27.590       593
27.600       526
27.610       513
27.620       746
27.630       566
27.640       526
27.650       526
27.660       606
27.670       580
27.680       600
27.690       580
27.700       580
27.710       480
27.720       520
27.730       626
27.740       420
27.750       513
27.760       506
27.770       673
27.780       520
27.790       480
27.800       473
27.810       446
27.820       573
27.830       580
27.840       540
27.850       446
27.860       586
27.870       486
27.880       560
27.890       706
27.900       433
27.910       493
27.920       520
27.930       473
27.940       506
27.950       546
27.960       553
27.970       473
27.980       553
27.990       600
28.000       546
28.010       566
28.020       553
28.030       407
28.040       526
28.050       486
28.060       606
28.070       513
28.080       453
28.090       546
28.100       546
28.110       453
28.120       440
28.130       420
28.140       466
28.150       466
28.160       493
28.170       460
28.180       500
28.190       506
28.200       520
28.210       486
28.220       466
28.230       420
28.240       500
28.250       433
28.260       466
28.270       500
28.280       566
28.290       513
28.300       400
28.310       453
28.320       486
28.330       540
28.340       506
28.350       480
28.360       460
28.370       433
28.380       553
28.390       460
28.400       493
28.410       426
28.420       506
28.430       440
28.440       446
28.450       580
28.460       500
28.470       400
28.480       466
28.490       413
28.500       466
28.510       506
28.520       413
28.530       426
28.540       426
28.550       453
28.560       460
28.570       460
28.580       446
28.590       426
28.600       526
28.610       433
28.620       440
28.630       460
28.640       400
28.650       433
28.660       533
28.670       506
28.680       360
28.690       473
28.700       453
28.710       480
28.720       380
28.730       407
28.740       413
28.750       473
28.760       367
28.770       500
28.780       546
28.790       520
28.800       493
28.810       433
28.820       473
28.830       387
28.840       426
28.850       486
28.860       453
28.870       300
28.880       480
28.890       540
28.900       453
28.910       506
28.920       380
28.930       553
28.940       560
28.950       500
28.960       373
28.970       413
28.980       553
28.990       433
29.000       420
29.010       433
29.020       433
29.030       420
29.040       613
29.050       360
29.060       500
29.070       486
29.080       466
29.090       380
29.100       480
29.110       433
29.120       393
29.130       393
29.140       460
29.150       380
29.160       400
29.170       500
29.180       307
29.190       340
29.200       433
29.210       340
29.220       407
29.230       380
29.240       420
29.250       387
29.260       440
29.270       453
29.280       387
29.290       313
29.300       433
29.310       420
29.320       367
29.330       426
29.340       420
29.350       433
29.360       453
29.370       446
29.380       486
29.390       393
29.400       387
29.410       453
29.420       486
29.430       367
29.440       486
29.450       420
29.460       420
29.470       426
29.480       460
29.490       473
29.500       413
29.510       320
29.520       413
29.530       426
29.540       533
29.550       327
29.560       393
29.570       446
29.580       466
29.590       387
29.600       593
29.610       493
29.620       493
29.630       347
29.640       446
29.650       446
29.660       460
29.670       446
29.680       453
29.690       387
29.700       413
29.710       367
29.720       493
29.730       440
29.740       520
29.750       327
29.760       387
29.770       380
29.780       380
29.790       340
29.800       300
29.810       393
29.820       393
29.830       360
29.840       420
29.850       387
29.860       387
29.870       486
29.880       373
29.890       313
29.900       360
29.910       300
29.920       273
29.930       313
29.940       393
29.950       307
29.960       353
29.970       333
29.980       313
29.990       433
30.000       393
30.010       353
30.020       360
30.030       413
30.040       300
30.050       347
30.060       367
30.070       333
30.080       287
30.090       466
30.100       460
30.110       373
30.120       247
30.130       380
30.140       340
30.150       340
30.160       333
30.170       400
30.180       353
30.190       387
30.200       347
30.210       280
30.220       353
30.230       313
30.240       320
30.250       347
30.260       293
30.270       320
30.280       287
30.290       253
30.300       313
30.310       520
30.320       353
30.330       307
30.340       347
30.350       426
30.360       287
30.370       440
30.380       380
30.390       287
30.400       380
30.410       307
30.420       240
30.430       320
30.440       353
30.450       353
30.460       413
30.470       333
30.480       387
30.490       320
30.500       360
30.510       367
30.520       367
30.530       320
30.540       300
30.550       327
30.560       413
30.570       193
30.580       387
30.590       347
30.600       313
30.610       353
30.620       373
30.630       240
30.640       460
30.650       327
30.660       273
30.670       313
30.680       327
30.690       307
30.700       327
30.710       353
30.720       373
30.730       367
30.740       327
30.750       320
30.760       233
30.770       320
30.780       460
30.790       387
30.800       360
30.810       253
30.820       287
30.830       347
30.840       293
30.850       293
30.860       347
30.870       287
30.880       240
30.890       320
30.900       307
30.910       280
30.920       300
30.930       213
30.940       213
30.950       307
30.960       353
30.970       320
30.980       267
30.990       213
31.000       287
31.010       227
31.020       240
31.030       300
31.040       273
31.050       347
31.060       273
31.070       320
31.080       240
31.090       267
31.100       307
31.110       307
31.120       313
31.130       253
31.140       333
31.150       360
31.160       300
31.170       253
31.180       327
31.190       240
31.200       327
31.210       213
31.220       300
31.230       293
31.240       207
31.250       220
31.260       320
31.270       320
31.280       273
31.290       280
31.300       333
31.310       273
31.320       240
31.330       213
31.340       193
31.350       300
31.360       247
31.370       287
31.380       213
31.390       307
31.400       293
31.410       327
31.420       347
31.430       287
31.440       273
31.450       280
31.460       273
31.470       273
31.480       300
31.490       293
31.500       267
31.510       320
31.520       340
31.530       300
31.540       300
31.550       287
31.560       280
31.570       280
31.580       287
31.590       187
31.600       300
31.610       280
31.620       300
31.630       293
31.640       307
31.650       293
31.660       313
31.670       280
31.680       213
31.690       233
31.700       293
31.710       193
31.720       320
31.730       327
31.740       220
31.750       247
31.760       280
31.770       247
31.780       313
31.790       247
31.800       300
31.810       260
31.820       273
31.830       213
31.840       193
31.850       187
31.860       247
31.870       307
31.880       227
31.890       200
31.900       267
31.910       260
31.920       287
31.930       240
31.940       293
31.950       287
31.960       280
31.970       220
31.980       327
31.990       253
32.000       267
32.010       260
32.020       227
32.030       327
32.040       300
32.050       213
32.060       240
32.070       233
32.080       307
32.090       307
32.100       240
32.110       267
32.120       280
32.130       220
32.140       240
32.150       240
32.160       273
32.170       247
32.180       287
32.190       300
32.200       327
32.210       253
32.220       307
32.230       200
32.240       213
32.250       253
32.260       340
32.270       293
32.280       247
32.290       240
32.300       193
32.310       280
32.320       280
32.330       213
32.340       287
32.350       247
32.360       300
32.370       300
32.380       180
32.390       227
32.400       273
32.410       360
32.420       213
32.430       193
32.440       200
32.450       233
32.460       200
32.470       280
32.480       213
32.490       207
32.500       193
32.510       153
32.520       267
32.530       227
32.540       160
32.550       187
32.560       153
32.570       273
32.580       207
32.590       227
32.600       180
32.610       200
32.620       253
32.630       247
32.640       220
32.650       180
32.660       193
32.670       280
32.680       207
32.690       213
32.700       213
32.710       260
32.720       173
32.730       233
32.740       180
32.750       200
32.760       280
32.770       147
32.780       220
32.790       240
32.800       220
32.810       180
32.820       173
32.830       180
32.840       193
32.850       240
32.860       167
32.870       213
32.880       133
32.890       227
32.900       147
32.910       153
32.920       200
32.930       140
32.940       220
32.950       233
32.960       160
32.970       227
32.980       193
32.990       200
33.000       193
33.010       260
33.020       247
33.030       200
33.040       167
33.050       207
33.060       193
33.070       140
33.080       173
33.090       267
33.100       253
33.110       153
33.120       253
33.130       233
33.140       260
33.150       193
33.160       147
33.170       180
33.180       153
33.190       240
33.200       207
33.210       193
33.220       147
33.230       113
33.240       180
33.250       193
33.260       207
33.270       227
33.280       247
33.290       200
33.300       167
33.310       187
33.320       187
33.330       213
33.340       207
33.350       180
33.360       233
33.370       207
33.380       173
33.390       153
33.400       173
33.410       240
33.420       167
33.430       193
33.440       167
33.450       213
33.460       180
33.470       220
33.480       193
33.490       227
33.500       173
33.510       167
33.520       160
33.530       180
33.540       180
33.550       107
33.560       200
33.570       173
33.580       140
33.590       220
33.600       160
33.610       147
33.620       153
33.630       133
33.640       160
33.650       187
33.660       187
33.670       167
33.680       113
33.690       140
33.700       173
33.710       133
33.720       167
33.730       187
33.740       140
33.750       173
33.760       193
33.770       180
33.780       167
33.790       193
33.800       167
33.810       153
33.820       173
33.830       147
33.840       120
33.850       120
33.860       133
33.870       153
33.880       127
33.890       253
33.900       173
33.910       107
33.920       120
33.930       160
33.940       200
33.950       127
33.960       187
33.970       213
33.980       173
33.990       193
34.000       140
34.010       167
34.020       153
34.030       200
34.040       180
34.050       127
34.060       140
34.070       147
34.080       187
34.090       153
34.100       180
34.110       173
34.120       127
34.130       120
34.140       107
34.150       160
34.160       207
34.170       127
34.180       113
34.190       120
34.200       160
34.210       153
34.220       187
34.230       127
34.240       173
34.250       227
34.260       167
34.270       160
34.280       160
34.290       127
34.300       180
34.310        87
34.320       247
34.330       213
34.340       153
34.350       220
34.360       153
34.370       167
34.380       160
34.390       127
34.400       173
34.410       140
34.420       167
34.430       167
34.440       160
34.450       227
34.460       100
34.470       160
34.480       180
34.490       120
34.500       113
34.510       153
34.520       153
34.530       113
34.540       133
34.550       133
34.560       107
34.570       133
34.580       187
34.590       120
34.600       127
34.610       147
34.620       147
34.630       173
34.640       160
34.650       100
34.660       167
34.670       153
34.680       120
34.690       107
34.700       153
34.710       140
34.720       240
34.730       180
34.740       107
34.750       160
34.760       107
34.770       173
34.780       147
34.790       113
34.800       147
34.810       133
34.820       107
34.830       167
34.840        87
34.850       167
34.860       127
34.870       153
34.880       147
34.890       120
34.900       160
34.910       160
34.920       173
34.930       127
34.940       153
34.950       100
34.960       147
34.970       133
34.980        73
34.990       113
35.000       107
35.010       140
35.020        80
35.030       160
35.040       133
35.050       147
35.060       153
35.070       120
35.080        87
35.090       147
35.100        87
35.110       127
35.120       113
35.130       113
35.140       160
35.150       140
35.160       113
35.170       140
35.180       173
35.190       133
35.200       127
35.210       147
35.220       127
35.230        93
35.240       113
35.250       167
35.260        87
35.270       167
35.280       227
35.290       173
35.300       160
35.310       120
35.320       153
35.330       120
35.340       120
35.350       147
35.360       160
35.370       133
35.380       120
35.390       160
35.400       147
35.410        93
35.420       193
35.430        87
35.440       107
35.450       207
35.460       127
35.470       107
35.480       113
35.490       167
35.500       133
35.510       113
35.520       140
35.530       120
35.540       133
35.550       140
35.560        73
35.570       107
35.580        93
35.590        73
35.600       133
35.610       107
35.620       133
35.630        87
35.640        73
35.650       147
35.660       113
35.670       160
35.680       127
35.690       107
35.700       113
35.710        93
35.720        87
35.730       113
35.740       147
35.750        93
35.760        53
35.770       147
35.780       100
35.790       147
35.800       113
35.810       127
35.820       140
35.830        93
35.840       107
35.850        73
35.860       127
35.870       100
35.880       127
35.890       147
35.900       120
35.910        93
35.920       120
35.930       153
35.940       173
35.950        27
35.960       147
35.970       140
35.980       113
35.990        87
36.000       113
36.010        73
36.020       120
36.030        93
36.040       140
36.050       107
36.060       107
36.070        60
36.080       100
36.090       153
36.100       120
36.110        73
36.120        73
36.130       100
36.140       133
36.150        87
36.160       147
36.170       113
36.180       133
36.190       147
36.200       147
36.210        67
36.220        60
36.230       153
36.240       100
36.250        73
36.260       100
36.270        73
36.280       107
36.290        93
36.300        73
36.310       113
36.320        73
36.330       107
36.340       120
36.350       107
36.360        80
36.370        93
36.380       100
36.390        93
36.400        87
36.410       100
36.420       140
36.430        73
36.440       113
36.450        93
36.460        87
36.470        67
36.480       113
36.490        93
36.500        67
36.510       100
36.520       100
36.530        40
36.540       153
36.550        67
36.560        60
36.570       100
36.580        93
36.590        73
36.600        87
36.610       127
36.620        80
36.630        73
36.640       140
36.650       120
36.660        73
36.670       100
36.680        73
36.690       113
36.700        80
36.710        93
36.720        67
36.730        80
36.740        93
36.750       113
36.760       107
36.770       113
36.780       113
36.790        93
36.800        80
36.810        93
36.820        93
36.830       113
36.840        67
36.850        93
36.860        80
36.870        80
36.880       127
36.890        67
36.900       133
36.910       113
36.920        73
36.930        93
36.940        93
36.950       127
36.960        80
36.970       127
36.980        73
36.990       107
37.000       127
37.010       100
37.020       113
37.030       107
37.040       120
37.050        87
37.060       113
37.070        67
37.080        67
37.090       107
37.100       107
37.110       107
37.120       100
37.130        53
37.140        87
37.150        87
37.160       127
37.170        73
37.180       120
37.190        80
37.200        67
37.210        73
37.220        67
37.230        33
37.240       100
37.250       107
37.260        93
37.270        73
37.280        93
37.290       100
37.300       100
37.310        87
37.320        73
37.330       100
37.340       120
37.350        67
37.360        33
37.370       100
37.380        40
37.390        20
37.400       107
37.410        53
37.420        87
37.430       100
37.440       107
37.450       127
37.460        93
37.470        53
37.480       100
37.490        73
37.500       113
37.510       113
37.520        73
37.530       100
37.540        80
37.550        60
37.560        40
37.570        73
37.580        73
37.590        67
37.600        73
37.610        53
37.620        73
37.630       107
37.640       113
37.650        87
37.660        87
37.670        80
37.680       147
37.690        67
37.700        60
37.710        73
37.720        67
37.730        67
37.740        53
37.750       107
37.760       100
37.770        53
37.780        73
37.790        80
37.800        93
37.810        80
37.820        60
37.830        60
37.840        67
37.850        80
37.860        67
37.870        60
37.880       120
37.890        87
37.900        60
37.910        73
37.920        73
37.930        67
37.940        47
37.950       100
37.960        93
37.970       113
37.980        67
37.990        87
38.000        93
38.010        33
38.020        60
38.030        53
38.040        67
38.050        67
38.060        93
38.070        80
38.080        40
38.090        93
38.100        33
38.110       107
38.120        53
38.130        73
38.140        40
38.150        80
38.160        93
38.170        53
38.180        73
38.190        67
38.200        93
38.210        60
38.220        73
38.230        60
38.240        87
38.250        67
38.260        87
38.270        93
38.280        73
38.290        73
38.300        60
38.310        60
38.320        53
38.330        87
38.340        93
38.350        60
38.360        73
38.370        47
38.380        60
38.390        67
38.400        47
38.410        47
38.420        73
38.430        40
38.440        67
38.450        67
38.460        60
38.470        93
38.480        33
38.490        87
38.500        67
38.510        53
38.520       107
38.530        87
38.540        80
38.550        40
38.560        27
38.570        67
38.580        73
38.590        67
38.600        60
38.610        53
38.620        73
38.630        93
38.640        73
38.650        80
38.660        73
38.670        47
38.680        33
38.690       107
38.700        73
38.710        80
38.720        73
38.730        60
38.740        80
38.750        47
38.760        67
38.770        87
38.780        53
38.790        80
38.800        73
38.810        47
38.820        67
38.830        40
38.840        53
38.850        53
38.860        40
38.870        80
38.880        80
38.890        47
38.900        73
38.910        60
38.920        73
38.930        87
38.940        40
38.950        73
38.960        60
38.970        93
38.980        73
38.990        67
39.000        33
39.010        73
39.020        53
39.030        87
39.040        20
39.050        27
39.060        80
39.070        47
39.080       100
39.090        67
39.100        80
39.110        67
39.120        87
39.130        73
39.140        60
39.150        73
39.160        47
39.170        47
39.180        40
39.190        33
39.200        80
39.210        87
39.220        53
39.230        40
39.240        47
39.250        73
39.260        27
39.270        73
39.280        27
39.290        80
39.300        47
39.310        67
39.320        53
39.330        87
39.340        40
39.350        60
39.360        40
39.370        67
39.380        27
39.390        53
39.400        67
39.410        67
39.420        27
39.430        67
39.440        73
39.450        47
39.460        47
39.470        53
39.480        40
39.490        80
39.500        73
39.510        40
39.520        20
39.530        53
39.540        53
39.550        47
39.560        80
39.570       100
39.580        53
39.590        53
39.600        47
39.610        53
39.620        80
39.630        53
39.640        80
39.650        53
39.660        73
39.670        53
39.680        60
39.690        60
39.700        80
39.710        33
39.720        40
39.730        60
39.740        60
39.750        33
39.760        67
39.770        40
39.780        40
39.790        53
39.800        67
39.810        40
39.820        67
39.830        53
39.840        87
39.850        53
39.860        87
39.870        53
39.880        47
39.890        73
39.900        60
39.910        60
39.920        53
39.930        47
39.940        40
39.950        53
39.960        60
39.970        73
39.980        40
39.990        40
40.000        73
40.010        47
40.020        73
40.030        27
40.040        53
40.050        73
40.060        47
40.070        67
40.080        47
40.090        53
40.100        53
40.110        93
40.120        73
40.130        27
40.140        53
40.150        60
40.160        73
40.170        67
40.180        33
40.190        47
40.200         7
40.210        40
40.220        87
40.230        27
40.240        87
40.250        33
40.260        47
40.270        47
40.280        67
40.290        40
40.300        47
40.310        53
40.320        40
40.330        47
40.340        33
40.350        73
40.360        40
40.370        53
40.380        47
40.390        40
40.400        60
40.410        47
40.420        80
40.430        33
40.440        33
40.450        47
40.460        73
40.470        60
40.480        67
40.490        40
40.500        80
40.510        73
40.520        67
40.530        53
40.540        53
40.550        67
40.560        47
40.570        40
40.580        47
40.590        20
40.600        67
40.610        60
40.620        67
40.630        33
40.640        67
40.650        40
40.660        20
40.670        67
40.680        47
40.690        40
40.700        53
40.710        33
40.720        33
40.730        53
40.740        20
40.750        73
40.760        33
40.770        13
40.780        67
40.790        47
40.800        40
40.810        33
40.820        53
40.830        40
40.840        40
40.850        40
40.860        73
40.870        93
40.880        53
40.890        67
40.900        87
40.910        40
40.920        27
40.930        67
40.940        27
40.950        67
40.960        67
40.970        47
40.980        67
40.990        27
41.000        20
41.010        60
41.020        33
41.030        67
41.040       107
41.050        40
41.060        27
41.070        20
41.080        40
41.090        27
41.100        47
41.110       127
41.120        73
41.130        67
41.140        47
41.150        60
41.160        47
41.170        27
41.180        40
41.190        53
41.200        67
41.210        33
41.220        40
41.230        60
41.240        27
41.250        33
41.260        73
41.270        13
41.280        40
41.290        47
41.300        13
41.310        47
41.320        53
41.330        53
41.340        47
41.350        33
41.360        40
41.370        40
41.380        80
41.390        60
41.400        47
41.410        53
41.420        27
41.430        33
41.440        27
41.450        47
41.460        60
41.470        73
41.480        80
41.490        27
41.500        27
41.510        47
41.520        53
41.530        20
41.540        47
41.550        60
41.560        60
41.570        47
41.580        40
41.590        47
41.600        40
41.610        33
41.620        53
41.630        27
41.640        33
41.650        47
41.660        60
41.670        47
41.680        60
41.690        53
41.700        40
41.710        40
41.720        33
41.730        67
41.740        33
41.750        53
41.760        33
41.770        40
41.780        27
41.790        33
41.800        33
41.810        53
41.820        33
41.830        60
41.840        53
41.850        40
41.860        53
41.870        67
41.880        40
41.890        27
41.900         7
41.910        33
41.920        47
41.930        40
41.940        47
41.950        27
41.960        40
41.970        40
41.980        40
41.990        40
42.000        40
42.010        27
42.020        47
42.030        53
42.040        33
42.050        20
42.060        33
42.070        60
42.080        40
42.090        13
42.100        53
42.110        33
42.120        27
42.130        27
42.140        73
42.150        33
42.160        87
42.170        20
42.180        47
42.190        40
42.200        40
42.210        67
42.220        20
42.230        33
42.240        40
42.250        93
42.260        80
42.270        47
42.280        47
42.290        53
42.300        53
42.310        60
42.320       120
42.330        40
42.340        87
42.350        53
42.360        67
42.370        53
42.380        73
42.390        53
42.400        53
42.410        53
42.420        47
42.430        27
42.440        40
42.450        40
42.460        87
42.470        60
42.480        73
42.490        53
42.500        27
42.510        60
42.520        73
42.530        33
42.540       113
42.550        60
42.560        47
42.570        80
42.580        60
42.590        33
42.600        53
42.610        40
42.620        67
42.630        47
42.640        47
42.650        40
42.660        40
42.670        47
42.680        53
42.690        27
42.700        47
42.710        73
42.720        47
42.730        13
42.740        60
42.750        73
42.760        47
42.770        80
42.780        53
42.790        40
42.800        73
42.810        20
42.820        60
42.830        33
42.840        27
42.850        67
42.860        53
42.870        73
42.880        60
42.890        27
42.900        33
42.910        53
42.920        47
42.930        27
42.940        47
42.950        47
42.960        40
42.970        40
42.980        27
42.990        60
43.000        40
43.010        53
43.020        27
43.030        40
43.040        80
43.050        20
43.060        53
43.070        40
43.080        60
43.090        27
43.100        33
43.110        87
43.120        53
43.130        27
43.140        27
43.150        53
43.160        60
43.170        20
43.180        20
43.190        27
43.200        40
43.210        60
43.220        53
43.230        47
43.240        40
43.250        20
43.260        47
43.270        27
43.280        33
43.290        27
43.300        20
43.310        27
43.320        20
43.330        20
43.340        40
43.350        40
43.360        47
43.370        47
43.380        40
43.390        60
43.400        53
43.410        60
43.420        40
43.430        20
43.440        40
43.450        40
43.460        47
43.470        47
43.480        47
43.490        60
43.500        13
43.510        20
43.520        60
43.530        20
43.540        73
43.550        33
43.560        53
43.570        47
43.580        40
43.590        27
43.600        27
43.610        33
43.620        40
43.630        53
43.640        33
43.650        27
43.660        20
43.670        33
43.680        40
43.690        13
43.700        67
43.710        40
43.720        40
43.730        20
43.740        27
43.750        27
43.760        73
43.770        27
43.780        33
43.790        40
43.800        27
43.810        53
43.820        67
43.830        33
43.840        40
43.850        60
43.860        33
43.870        27
43.880        27
43.890        27
43.900        27
43.910        53
43.920        53
43.930        47
43.940        40
43.950        40
43.960        40
43.970        20
43.980        33
43.990        53
44.000        47
44.010        27
44.020        40
44.030        33
44.040        13
44.050        40
44.060        27
44.070        33
44.080        20
44.090        47
44.100        20
44.110        53
44.120        33
44.130        40
44.140        47
44.150        27
44.160        73
44.170        40
44.180        40
44.190        40
44.200        27
44.210        47
44.220        53
44.230        47
44.240        40
44.250        33
44.260        47
44.270        33
44.280        40
44.290        27
44.300        73
44.310        40
44.320        40
44.330        27
44.340        27
44.350        20
44.360        27
44.370        13
44.380        67
44.390        60
44.400        27
44.410        33
44.420        27
44.430        53
44.440        27
44.450        47
44.460        47
44.470        40
44.480        40
44.490        47
44.500        60
44.510        33
44.520        33
44.530        20
44.540        53
44.550        13
44.560        27
44.570        33
44.580        13
44.590        60
44.600        40
44.610        20
44.620        20
44.630        47
44.640        27
44.650        27
44.660        27
44.670        33
44.680        33
44.690        33
44.700        33
44.710        33
44.720        73
44.730        80
44.740        33
44.750        60
44.760        47
44.770        40
44.780        13
44.790        53
44.800        40
44.810        60
44.820        33
44.830        33
44.840        27
44.850        20
44.860        53
44.870        40
44.880        47
44.890        27
44.900        27
44.910        47
44.920        60
44.930        33
44.940        47
44.950         0
44.960        27
44.970        20
44.980        47
44.990        13
45.000        53
45.010         7
45.020        20
45.030         7
45.040        33
45.050        33
45.060        40
45.070        20
45.080        40
45.090        20
45.100        47
45.110        27
45.120        60
45.130         7
45.140        27
45.150        20
45.160        67
45.170        27
45.180        47
45.190        20
45.200        27
45.210        40
45.220        27
45.230        40
45.240        47
45.250        27
45.260        40
45.270        53
45.280         7
45.290        53
45.300        33
45.310        40
45.320        47
45.330        27
45.340        20
45.350        33
45.360        27
45.370        27
45.380        47
45.390        40
45.400         0
45.410        40
45.420        33
45.430        60
45.440         0
45.450        20
45.460        13
45.470        13
45.480        20
45.490        47
45.500        67
45.510        27
45.520        47
45.530        33
45.540        40
45.550        40
45.560        27
45.570        33
45.580        27
45.590        27
45.600        27
45.610        40
45.620        27
45.630        27
45.640        20
45.650        53
45.660        27
45.670        53
45.680        60
45.690        73
45.700        20
45.710        47
45.720        13
45.730        47
45.740        53
45.750        53
45.760        60
45.770        20
45.780        27
45.790         7
45.800        73
45.810        53
45.820        67
45.830         7
45.840        47
45.850        33
45.860        53
45.870        13
45.880        53
45.890        40
45.900        40
45.910        40
45.920        33
45.930        27
45.940        60
45.950        40
45.960        33
45.970        33
45.980        67
45.990        27
46.000        67
46.010        80
46.020        47
46.030        60
46.040        27
46.050        40
46.060        47
46.070        47
46.080        40
46.090        20
46.100        27
46.110        53
46.120        67
46.130        27
46.140        27
46.150        27
46.160        53
46.170        40
46.180        33
46.190        80
46.200        33
46.210        27
46.220        33
46.230        87
46.240        47
46.250        60
46.260        20
46.270        47
46.280        33
46.290        53
46.300        40
46.310        27
46.320        40
46.330        53
46.340        20
46.350        53
46.360        80
46.370        33
46.380        53
46.390        53
46.400        47
46.410        33
46.420        73
46.430        13
46.440        27
46.450        60
46.460        27
46.470        33
46.480        47
46.490        33
46.500        73
46.510        53
46.520        13
46.530        20
46.540        33
46.550        33
46.560        73
46.570        33
46.580        33
46.590        73
46.600        20
46.610        47
46.620        47
46.630        73
46.640        40
46.650        27
46.660        47
46.670        53
46.680        40
46.690        27
46.700        60
46.710        27
46.720        60
46.730        40
46.740        27
46.750        40
46.760        47
46.770        73
46.780        47
46.790        40
46.800        93
46.810        87
46.820        87
46.830        73
46.840        73
46.850        87
46.860        73
46.870        87
46.880        67
46.890        20
46.900        67
46.910        53
46.920        67
46.930       113
46.940        87
46.950       100
46.960        47
46.970       107
46.980       120
46.990       187
47.000       113
47.010       127
47.020       100
47.030       107
47.040       147
47.050       120
47.060        73
47.070       107
47.080       207
47.090       173
47.100       187
47.110       287
47.120       313
47.130       340
47.140       553
47.150       860
47.160      1013
47.170      1433
47.180      1533
47.190      1539
47.200      1399
47.210      1399
47.220      1226
47.230      1066
47.240       626
47.250       387
47.260       380
47.270       300
47.280       220
47.290       200
47.300       187
47.310       133
47.320       173
47.330       133
47.340        80
47.350       127
47.360       167
47.370        80
47.380       107
47.390        80
47.400        67
47.410       133
47.420        80
47.430        47
47.440        67
47.450        67
47.460        47
47.470        67
47.480        80
47.490        53
47.500        40
47.510        80
47.520        93
47.530        53
47.540       107
47.550        60
47.560       100
47.570        93
47.580        60
47.590        33
47.600        40
47.610        47
47.620        40
47.630        67
47.640        53
47.650        67
47.660        67
47.670        67
47.680        53
47.690        33
47.700        53
47.710        73
47.720       100
47.730        53
47.740        33
47.750        93
47.760        53
47.770        53
47.780        27
47.790        27
47.800        40
47.810        67
47.820        33
47.830        33
47.840        53
47.850        60
47.860        40
47.870        20
47.880        67
47.890        53
47.900        67
47.910        60
47.920       100
47.930        67
47.940        53
47.950        40
47.960        53
47.970        60
47.980        60
47.990        60
48.000        60
48.010        60
48.020        27
48.030        20
48.040        60
48.050        27
48.060        27
48.070        47
48.080        47
48.090        33
48.100        80
48.110        53
48.120        20
48.130        27
48.140        53
48.150        47
48.160        73
48.170        27
48.180        53
48.190        47
48.200        33
48.210        60
48.220        47
48.230        20
48.240        33
48.250        27
48.260        73
48.270        47
48.280        60
48.290        27
48.300        40
48.310        53
48.320        47
48.330        33
48.340        53
48.350        40
48.360        27
48.370        80
48.380        20
48.390        27
48.400        33
48.410        27
48.420        80
48.430        20
48.440        53
48.450        60
48.460        47
48.470        27
48.480        47
48.490        53
48.500        47
48.510        33
48.520        53
48.530        33
48.540        33
48.550        40
48.560        73
48.570        80
48.580        40
48.590        40
48.600        53
48.610        33
48.620        27
48.630        60
48.640        60
48.650        20
48.660        13
48.670        33
48.680        53
48.690        40
48.700        40
48.710        20
48.720        67
48.730        40
48.740        13
48.750        47
48.760        60
48.770        20
48.780        40
48.790        40
48.800        47
48.810        33
48.820        27
48.830        13
48.840        40
48.850        27
48.860        33
48.870        27
48.880        47
48.890        20
48.900        60
48.910        67
48.920        53
48.930        33
48.940        20
48.950        33
48.960        33
48.970        27
48.980        40
48.990        40
49.000        33
49.010        53
49.020        13
49.030        40
49.040        47
49.050        20
49.060        27
49.070        53
49.080        47
49.090        80
49.100        27
49.110        27
49.120        67
49.130        60
49.140        27
49.150        33
49.160        73
49.170        80
49.180        80
49.190        53
49.200        47
49.210        53
49.220        73
49.230        40
49.240        73
49.250        40
49.260        27
49.270        53
49.280        20
49.290        53
49.300        27
49.310        33
49.320        53
49.330        60
49.340        27
49.350        33
49.360        40
49.370        53
49.380        40
49.390        80
49.400        40
49.410        33
49.420        53
49.430        33
49.440        33
49.450        67
49.460        60
49.470        47
49.480        27
49.490        80
49.500        53
49.510        40
49.520        33
49.530        60
49.540        20
49.550        40
49.560        20
49.570        27
49.580        60
49.590        40
49.600        27
49.610        40
49.620        40
49.630        27
49.640        33
49.650        33
49.660        40
49.670        60
49.680        47
49.690        40
49.700        47
49.710        27
49.720         7
49.730        20
49.740        27
49.750        60
49.760        27
49.770        33
49.780        60
49.790        27
49.800        33
49.810        53
49.820        53
49.830        33
49.840        80
49.850        20
49.860        53
49.870        73
49.880        53
49.890        33
49.900        67
49.910        27
49.920        60
49.930        33
49.940        73
49.950        33
49.960        27
49.970        33
49.980        40
49.990        47
50.000        27
50.010        33
50.020        33
50.030        33
50.040        27
50.050        53
50.060        33
50.070        47
50.080        40
50.090        40
50.100        53
50.110        27
50.120        40
50.130        40
50.140        40
50.150        33
50.160        47
50.170        33
50.180        33
50.190        53
50.200        47
50.210        20
50.220        60
50.230        20
50.240        27
50.250        53
50.260        47
50.270        47
50.280        53
50.290        40
50.300        47
50.310        20
50.320        73
50.330        47
50.340        40
50.350        40
50.360        20
50.370        33
50.380        27
50.390        27
50.400        40
50.410        27
50.420        33
50.430        53
50.440        40
50.450        20
50.460        40
50.470        60
50.480        93
50.490        27
50.500        27
50.510        47
50.520        53
50.530        47
50.540        93
50.550        60
50.560        20
50.570        87
50.580        73
50.590        47
50.600        87
50.610        80
50.620       107
50.630       133
50.640       160
50.650       160
50.660       180
50.670       227
50.680       240
50.690       360
50.700       260
50.710       347
50.720       300
50.730       373
50.740       367
50.750       433
50.760       373
50.770       360
50.780       313
50.790       320
50.800       413
50.810       413
50.820       440
50.830       387
50.840       380
50.850       253
50.860       380
50.870       420
50.880       353
50.890       380
50.900       327
50.910       380
50.920       333
50.930       313
50.940       373
50.950       407
50.960       466
50.970       340
50.980       373
50.990       347
51.000       426
51.010       380
51.020       420
51.030       407
51.040       373
51.050       247
51.060       420
51.070       446
51.080       393
51.090       320
51.100       360
51.110       360
51.120       333
51.130       460
51.140       420
51.150       360
51.160       413
51.170       313
51.180       360
51.190       313
51.200       320
51.210       367
51.220       420
51.230       347
51.240       420
51.250       393
51.260       387
51.270       393
51.280       446
51.290       407
51.300       340
51.310       413
51.320       380
51.330       373
51.340       480
51.350       460
51.360       393
51.370       433
51.380       407
51.390       360
51.400       367
51.410       440
51.420       340
51.430       340
51.440       320
51.450       380
51.460       420
51.470       440
51.480       446
51.490       373
51.500       333
51.510       473
51.520       327
51.530       413
51.540       367
51.550       460
51.560       426
51.570       287
51.580       466
51.590       453
51.600       453
51.610       340
51.620       433
51.630       433
51.640       453
51.650       373
51.660       327
51.670       533
51.680       433
51.690       373
51.700       413
51.710       387
51.720       466
51.730       400
51.740       460
51.750       493
51.760       407
51.770       426
51.780       473
51.790       420
51.800       400
51.810       446
51.820       453
51.830       460
51.840       460
51.850       413
51.860       446
51.870       500
51.880       453
51.890       473
51.900       500
51.910       493
51.920       413
51.930       480
51.940       500
51.950       500
51.960       540
51.970       640
51.980       460
51.990       560
52.000       493
52.010       640
52.020       526
52.030       593
52.040       680
52.050       626
52.060       586
52.070       646
52.080       693
52.090       660
52.100       680
52.110       766
52.120       653
52.130       760
52.140       726
52.150       806
52.160       873
52.170       900
52.180       886
52.190       846
52.200       873
52.210      1020
52.220       973
52.230       966
52.240      1173
52.250      1180
52.260      1206
52.270      1413
52.280      1706
52.290      1899
52.300      2046
52.310      2366
52.320      2952
52.330      3485
52.340      3465
52.350      4172
52.360      4945
52.370      5464
52.380      6164
52.390      6991
52.400      7657
52.410      8816
52.420      9456
52.430     10123
52.440     10802
52.450     11835
52.460     12835
52.470     13954
52.480     15001
52.490     16733
52.500     19965
52.510     23677
52.520     31634
52.530     46281
52.540     72851
52.550    102239
52.560    127676
52.570    145748
52.580    154245
52.590    157084
52.600    152146
52.610    138005
52.620    113595
52.630     82940
52.640     58123
52.650     43516
52.660     38258
52.670     42603
52.680     49627
52.690     63128
52.700     76829
52.710     86372
52.720     90937
52.730     90664
52.740     86252
52.750     77196
52.760     60829
52.770     43789
52.780     29155
52.790     19466
52.800     14994
52.810     12128
52.820     10076
52.830      8237
52.840      7230
52.850      6411
52.860      5078
52.870      4805
52.880      4272
52.890      3412
52.900      3112
52.910      2532
52.920      2172
52.930      1893
52.940      1739
52.950      1799
52.960      1353
52.970      1326
52.980      1279
52.990      1353
53.000      1166
53.010      1273
53.020       980
53.030       993
53.040       953
53.050       840
53.060       960
53.070       780
53.080       960
53.090       873
53.100       713
53.110       886
53.120       760
53.130       773
53.140       726
53.150       666
53.160       740
53.170       806
53.180       586
53.190       626
53.200       546
53.210       593
53.220       653
53.230       580
53.240       726
53.250       613
53.260       733
53.270       520
53.280       606
53.290       513
53.300       600
53.310       566
53.320       560
53.330       513
53.340       460
53.350       566
53.360       506
53.370       473
53.380       546
53.390       480
53.400       520
53.410       580
53.420       486
53.430       460
53.440       473
53.450       426
53.460       440
53.470       420
53.480       446
53.490       433
53.500       373
53.510       433
53.520       426
53.530       393
53.540       367
53.550       440
53.560       373
53.570       327
53.580       413
53.590       367
53.600       287
53.610       400
53.620       300
53.630       407
53.640       426
53.650       393
53.660       440
53.670       426
53.680       367
53.690       453
53.700       353
53.710       340
53.720       313
53.730       273
53.740       333
53.750       380
53.760       307
53.770       347
53.780       320
53.790       327
53.800       433
53.810       387
53.820       380
53.830       347
53.840       300
53.850       367
53.860       367
53.870       320
53.880       340
53.890       307
53.900       360
53.910       340
53.920       300
53.930       247
53.940       227
53.950       307
53.960       293
53.970       253
53.980       287
53.990       320
54.000       393
54.010       307
54.020       240
54.030       333
54.040       307
54.050       233
54.060       333
54.070       293
54.080       253
54.090       327
54.100       333
54.110       273
54.120       253
54.130       267
54.140       273
54.150       300
54.160       220
54.170       327
54.180       307
54.190       340
54.200       400
54.210       280
54.220       260
54.230       227
54.240       300
54.250       327
54.260       280
54.270       273
54.280       273
54.290       260
54.300       300
54.310       253
54.320       287
54.330       287
54.340       300
54.350       300
54.360       253
54.370       227
54.380       207
54.390       273
54.400       193
54.410       233
54.420       300
54.430       273
54.440       153
54.450       320
54.460       293
54.470       273
54.480       260
54.490       280
54.500       240
54.510       220
54.520       233
54.530       247
54.540       207
54.550       227
54.560       267
54.570       287
54.580       213
54.590       273
54.600       200
54.610       280
54.620       293
54.630       227
54.640       300
54.650       267
54.660       207
54.670       300
54.680       287
54.690       307
54.700       347
54.710       240
54.720       267
54.730       247
54.740       273
54.750       233
54.760       213
54.770       213
54.780       300
54.790       300
54.800       207
54.810       233
54.820       200
54.830       287
54.840       207
54.850       240
54.860       193
54.870       293
54.880       220
54.890       273
54.900       240
54.910       247
54.920       207
54.930       260
54.940       233
54.950       160
54.960       247
54.970       173
54.980       213
54.990       147
55.000       320
55.010       307
55.020       227
55.030       253
55.040       233
55.050       220
55.060       240
55.070       253
55.080       227
55.090       207
55.100       227
55.110       187
55.120       260
55.130       247
55.140       213
55.150       193
55.160       207
55.170       240
55.180       207
55.190       307
55.200       260
55.210       180
55.220       253
55.230       167
55.240       220
55.250       233
55.260       213
55.270       187
55.280       167
55.290       193
55.300       153
55.310       193
55.320       247
55.330       207
55.340       120
55.350       200
55.360       227
55.370       213
55.380       187
55.390       220
55.400       220
55.410       160
55.420       220
55.430       253
55.440       187
55.450       240
55.460       173
55.470       260
55.480       253
55.490       213
55.500       193
55.510       153
55.520       140
55.530       173
55.540       160
55.550       187
55.560       180
55.570       187
55.580       187
55.590       187
55.600       173
55.610       160
55.620       220
55.630       200
55.640       200
55.650       253
55.660       153
55.670       153
55.680       180
55.690       193
55.700       160
55.710       127
55.720       207
55.730       200
55.740       247
55.750       207
55.760       147
55.770       267
55.780       220
55.790       260
55.800       193
55.810       207
55.820       153
55.830       200
55.840       153
55.850       193
55.860       180
55.870       187
55.880       180
55.890       127
55.900       133
55.910       160
55.920       147
55.930       193
55.940       233
55.950       113
55.960       213
55.970       200
55.980       187
55.990       213
56.000       193
56.010       180
56.020       167
56.030       247
56.040       213
56.050       213
56.060       213
56.070       193
56.080       173
56.090       133
56.100       160
56.110       187
56.120       200
56.130       167
56.140       147
56.150       220
56.160       193
56.170       173
56.180       180
56.190       227
56.200       247
56.210       187
56.220       180
56.230       220
56.240       233
56.250       227
56.260       207
56.270       213
56.280       173
56.290       167
56.300       160
56.310       207
56.320       153
56.330       227
56.340       153
56.350       160
56.360       213
56.370       180
56.380       200
56.390       167
56.400       180
56.410       140
56.420       173
56.430       147
56.440       133
56.450       167
56.460       200
56.470       167
56.480       153
56.490       213
56.500        93
56.510       200
56.520       187
56.530       187
56.540       213
56.550       213
56.560       180
56.570       200
56.580       193
56.590       173
56.600       173
56.610       153
56.620       147
56.630       193
56.640       100
56.650       207
56.660       167
56.670       153
56.680       180
56.690       160
56.700       153
56.710       153
56.720       153
56.730       253
56.740       140
56.750       187
56.760       213
56.770       187
56.780       180
56.790       173
56.800       113
56.810       153
56.820       133
56.830       120
56.840       140
56.850       153
56.860       173
56.870       173
56.880       153
56.890       160
56.900       247
56.910       180
56.920       160
56.930       127
56.940       100
56.950       133
56.960       140
56.970       153
56.980       173
56.990       153
57.000       187
57.010       147
57.020       153
57.030       173
57.040       160
57.050       140
57.060       100
57.070       187
57.080       193
57.090       187
57.100       147
57.110       140
57.120       160
57.130       113
57.140       173
57.150       140
57.160       127
57.170       160
57.180       167
57.190       113
57.200       153
57.210       153
57.220       173
57.230       133
57.240       133
57.250       113
57.260       147
57.270       160
57.280       227
57.290       173
57.300        60
57.310       180
57.320       193
57.330       153
57.340       100
57.350       187
57.360       113
57.370        67
57.380       200
57.390       133
57.400       167
57.410       140
57.420       153
57.430       147
57.440       153
57.450       187
57.460       220
57.470       140
57.480       180
57.490       153
57.500       113
57.510       120
57.520       160
57.530       160
57.540       140
57.550       187
57.560       147
57.570       133
57.580       147
57.590       180
57.600       133
57.610       160
57.620       167
57.630       167
57.640       147
57.650       180
57.660       173
57.670       207
57.680       133
57.690       180
57.700       133
57.710       173
57.720       160
57.730       140
57.740       133
57.750        67
57.760       187
57.770       160
57.780       140
57.790       140
57.800       147
57.810       160
57.820       167
57.830       100
57.840       213
57.850       153
57.860       147
57.870       133
57.880       120
57.890       160
57.900       173
57.910        93
57.920       220
57.930       140
57.940       147
57.950       167
57.960       133
57.970       147
57.980       173
57.990       153
58.000       153
58.010       140
58.020       113
58.030       147
58.040        87
58.050       133
58.060       160
58.070       147
58.080       113
58.090       107
58.100       153
58.110       180
58.120       147
58.130        87
58.140       120
58.150       107
58.160       180
58.170       127
58.180       120
58.190       127
58.200       153
58.210       167
58.220       107
58.230       140
58.240       133
58.250       147
58.260       113
58.270       113
58.280       147
58.290       153
58.300       200
58.310        87
58.320       140
58.330       160
58.340       193
58.350       113
58.360       173
58.370       120
58.380       153
58.390       107
58.400       160
58.410       140
58.420       107
58.430       107
58.440       100
58.450       140
58.460        73
58.470       200
58.480       133
58.490       140
58.500       133
58.510        87
58.520        93
58.530       113
58.540       100
58.550       113
58.560       107
58.570       100
58.580       107
58.590       140
58.600       113
58.610       167
58.620       113
58.630       100
58.640       113
58.650       113
58.660       113
58.670       133
58.680       120
58.690        93
58.700       140
58.710       113
58.720       113
58.730       160
58.740       173
58.750       167
58.760       100
58.770       113
58.780        80
58.790        80
58.800       107
58.810       100
58.820       147
58.830        47
58.840       167
58.850       120
58.860       120
58.870       120
58.880       120
58.890        67
58.900       147
58.910       140
58.920       140
58.930       147
58.940        60
58.950       127
58.960       113
58.970       140
58.980       140
58.990       207
59.000       140
59.010       120
59.020       140
59.030       160
59.040       147
59.050       133
59.060       107
59.070       147
59.080       140
59.090        73
59.100       120
59.110       113
59.120       127
59.130       127
59.140       120
59.150       113
59.160        80
59.170        93
59.180       100
59.190       107
59.200       120
59.210       107
59.220       127
59.230       100
59.240        93
59.250        67
59.260       127
59.270        93
59.280       120
59.290       160
59.300       147
59.310        67
59.320       160
59.330       127
59.340       147
59.350       113
59.360        73
59.370       120
59.380        80
59.390       100
59.400       193
59.410        87
59.420        93
59.430       133
59.440       133
59.450        87
59.460        67
59.470       127
59.480       107
59.490        53
59.500        87
59.510       107
59.520       120
59.530       100
59.540        67
59.550        73
59.560        60
59.570       127
59.580       100
59.590       107
59.600       113
59.610       147
59.620       127
59.630       100
59.640       133
59.650       100
59.660       153
59.670       107
59.680        73
59.690       193
59.700       140
59.710        60
59.720        73
59.730       113
59.740        67
59.750       133
59.760        93
59.770       113
59.780        93
59.790       140
59.800       100
59.810        87
59.820        93
59.830       100
59.840        93
59.850       127
59.860       107
59.870        93
59.880       107
59.890        87
59.900        80
59.910        80
59.920       140
59.930        80
59.940       113
59.950        80
59.960       133
59.970       140
59.980        93
59.990        73
60.000        73
