20.000        20
20.010        20
20.020        53
20.030        40
20.040        40
20.050        27
20.060        53
20.070        60
20.080        27
20.090        20
20.100        33
20.110        47
20.120        53
20.130        27
20.140        33
20.150        33
20.160        47
20.170        20
20.180        47
20.190        47
20.200        40
20.210        60
20.220        20
20.230        40
20.240        60
20.250        47
20.260        47
20.270        33
20.280        33
20.290        73
20.300        40
20.310        40
20.320        13
20.330        13
20.340         7
20.350        40
20.360        60
20.370        47
20.380        20
20.390        33
20.400        20
20.410        33
20.420        40
20.430        47
20.440        27
20.450        67
20.460         7
20.470        40
20.480        13
20.490        47
20.500        40
20.510        47
20.520        40
20.530        27
20.540        40
20.550        33
20.560        20
20.570        27
20.580        33
20.590        53
20.600        53
20.610        20
20.620        27
20.630        13
20.640        20
20.650        47
20.660        53
20.670        33
20.680        20
20.690        40
20.700        13
20.710        47
20.720         7
20.730        40
20.740        47
20.750        40
20.760        40
20.770        47
20.780        20
20.790        40
20.800        27
20.810        33
20.820        27
20.830        47
20.840        33
20.850        20
20.860        33
20.870        53
20.880        27
20.890        33
20.900        33
20.910        33
20.920        13
20.930        27
20.940        53
20.950        60
20.960        60
20.970        60
20.980        20
20.990        27
21.000        40
21.010        73
21.020        53
21.030        33
21.040        20
21.050        60
21.060        53
21.070        47
21.080        20
21.090        27
21.100        47
21.110        40
21.120        27
21.130        73
21.140        33
21.150        67
21.160        27
21.170        33
21.180        53
21.190        60
21.200        47
21.210        27
21.220        27
21.230        33
21.240        40
21.250        27
21.260        20
21.270        13
21.280        53
21.290        47
21.300        47
21.310        33
21.320        20
21.330         7
21.340        53
21.350        20
21.360        60
21.370        20
21.380        27
21.390        40
21.400        13
21.410        33
21.420        27
21.430        53
21.440        20
21.450        53
21.460        47
21.470        20
21.480        40
21.490        27
21.500        33
21.510        53
21.520        40
21.530        27
21.540        27
21.550        20
21.560        27
21.570         7
21.580        47
21.590        13
21.600        40
21.610        33
21.620        47
21.630        20
21.640        27
21.650        20
21.660        40
21.670        33
21.680        40
21.690        53
21.700        27
21.710        53
21.720        33
21.730        13
21.740        20
21.750        20
21.760        27
21.770        33
21.780        27
21.790        47
21.800        13
21.810        33
21.820        67
21.830        13
21.840        93
21.850        53
21.860         7
21.870        33
21.880        20
21.890        47
21.900        40
21.910        13
21.920        27
21.930        47
21.940        27
21.950        27
21.960        33
21.970        53
21.980        20
21.990        40
22.000        40
22.010        20
22.020        47
22.030        20
22.040        20
22.050         7
22.060        53
22.070        20
22.080        40
22.090         7
22.100        33
22.110        40
22.120        33
22.130        60
22.140        13
22.150        13
22.160        20
22.170        13
22.180        40
22.190        20
22.200        20
22.210        20
22.220        73
22.230        80
22.240        40
22.250        47
22.260        20
22.270        20
22.280        40
22.290        20
22.300        20
22.310        13
22.320        60
22.330         7
22.340        60
22.350        33
22.360        20
22.370        40
22.380        27
22.390        13
22.400        33
22.410         7
22.420        33
22.430        33
22.440        53
22.450        40
22.460        47
22.470        53
22.480        13
22.490        20
22.500        27
22.510        67
22.520        47
22.530        40
22.540        20
22.550        53
22.560        33
22.570        60
22.580        20
22.590        53
22.600        13
22.610        20
22.620        20
22.630        53
22.640        53
22.650        60
22.660        40
22.670        27
22.680        27
22.690        67
22.700        80
22.710        33
22.720        33
22.730        53
22.740        27
22.750        13
22.760        47
22.770        33
22.780        47
22.790        53
22.800        40
22.810        40
22.820         7
22.830        47
22.840        67
22.850        47
22.860        40
22.870        47
22.880        53
22.890         7
22.900        53
22.910        40
22.920        40
22.930        40
22.940        13
22.950         7
22.960        47
22.970        33
22.980         0
22.990        13
23.000        60
23.010        67
23.020         7
23.030        27
23.040        20
23.050        33
23.060        13
23.070        20
23.080        27
23.090        33
23.100        13
23.110        20
23.120         7
23.130        20
23.140        27
23.150        53
23.160        53
23.170        20
23.180        20
23.190        27
23.200        73
23.210        27
23.220        13
23.230        40
23.240        13
23.250        33
23.260        40
23.270        47
23.280        27
23.290        20
23.300        13
23.310        20
23.320        33
23.330        27
23.340        27
23.350        60
23.360        60
23.370         7
23.380        27
23.390         7
23.400        33
23.410        20
23.420        47
23.430        47
23.440        40
23.450        40
23.460        67
23.470        20
23.480        53
23.490        33
23.500        40
23.510        13
23.520        20
23.530        40
23.540        27
23.550        40
23.560        33
23.570        73
23.580        27
23.590        13
23.600        27
23.610        27
23.620        33
23.630        60
23.640        47
23.650        53
23.660        20
23.670        27
23.680        33
23.690        33
23.700        27
23.710        27
23.720        47
23.730        20
23.740        13
23.750        27
23.760        20
23.770        40
23.780        20
23.790        27
23.800         7
23.810        13
23.820        27
23.830        33
23.840         7
23.850        47
23.860        13
23.870        27
23.880        40
23.890        33
23.900        20
23.910        13
23.920        47
23.930        27
23.940        40
23.950        13
23.960        40
23.970        27
23.980        13
23.990        33
24.000        27
24.010        20
24.020        20
24.030         7
24.040        20
24.050        13
24.060         0
24.070        40
24.080        53
24.090        20
24.100        20
24.110        13
24.120        27
24.130        27
24.140        27
24.150        27
24.160        13
24.170        67
24.180         0
24.190        47
24.200        33
24.210        20
24.220         7
24.230        13
24.240        13
24.250        20
24.260        40
24.270        27
24.280        20
24.290        20
24.300        60
24.310        40
24.320        20
24.330        20
24.340        33
24.350        20
24.360         0
24.370        40
24.380        20
24.390         7
24.400        47
24.410        33
24.420        20
24.430        13
24.440        27
24.450        27
24.460        13
24.470        47
24.480        27
24.490        73
24.500        40
24.510        27
24.520        20
24.530        13
24.540        40
24.550        27
24.560        47
24.570        20
24.580        27
24.590        20
24.600        13
24.610        53
24.620        27
24.630         7
24.640        27
24.650        20
24.660        33
24.670        27
24.680        40
24.690        27
24.700        13
24.710        33
24.720         7
24.730        20
24.740        27
24.750        47
24.760        13
24.770        27
24.780        40
24.790        47
24.800        47
24.810        13
24.820        20
24.830        27
24.840        20
24.850        20
24.860        27
24.870        33
24.880        33
24.890        47
24.900        27
24.910        33
24.920        13
24.930        40
24.940        20
24.950        47
24.960        20
24.970        47
24.980        20
24.990        20
25.000        40
25.010        33
25.020        20
25.030        67
25.040        20
25.050        20
25.060        13
25.070        27
25.080        27
25.090         7
25.100        33
25.110        53
25.120        27
25.130        20
25.140        47
25.150        33
25.160        33
25.170        20
25.180        20
25.190        40
25.200        33
25.210        27
25.220        20
25.230        47
25.240        13
25.250        27
25.260        40
25.270        47
25.280        33
25.290        33
25.300        13
25.310        40
25.320        33
25.330        20
25.340        27
25.350         7
25.360        33
25.370        20
25.380        53
25.390        27
25.400        13
25.410        33
25.420        27
25.430        13
25.440        40
25.450        33
25.460        40
25.470        33
25.480        27
25.490        33
25.500        20
25.510        27
25.520        27
25.530        20
25.540        47
25.550        40
25.560         7
25.570        33
25.580        40
25.590        47
25.600        60
25.610       100
25.620        33
25.630        87
25.640        40
25.650        53
25.660        47
25.670        60
25.680        20
25.690        60
25.700        93
25.710        27
25.720        47
25.730        40
25.740        40
25.750        60
25.760        40
25.770        40
25.780        67
25.790        33
25.800        67
25.810        60
25.820        53
25.830        67
25.840        67
25.850        73
25.860       100
25.870        87
25.880       100
25.890       100
25.900        73
25.910        87
25.920        53
25.930        13
25.940        73
25.950        60
25.960        33
25.970        13
25.980        53
25.990        47
26.000        40
26.010        67
26.020         7
26.030        20
26.040         0
26.050        13
26.060        33
26.070        33
26.080        27
26.090        33
26.100        53
26.110        33
26.120        27
26.130        27
26.140        33
26.150        40
26.160        20
26.170        27
26.180         7
26.190        20
26.200        20
26.210        80
26.220        47
26.230        60
26.240        27
26.250        20
26.260        20
26.270        33
26.280         7
26.290        20
26.300         0
26.310        33
26.320        13
26.330        40
26.340         7
26.350        13
26.360        33
26.370        20
26.380        40
26.390        33
26.400         7
26.410        27
26.420        27
26.430        13
26.440        13
26.450        27
26.460        27
26.470         0
26.480        27
26.490        13
26.500        13
26.510        33
26.520        20
26.530        20
26.540        47
26.550        33
26.560        40
26.570        13
26.580        33
26.590        40
26.600        33
26.610         7
26.620        20
26.630        20
26.640        27
26.650         7
26.660        33
26.670        13
26.680         7
26.690        40
26.700        40
26.710        33
26.720        33
26.730         7
26.740        27
26.750         7
26.760        20
26.770        20
26.780         7
26.790        33
26.800        20
26.810        27
26.820        13
26.830        20
26.840        33
26.850        13
26.860        27
26.870        20
26.880        13
26.890        20
26.900        13
26.910        33
26.920        47
26.930        27
26.940        40
26.950        47
26.960        20
26.970        40
26.980         7
26.990        20
27.000        20
27.010        20
27.020        20
27.030        27
27.040        53
27.050        13
27.060        33
27.070        33
27.080        13
27.090        33
27.100        27
27.110        20
27.120         7
27.130        20
27.140        27
27.150        40
27.160        20
27.170        20
27.180        20
27.190        40
27.200        20
27.210        27
27.220         7
27.230        53
27.240        20
27.250        13
27.260        40
27.270        40
27.280        47
27.290        27
27.300        33
27.310        20
27.320        20
27.330        27
27.340        13
27.350        20
27.360        33
27.370         7
27.380        20
27.390         7
27.400        27
27.410        27
27.420        13
27.430        33
27.440        20
27.450        27
27.460        13
27.470        27
27.480        13
27.490        53
27.500        33
27.510        27
27.520        20
27.530         0
27.540        20
27.550        13
27.560        13
27.570         7
27.580        33
27.590        20
27.600         0
27.610        40
27.620        20
27.630        33
27.640        33
27.650        33
27.660        33
27.670        33
27.680        27
27.690        27
27.700        13
27.710         7
27.720         0
27.730        27
27.740        20
27.750        27
27.760        27
27.770        13
27.780        40
27.790        27
27.800        33
27.810        33
27.820        27
27.830        47
27.840        13
27.850        47
27.860        27
27.870        47
27.880        13
27.890        20
27.900        13
27.910        67
27.920        20
27.930        47
27.940        47
27.950        67
27.960        27
27.970        27
27.980        33
27.990        20
28.000        47
28.010        20
28.020        33
28.030         7
28.040        33
28.050        40
28.060        40
28.070        13
28.080        13
28.090        20
28.100        13
28.110        20
28.120        40
28.130        33
28.140        27
28.150        20
28.160        20
28.170        20
28.180        13
28.190        40
28.200        13
28.210        27
28.220        27
28.230        27
28.240        27
28.250        67
28.260        33
28.270        13
28.280        40
28.290        47
28.300        33
28.310        20
28.320        20
28.330        47
28.340         7
28.350        27
28.360         0
28.370         7
28.380        33
28.390         7
28.400        13
28.410        27
28.420        40
28.430        13
28.440        13
28.450        40
28.460         7
28.470        27
28.480        13
28.490        53
28.500        33
28.510        33
28.520        13
28.530         0
28.540        20
28.550        33
28.560        20
28.570        40
28.580        20
28.590        20
28.600        40
28.610        13
28.620         7
28.630        13
28.640        20
28.650        47
28.660        27
28.670        67
28.680        20
28.690        40
28.700        40
28.710        33
28.720        40
28.730        27
28.740        40
28.750        53
28.760        33
28.770        27
28.780        60
28.790        60
28.800        60
28.810        27
28.820         7
28.830        27
28.840        20
28.850        40
28.860        73
28.870        20
28.880        20
28.890        20
28.900        20
28.910        40
28.920        27
28.930        53
28.940        20
28.950         7
28.960        33
28.970        13
28.980        33
28.990        27
29.000        47
29.010        33
29.020        40
29.030        47
29.040        20
29.050        60
29.060        33
29.070        27
29.080        20
29.090        33
29.100        47
29.110        33
29.120        40
29.130        20
29.140        53
29.150        33
29.160        20
29.170        40
29.180        33
29.190        27
29.200        27
29.210        40
29.220        33
29.230        13
29.240        67
29.250        33
29.260        73
29.270        27
29.280        40
29.290        13
29.300        20
29.310        40
29.320        40
29.330        20
29.340        33
29.350        33
29.360        20
29.370        87
29.380        27
29.390         7
29.400        20
29.410        20
29.420        20
29.430        47
29.440        27
29.450        40
29.460        40
29.470        40
29.480        27
29.490        67
29.500        73
29.510        53
29.520        80
29.530        67
29.540        87
29.550        27
29.560        87
29.570        47
29.580        87
29.590        73
29.600       133
29.610       207
29.620       160
29.630       140
29.640       180
29.650       140
29.660       147
29.670       200
29.680       173
29.690       173
29.700       180
29.710       193
29.720       147
29.730       160
29.740       107
29.750        87
29.760        93
29.770        87
29.780        67
29.790        87
29.800        60
29.810        33
29.820        27
29.830        27
29.840        33
29.850         7
29.860        20
29.870        27
29.880        13
29.890        27
29.900        13
29.910        20
29.920         0
29.930         7
29.940         7
29.950        20
29.960        13
29.970        20
29.980        33
29.990        20
30.000         7
30.010        27
30.020        13
30.030        20
30.040        27
30.050        20
30.060        33
30.070        20
30.080        20
30.090        40
30.100        27
30.110        13
30.120        20
30.130        13
30.140        20
30.150        13
30.160        27
30.170         7
30.180        47
30.190         0
30.200        27
30.210        13
30.220        47
30.230         0
30.240        27
30.250         7
30.260        33
30.270        33
30.280        20
30.290        27
30.300         7
30.310        27
30.320        40
30.330        47
30.340        40
30.350        40
30.360        13
30.370        33
30.380        20
30.390        33
30.400        20
30.410         7
30.420        33
30.430        33
30.440        13
30.450         7
30.460        40
30.470        20
30.480        47
30.490        20
30.500        27
30.510        73
30.520        40
30.530        13
30.540        67
30.550        33
30.560         7
30.570        33
30.580        27
30.590        33
30.600        67
30.610        27
30.620        33
30.630        40
30.640        13
30.650        33
30.660        53
30.670        33
30.680        67
30.690        20
30.700        20
30.710        33
30.720        20
30.730         7
30.740        20
30.750         7
30.760        20
30.770        27
30.780        27
30.790        13
30.800        27
30.810        27
30.820        33
30.830        13
30.840        27
30.850        27
30.860         7
30.870         0
30.880        27
30.890        40
30.900        53
30.910         7
30.920        33
30.930        33
30.940        27
30.950         7
30.960        20
30.970        27
30.980        13
30.990        13
31.000        27
31.010        33
31.020        40
31.030        13
31.040        13
31.050        20
31.060        20
31.070         0
31.080        20
31.090        13
31.100        40
31.110        20
31.120         7
31.130        20
31.140        13
31.150        20
31.160        40
31.170        27
31.180        20
31.190        13
31.200        20
31.210        27
31.220        13
31.230        40
31.240        40
31.250         0
31.260         7
31.270        40
31.280        33
31.290        13
31.300        20
31.310         7
31.320        20
31.330        20
31.340        20
31.350        13
31.360        40
31.370        20
31.380         7
31.390        40
31.400        40
31.410        13
31.420        40
31.430         7
31.440        13
31.450        33
31.460        27
31.470        20
31.480        20
31.490        27
31.500        27
31.510        13
31.520        33
31.530        33
31.540        20
31.550        27
31.560        20
31.570        13
31.580        13
31.590        27
31.600        13
31.610        27
31.620        33
31.630        27
31.640        20
31.650        27
31.660        20
31.670        20
31.680        40
31.690        13
31.700        13
31.710        13
31.720        13
31.730        27
31.740        47
31.750         0
31.760        20
31.770         7
31.780        33
31.790        27
31.800         7
31.810        20
31.820        33
31.830         7
31.840        13
31.850        27
31.860        13
31.870        13
31.880        27
31.890        20
31.900        20
31.910         7
31.920        33
31.930        33
31.940        20
31.950        40
31.960        13
31.970         7
31.980        13
31.990        27
32.000        33
32.010        33
32.020        20
32.030        20
32.040        20
32.050        27
32.060        13
32.070        33
32.080        27
32.090         7
32.100        40
32.110        47
32.120        40
32.130        27
32.140        47
32.150        60
32.160        40
32.170        60
32.180        53
32.190        47
32.200        47
32.210        27
32.220        87
32.230        53
32.240        87
32.250        27
32.260        53
32.270        80
32.280        67
32.290        93
32.300        87
32.310        40
32.320        60
32.330        73
32.340        67
32.350        33
32.360        53
32.370        33
32.380        33
32.390        20
32.400        33
32.410        47
32.420        33
32.430        40
32.440         7
32.450        27
32.460        13
32.470        33
32.480        40
32.490        27
32.500         7
32.510        33
32.520        13
32.530         7
32.540        20
32.550        13
32.560         7
32.570        13
32.580        40
32.590         7
32.600        20
32.610        27
32.620        33
32.630        20
32.640        20
32.650        27
32.660        40
32.670        33
32.680        27
32.690        13
32.700         7
32.710        33
32.720        27
32.730        27
32.740         0
32.750        20
32.760        13
32.770        13
32.780         7
32.790        20
32.800        33
32.810         7
32.820        27
32.830         7
32.840        27
32.850        13
32.860        40
32.870        33
32.880        27
32.890        27
32.900        40
32.910         7
32.920        13
32.930        13
32.940        27
32.950         0
32.960         0
32.970         0
32.980         0
32.990        13
33.000        27
33.010        27
33.020        13
33.030        33
33.040         7
33.050        20
33.060        20
33.070         7
33.080         0
33.090        20
33.100        20
33.110        33
33.120        20
33.130        20
33.140         7
33.150        13
33.160        20
33.170        27
33.180         7
33.190        13
33.200         7
33.210         7
33.220        13
33.230        33
33.240        20
33.250        40
33.260        13
33.270        33
33.280        13
33.290         7
33.300        60
33.310        20
33.320        13
33.330        33
33.340        33
33.350        13
33.360        27
33.370        27
33.380         7
33.390        13
33.400         7
33.410        40
33.420        20
33.430        13
33.440         0
33.450         0
33.460         7
33.470        20
33.480        20
33.490         7
33.500        13
33.510         7
33.520        13
33.530         7
33.540        20
33.550         7
33.560        13
33.570        13
33.580         7
33.590         7
33.600         7
33.610        13
33.620        33
33.630        20
33.640        13
33.650        33
33.660        13
33.670        13
33.680        27
33.690         7
33.700        20
33.710         7
33.720        33
33.730         7
33.740        20
33.750        40
33.760         7
33.770        33
33.780        27
33.790        20
33.800        13
33.810         7
33.820         7
33.830        13
33.840        20
33.850        13
33.860        27
33.870        13
33.880         0
33.890        13
33.900        27
33.910        20
33.920         7
33.930        13
33.940         0
33.950         7
33.960        13
33.970        13
33.980        13
33.990         0
34.000         0
34.010         7
34.020        27
34.030        40
34.040        33
34.050         0
34.060        33
34.070        13
34.080         0
34.090        33
34.100         7
34.110        13
34.120        27
34.130        40
34.140         7
34.150         0
34.160         7
34.170        13
34.180        20
34.190        13
34.200        13
34.210         7
34.220        13
34.230        27
34.240        27
34.250        13
34.260        40
34.270         0
34.280        20
34.290        20
34.300        33
34.310        20
34.320        20
34.330         0
34.340         7
34.350         0
34.360         7
34.370        13
34.380        27
34.390        13
34.400        27
34.410        20
34.420        13
34.430        20
34.440        33
34.450        13
34.460        13
34.470        40
34.480        27
34.490        20
34.500         7
34.510        13
34.520        33
34.530        20
34.540        20
34.550        33
34.560        13
34.570        13
34.580        13
34.590        27
34.600        40
34.610         7
34.620        20
34.630        20
34.640         0
34.650        67
34.660         0
34.670        20
34.680        13
34.690         0
34.700        27
34.710         7
34.720        40
34.730        13
34.740        20
34.750         0
34.760        13
34.770        33
34.780         7
34.790        33
34.800        13
34.810        27
34.820        20
34.830         7
34.840        33
34.850         7
34.860        13
34.870        33
34.880        27
34.890         7
34.900        20
34.910         7
34.920        20
34.930        27
34.940        33
34.950         7
34.960         7
34.970        20
34.980        13
34.990         7
35.000        20
35.010        13
35.020        27
35.030         7
35.040        20
35.050        13
35.060        13
35.070         7
35.080        33
35.090        13
35.100         0
35.110        13
35.120        20
35.130         7
35.140        20
35.150        40
35.160        20
35.170        20
35.180        13
35.190        27
35.200        20
35.210        20
35.220        13
35.230        13
35.240        20
35.250        13
35.260         7
35.270        27
35.280        27
35.290        13
35.300         7
35.310         7
35.320        27
35.330         7
35.340        27
35.350        40
35.360        20
35.370         7
35.380         0
35.390        20
35.400        13
35.410        13
35.420        40
35.430        27
35.440        27
35.450         7
35.460        13
35.470        20
35.480        33
35.490        13
35.500        27
35.510        13
35.520        20
35.530        20
35.540        40
35.550        20
35.560        20
35.570        20
35.580        27
35.590         0
35.600        20
35.610        27
35.620        20
35.630        27
35.640        13
35.650        13
35.660        13
35.670        13
35.680        20
35.690        20
35.700        13
35.710        13
35.720        13
35.730        47
35.740        13
35.750        33
35.760         7
35.770        13
35.780        27
35.790        40
35.800        33
35.810        13
35.820         7
35.830         7
35.840        20
35.850        27
35.860         7
35.870         7
35.880        20
35.890        40
35.900        20
35.910        13
35.920         7
35.930        20
35.940        13
35.950         0
35.960        20
35.970        13
35.980         0
35.990        13
36.000        13
36.010        13
36.020        20
36.030         7
36.040        20
36.050        13
36.060        20
36.070        47
36.080         7
36.090         0
36.100        13
36.110        13
36.120        27
36.130        27
36.140         7
36.150         7
36.160        27
36.170        13
36.180         7
36.190        20
36.200        13
36.210        13
36.220        20
36.230         7
36.240        20
36.250        20
36.260         7
36.270        13
36.280         7
36.290        33
36.300        20
36.310        20
36.320         7
36.330        13
36.340         7
36.350        20
36.360        33
36.370         0
36.380         7
36.390        20
36.400        20
36.410        13
36.420        13
36.430         7
36.440        33
36.450         7
36.460        13
36.470        13
36.480        40
36.490         7
36.500        20
36.510        20
36.520        27
36.530        13
36.540        13
36.550        40
36.560        13
36.570        20
36.580        27
36.590         0
36.600        33
36.610        13
36.620        13
36.630         7
36.640        20
36.650        20
36.660         7
36.670         7
36.680        20
36.690         0
36.700        13
36.710        27
36.720         7
36.730        13
36.740         0
36.750        20
36.760        27
36.770        47
36.780         7
36.790         0
36.800        13
36.810        27
36.820         0
36.830        13
36.840         7
36.850        13
36.860        33
36.870        20
36.880         0
36.890        13
36.900        13
36.910        13
36.920         7
36.930        13
36.940         0
36.950        27
36.960        27
36.970        13
36.980        27
36.990        33
37.000        20
37.010        13
37.020        13
37.030         0
37.040         7
37.050        27
37.060         7
37.070         0
37.080        13
37.090        20
37.100        13
37.110         7
37.120        27
37.130        13
37.140        27
37.150         0
37.160        20
37.170         0
37.180         7
37.190        20
37.200        27
37.210        13
37.220         7
37.230        13
37.240        33
37.250        13
37.260        27
37.270        13
37.280         0
37.290        40
37.300        27
37.310        40
37.320        13
37.330         7
37.340        13
37.350        13
37.360        33
37.370        13
37.380        13
37.390         7
37.400         7
37.410        27
37.420         7
37.430        20
37.440        20
37.450        20
37.460        20
37.470        13
37.480         7
37.490        13
37.500        20
37.510         7
37.520        33
37.530         7
37.540        13
37.550        13
37.560        20
37.570        13
37.580        13
37.590        27
37.600         7
37.610        13
37.620        27
37.630         7
37.640        20
37.650        20
37.660        13
37.670        27
37.680        20
37.690         7
37.700        47
37.710        13
37.720         7
37.730        20
37.740         7
37.750         7
37.760        27
37.770        20
37.780         7
37.790         7
37.800        20
37.810        27
37.820        13
37.830        27
37.840        20
37.850        27
37.860        20
37.870        20
37.880         7
37.890         7
37.900         7
37.910         0
37.920        13
37.930        13
37.940         7
37.950        13
37.960        20
37.970        20
37.980        13
37.990        27
38.000        13
38.010         7
38.020        13
38.030         7
38.040        20
38.050        33
38.060        33
38.070        20
38.080        13
38.090        20
38.100        20
38.110        13
38.120        33
38.130         7
38.140        13
38.150        13
38.160        13
38.170        33
38.180         0
38.190        27
38.200        20
38.210         7
38.220        27
38.230        13
38.240        13
38.250        40
38.260         7
38.270        33
38.280        20
38.290        27
38.300        20
38.310        13
38.320        13
38.330        13
38.340        13
38.350         7
38.360        13
38.370        20
38.380        13
38.390        13
38.400        13
38.410        13
38.420        33
38.430        13
38.440        27
38.450         7
38.460        13
38.470        13
38.480        13
38.490        13
38.500        27
38.510        13
38.520         7
38.530        13
38.540         7
38.550        20
38.560        20
38.570         7
38.580        20
38.590        40
38.600        27
38.610        13
38.620         7
38.630        27
38.640        20
38.650         7
38.660         7
38.670         0
38.680        27
38.690         0
38.700        20
38.710        13
38.720        20
38.730        20
38.740        20
38.750        13
38.760        13
38.770        13
38.780        27
38.790         7
38.800        27
38.810        13
38.820         0
38.830        33
38.840        33
38.850        27
38.860         7
38.870        13
38.880        20
38.890        20
38.900        20
38.910         7
38.920         7
38.930         0
38.940        13
38.950        20
38.960        20
38.970        13
38.980        20
38.990         0
39.000        33
39.010        60
39.020        33
39.030        27
39.040        13
39.050        13
39.060        27
39.070        13
39.080        13
39.090        27
39.100        13
39.110        33
39.120        33
39.130        33
39.140        47
39.150        20
39.160        27
39.170        27
39.180        13
39.190        27
39.200        27
39.210        27
39.220         7
39.230        40
39.240        27
39.250        13
39.260        20
39.270        20
39.280        27
39.290         0
39.300        27
39.310        47
39.320         7
39.330        20
39.340         7
39.350        13
39.360        47
39.370        13
39.380        27
39.390         7
39.400        20
39.410        13
39.420        20
39.430        20
39.440         7
39.450        20
39.460        13
39.470        27
39.480        20
39.490        13
39.500        27
39.510        20
39.520         7
39.530        13
39.540        20
39.550         0
39.560        27
39.570         0
39.580         7
39.590        27
39.600        13
39.610        27
39.620        20
39.630        27
39.640         0
39.650         0
39.660        27
39.670        13
39.680        27
39.690         0
39.700        20
39.710        33
39.720         7
39.730        13
39.740         0
39.750        13
39.760         7
39.770         0
39.780         7
39.790         7
39.800        27
39.810        13
39.820         7
39.830        27
39.840        13
39.850        20
39.860        13
39.870         0
39.880        20
39.890        13
39.900        13
39.910        13
39.920         7
39.930         0
39.940        13
39.950         7
39.960        33
39.970        20
39.980        20
39.990        53
40.000         0
40.010        20
40.020        33
40.030        27
40.040        27
40.050        20
40.060        33
40.070        27
40.080        20
40.090        20
40.100        20
40.110        20
40.120        33
40.130        33
40.140        20
40.150        40
40.160        27
40.170        27
40.180        27
40.190         7
40.200        27
40.210         7
40.220        40
40.230        20
40.240        13
40.250        13
40.260        27
40.270        40
40.280        13
40.290        20
40.300        13
40.310        27
40.320        20
40.330        27
40.340         7
40.350         7
40.360         7
40.370        33
40.380         7
40.390         7
40.400        33
40.410        13
40.420        40
40.430        20
40.440         7
40.450        13
40.460         7
40.470         7
40.480        20
40.490        13
40.500         7
40.510        13
40.520         0
40.530        13
40.540        13
40.550        33
40.560        27
40.570        13
40.580        20
40.590        27
40.600         7
40.610         7
40.620         7
40.630        13
40.640         7
40.650         7
40.660         7
40.670        20
40.680        13
40.690         7
40.700         0
40.710        20
40.720        20
40.730         7
40.740        13
40.750         7
40.760        13
40.770        13
40.780        13
40.790        20
40.800        13
40.810        20
40.820        27
40.830        20
40.840         7
40.850         7
40.860        20
40.870        13
40.880        27
40.890        20
40.900        27
40.910        13
40.920         0
40.930         0
40.940        33
40.950        40
40.960        13
40.970        20
40.980        13
40.990         7
41.000        13
41.010        33
41.020        20
41.030         7
41.040         0
41.050         7
41.060        27
41.070        20
41.080         7
41.090         0
41.100        13
41.110         7
41.120         0
41.130        20
41.140         7
41.150         7
41.160        20
41.170        27
41.180        20
41.190         7
41.200         7
41.210         7
41.220        13
41.230         7
41.240         7
41.250        13
41.260        20
41.270         7
41.280        13
41.290        40
41.300        13
41.310        13
41.320         7
41.330         7
41.340        27
41.350        13
41.360        20
41.370        13
41.380        13
41.390        13
41.400        47
41.410         0
41.420         7
41.430         0
41.440         0
41.450        13
41.460        27
41.470         7
41.480         0
41.490        13
41.500        13
41.510        13
41.520        27
41.530        33
41.540        13
41.550        13
41.560        27
41.570         7
41.580        20
41.590         0
41.600         7
41.610        13
41.620        27
41.630        13
41.640        27
41.650         7
41.660         7
41.670         0
41.680        20
41.690        40
41.700        20
41.710        33
41.720        20
41.730         7
41.740         7
41.750         0
41.760        27
41.770         0
41.780         0
41.790        20
41.800        13
41.810         7
41.820        27
41.830        20
41.840         7
41.850        13
41.860        27
41.870         7
41.880        13
41.890        27
41.900        13
41.910         0
41.920        13
41.930        13
41.940         7
41.950        13
41.960         7
41.970        20
41.980         7
41.990         0
42.000        27
42.010        13
42.020         7
42.030        53
42.040        13
42.050         7
42.060        27
42.070         7
42.080        13
42.090         0
42.100        13
42.110        13
42.120        13
42.130        33
42.140        40
42.150        20
42.160        13
42.170        13
42.180        20
42.190         7
42.200         0
42.210         7
42.220        20
42.230        13
42.240        40
42.250        20
42.260        27
42.270        53
42.280         7
42.290        13
42.300         0
42.310        13
42.320        13
42.330        27
42.340        40
42.350        13
42.360         7
42.370         7
42.380        13
42.390        20
42.400        40
42.410        13
42.420        40
42.430        27
42.440        27
42.450        53
42.460        27
42.470        27
42.480        20
42.490        27
42.500        27
42.510        53
42.520        47
42.530        20
42.540        27
42.550        13
42.560        27
42.570        20
42.580        47
42.590        20
42.600        13
42.610        67
42.620         7
42.630        27
42.640        27
42.650         7
42.660        27
42.670        33
42.680         7
42.690        13
42.700        13
42.710        20
42.720        13
42.730        27
42.740        13
42.750        13
42.760         0
42.770        13
42.780        27
42.790        40
42.800        13
42.810        27
42.820        33
42.830        33
42.840        27
42.850        20
42.860        27
42.870         0
42.880        20
42.890        20
42.900        20
42.910        13
42.920        27
42.930        33
42.940        20
42.950         0
42.960        40
42.970        40
42.980        33
42.990        33
43.000        33
43.010        33
43.020        33
43.030        20
43.040        13
43.050        20
43.060         7
43.070        20
43.080        13
43.090        33
43.100        27
43.110        40
43.120        40
43.130        27
43.140         0
43.150        33
43.160        27
43.170        33
43.180        27
43.190        33
43.200         0
43.210         0
43.220        13
43.230        40
43.240        27
43.250        13
43.260        33
43.270        20
43.280        40
43.290         7
43.300        13
43.310        33
43.320        27
43.330        20
43.340        27
43.350        13
43.360        13
43.370         0
43.380        13
43.390        13
43.400         7
43.410        13
43.420        20
43.430        27
43.440         0
43.450        47
43.460        33
43.470        20
43.480        27
43.490        13
43.500        20
43.510         7
43.520         7
43.530        13
43.540        40
43.550        20
43.560         7
43.570        27
43.580        47
43.590        20
43.600         7
43.610        20
43.620        20
43.630         0
43.640        20
43.650         7
43.660         7
43.670        13
43.680         7
43.690        13
43.700        13
43.710        27
43.720         7
43.730         0
43.740        27
43.750        13
43.760        13
43.770        33
43.780         7
43.790        13
43.800        27
43.810        33
43.820         7
43.830        13
43.840        13
43.850        20
43.860        13
43.870        13
43.880        20
43.890        13
43.900         0
43.910        20
43.920         0
43.930         0
43.940         0
43.950        13
43.960        33
43.970        27
43.980        20
43.990        13
44.000         7
44.010        13
44.020        20
44.030        20
44.040        33
44.050        20
44.060        20
44.070        27
44.080        13
44.090        27
44.100         7
44.110         0
44.120        40
44.130         7
44.140        13
44.150         7
44.160        27
44.170        13
44.180        33
44.190        13
44.200         0
44.210        20
44.220        27
44.230        20
44.240        13
44.250        20
44.260        33
44.270        20
44.280        40
44.290         7
44.300        20
44.310        13
44.320         7
44.330        27
44.340        33
44.350         7
44.360        20
44.370        27
44.380         7
44.390        20
44.400        20
44.410        20
44.420        33
44.430        27
44.440        47
44.450        13
44.460         0
44.470        33
44.480        33
44.490         7
44.500         7
44.510        13
44.520         7
44.530         0
44.540        33
44.550        13
44.560        27
44.570        33
44.580        53
44.590         7
44.600         0
44.610        20
44.620         7
44.630        20
44.640         7
44.650         7
44.660        33
44.670        27
44.680        27
44.690        27
44.700         7
44.710        13
44.720        20
44.730         7
44.740         0
44.750         0
44.760         7
44.770        27
44.780        13
44.790        20
44.800         7
44.810         7
44.820        20
44.830        13
44.840         0
44.850        33
44.860        13
44.870        13
44.880         0
44.890         7
44.900        27
44.910        13
44.920        20
44.930        13
44.940        13
44.950        27
44.960        20
44.970         7
44.980        27
44.990        20
45.000        20
45.010        20
45.020         7
45.030        27
45.040        13
45.050         7
45.060        27
45.070        13
45.080        27
45.090        33
45.100        13
45.110        20
45.120         7
45.130         0
45.140        20
45.150         0
45.160        33
45.170         7
45.180         7
45.190        13
45.200        13
45.210         7
45.220        33
45.230        13
45.240        13
45.250        13
45.260        47
45.270        13
45.280        13
45.290        20
45.300         7
45.310        20
45.320        27
45.330         7
45.340        13
45.350         7
45.360        27
45.370        20
45.380        20
45.390         0
45.400         7
45.410        20
45.420        47
45.430        20
45.440        13
45.450        20
45.460        27
45.470        20
45.480         7
45.490        27
45.500        20
45.510         7
45.520         0
45.530        13
45.540         7
45.550        13
45.560        13
45.570        27
45.580        20
45.590        20
45.600        27
45.610        20
45.620        13
45.630        27
45.640        33
45.650         0
45.660        13
45.670        13
45.680        40
45.690         7
45.700        20
45.710         7
45.720        13
45.730        20
45.740        13
45.750        33
45.760        20
45.770        40
45.780         0
45.790        20
45.800        13
45.810         7
45.820        13
45.830        13
45.840         0
45.850         7
45.860        20
45.870         7
45.880        13
45.890        13
45.900        20
45.910        33
45.920         7
45.930        27
45.940        33
45.950        20
45.960        20
45.970         0
45.980        13
45.990        33
46.000        33
46.010        33
46.020        20
46.030        13
46.040        13
46.050         7
46.060         7
46.070        40
46.080        27
46.090        67
46.100        33
46.110         7
46.120        33
46.130        27
46.140        13
46.150        47
46.160        40
46.170        40
46.180        47
46.190        73
46.200        27
46.210        40
46.220        27
46.230        40
46.240        47
46.250        33
46.260        27
46.270         7
46.280        33
46.290        27
46.300        27
46.310        33
46.320        20
46.330        20
46.340        47
46.350        13
46.360        27
46.370        20
46.380        13
46.390        13
46.400         0
46.410        13
46.420        27
46.430        40
46.440         7
46.450        27
46.460        27
46.470        27
46.480        20
46.490         7
46.500        20
46.510         7
46.520        20
46.530        47
46.540        53
46.550         7
46.560        20
46.570        13
46.580         0
46.590        20
46.600        20
46.610        13
46.620        13
46.630        20
46.640        27
46.650        33
46.660         7
46.670        27
46.680        27
46.690        20
46.700        33
46.710        13
46.720        20
46.730         7
46.740        20
46.750        33
46.760        33
46.770        53
46.780        33
46.790         7
46.800         7
46.810         7
46.820        20
46.830        20
46.840         7
46.850        33
46.860        20
46.870        20
46.880        27
46.890         0
46.900         0
46.910        20
46.920        13
46.930        27
46.940         7
46.950        40
46.960        27
46.970        20
46.980         7
46.990        40
47.000        13
47.010        20
47.020        20
47.030        33
47.040         0
47.050         7
47.060        40
47.070         0
47.080        20
47.090        13
47.100        20
47.110        13
47.120        20
47.130         0
47.140        40
47.150        13
47.160        33
47.170        20
47.180        27
47.190        20
47.200        13
47.210        33
47.220        20
47.230        13
47.240        13
47.250        13
47.260        13
47.270        20
47.280        20
47.290        13
47.300        20
47.310        20
47.320        13
47.330        27
47.340        20
47.350        20
47.360        13
47.370        40
47.380        13
47.390        47
47.400        40
47.410        20
47.420        20
47.430        13
47.440         7
47.450        27
47.460        20
47.470        33
47.480        13
47.490        27
47.500        47
47.510        40
47.520        20
47.530        13
47.540        33
47.550        33
47.560        47
47.570        20
47.580        13
47.590        27
47.600        20
47.610        33
47.620        13
47.630        20
47.640         7
47.650        27
47.660        13
47.670        33
47.680        27
47.690        20
47.700        27
47.710        33
47.720        20
47.730         7
47.740        20
47.750        27
47.760        33
47.770        20
47.780        20
47.790         7
47.800         0
47.810        20
47.820         0
47.830        27
47.840         0
47.850        13
47.860        20
47.870        20
47.880        27
47.890         7
47.900         7
47.910        13
47.920        40
47.930        20
47.940         7
47.950        20
47.960        33
47.970        20
47.980        20
47.990        13
48.000        13
48.010        20
48.020        33
48.030        20
48.040        20
48.050         0
48.060        27
48.070        40
48.080        20
48.090        13
48.100        13
48.110        20
48.120        20
48.130        27
48.140        13
48.150        20
48.160        20
48.170        33
48.180        40
48.190         7
48.200         7
48.210        20
48.220        20
48.230        13
48.240        13
48.250        33
48.260        40
48.270        27
48.280        27
48.290        27
48.300        20
48.310        27
48.320        13
48.330        13
48.340        20
48.350        53
48.360         7
48.370        47
48.380        53
48.390        33
48.400        13
48.410         7
48.420        47
48.430        33
48.440         7
48.450        20
48.460        20
48.470        33
48.480        27
48.490        20
48.500        13
48.510        20
48.520        13
48.530         7
48.540        13
48.550        20
48.560         7
48.570        27
48.580        27
48.590        40
48.600        20
48.610        13
48.620        47
48.630        13
48.640        27
48.650        20
48.660         0
48.670        13
48.680        27
48.690         7
48.700        13
48.710        13
48.720        13
48.730        13
48.740        20
48.750        27
48.760        27
48.770         7
48.780         7
48.790        27
48.800        13
48.810        13
48.820        40
48.830        13
48.840         7
48.850        13
48.860        13
48.870         7
48.880        20
48.890        33
48.900        27
48.910         7
48.920        27
48.930         0
48.940         0
48.950        20
48.960         0
48.970        13
48.980         7
48.990         7
49.000        20
49.010         7
49.020        27
49.030        33
49.040         0
49.050         7
49.060        33
49.070        27
49.080        13
49.090        20
49.100        27
49.110        53
49.120        33
49.130        27
49.140        13
49.150        20
49.160        33
49.170        40
49.180        13
49.190         7
49.200        20
49.210        13
49.220        20
49.230        27
49.240        27
49.250        20
49.260        40
49.270        40
49.280        13
49.290        53
49.300        47
49.310         7
49.320         7
49.330        20
49.340        33
49.350        13
49.360        13
49.370        20
49.380        27
49.390        40
49.400        27
49.410        13
49.420        20
49.430        20
49.440        27
49.450        20
49.460         7
49.470        13
49.480        27
49.490        13
49.500        20
49.510        13
49.520        13
49.530         7
49.540         0
49.550        40
49.560        13
49.570         0
49.580         0
49.590        13
49.600        20
49.610         7
49.620        20
49.630        13
49.640        20
49.650        33
49.660        20
49.670        13
49.680         7
49.690        13
49.700        13
49.710        33
49.720         0
49.730        13
49.740        27
49.750        27
49.760        13
49.770         0
49.780         0
49.790        27
49.800        20
49.810         7
49.820        33
49.830        13
49.840        20
49.850        20
49.860         7
49.870        33
49.880         7
49.890        27
49.900         7
49.910        13
49.920        13
49.930        27
49.940        20
49.950        13
49.960        20
49.970         7
49.980         7
49.990        13
50.000        33
50.010         0
50.020         7
50.030        13
50.040         7
50.050         7
50.060        20
50.070        27
50.080        20
50.090        40
50.100         7
50.110         7
50.120        27
50.130        47
50.140         7
50.150        40
50.160        33
50.170        13
50.180         0
50.190        13
50.200         7
50.210         0
50.220        13
50.230         7
50.240        33
50.250        13
50.260         0
50.270        27
50.280        33
50.290        33
50.300         7
50.310        20
50.320        20
50.330        13
50.340         0
50.350        20
50.360         7
50.370        13
50.380        33
50.390        47
50.400        33
50.410         7
50.420        27
50.430        33
50.440        33
50.450        27
50.460        13
50.470         7
50.480        13
50.490        20
50.500        40
50.510        33
50.520        13
50.530        13
50.540        20
50.550        13
50.560         0
50.570        20
50.580        20
50.590         0
50.600         0
50.610        33
50.620        20
50.630        13
50.640        27
50.650        20
50.660         0
50.670        27
50.680         7
50.690        20
50.700        13
50.710        13
50.720        40
50.730         0
50.740        20
50.750        27
50.760        20
50.770        27
50.780         0
50.790        40
50.800         7
50.810        47
50.820        27
50.830        47
50.840        20
50.850         7
50.860        20
50.870         0
50.880         7
50.890         7
50.900        13
50.910        33
50.920         0
50.930        47
50.940        27
50.950        13
50.960        13
50.970        40
50.980         0
50.990        27
51.000        33
51.010         7
51.020        13
51.030        13
51.040         7
51.050         7
51.060        27
51.070         7
51.080        20
51.090        13
51.100        13
51.110        13
51.120        27
51.130         7
51.140        20
51.150        33
51.160         0
51.170        13
51.180        20
51.190        40
51.200        13
51.210        27
51.220        20
51.230        47
51.240        27
51.250        13
51.260        13
51.270        20
51.280        13
51.290        20
51.300        27
51.310        33
51.320        13
51.330        33
51.340        20
51.350        20
51.360         7
51.370         7
51.380        13
51.390        27
51.400        27
51.410        13
51.420        20
51.430        20
51.440        20
51.450        20
51.460        47
51.470        13
51.480        27
51.490        20
51.500         7
51.510        20
51.520        27
51.530        13
51.540         7
51.550        20
51.560        20
51.570        33
51.580        13
51.590        13
51.600        20
51.610        20
51.620        13
51.630        47
51.640         7
51.650         7
51.660        20
51.670        20
51.680        13
51.690        20
51.700        20
51.710        27
51.720        33
51.730        20
51.740        13
51.750         7
51.760        20
51.770        27
51.780        33
51.790        13
51.800        13
51.810         7
51.820        33
51.830        27
51.840        27
51.850        33
51.860        33
51.870        20
51.880        27
51.890        13
51.900        27
51.910        20
51.920        40
51.930        33
51.940        33
51.950        33
51.960        67
51.970        27
51.980        33
51.990        53
52.000        73
52.010        53
52.020        40
52.030        73
52.040        80
52.050        67
52.060        73
52.070        93
52.080        60
52.090        73
52.100        60
52.110        33
52.120        67
52.130       113
52.140        53
52.150        40
52.160        40
52.170        40
52.180        47
52.190        33
52.200        40
52.210        60
52.220        33
52.230        53
52.240        33
52.250        33
52.260        40
52.270        40
52.280        33
52.290        27
52.300        67
52.310        33
52.320        27
52.330        33
52.340        40
52.350        20
52.360        20
52.370        20
52.380        13
52.390        40
52.400        53
52.410        13
52.420        27
52.430        27
52.440        33
52.450        20
52.460        13
52.470        47
52.480        20
52.490        20
52.500        27
52.510        20
52.520        20
52.530        53
52.540        60
52.550        33
52.560        47
52.570        60
52.580        40
52.590        33
52.600        40
52.610        53
52.620        40
52.630        53
52.640        27
52.650        73
52.660        60
52.670        53
52.680        40
52.690        27
52.700        47
52.710        60
52.720        67
52.730        53
52.740        47
52.750        73
52.760        73
52.770        40
52.780        53
52.790        60
52.800        27
52.810        47
52.820        13
52.830        27
52.840        13
52.850         7
52.860        27
52.870        13
52.880        33
52.890        13
52.900        27
52.910        40
52.920        20
52.930        13
52.940        20
52.950        33
52.960        20
52.970        20
52.980         7
52.990        20
53.000        20
53.010        27
53.020        40
53.030        13
53.040         7
53.050        20
53.060        47
53.070        40
53.080        13
53.090        27
53.100         7
53.110        40
53.120        27
53.130        27
53.140        33
53.150        40
53.160        53
53.170        13
53.180        53
53.190        13
53.200        27
53.210        20
53.220        27
53.230        20
53.240        27
53.250        20
53.260         7
53.270        13
53.280        27
53.290        20
53.300        20
53.310        13
53.320        40
53.330        33
53.340        20
53.350        20
53.360        27
53.370        20
53.380        20
53.390        20
53.400        27
53.410        33
53.420        33
53.430        20
53.440        33
53.450         7
53.460        20
53.470         0
53.480        13
53.490        27
53.500        33
53.510        47
53.520         0
53.530        13
53.540        33
53.550        13
53.560         0
53.570        40
53.580         7
53.590        20
53.600        13
53.610        13
53.620        20
53.630        33
53.640        20
53.650         7
53.660         7
53.670        27
53.680        20
53.690        27
53.700        27
53.710        20
53.720        20
53.730        47
53.740        40
53.750        47
53.760         7
53.770        13
53.780        47
53.790        13
53.800         7
53.810        27
53.820        40
53.830         7
53.840        20
53.850         7
53.860        40
53.870        13
53.880        20
53.890        20
53.900        27
53.910        40
53.920        33
53.930        20
53.940         7
53.950         7
53.960         0
53.970        20
53.980        13
53.990        40
54.000        27
54.010        27
54.020        27
54.030         0
54.040        13
54.050        33
54.060         7
54.070        33
54.080        20
54.090        53
54.100        33
54.110        27
54.120        27
54.130         0
54.140        27
54.150        20
54.160        27
54.170        20
54.180        13
54.190        20
54.200        20
54.210        27
54.220        13
54.230        13
54.240         7
54.250        13
54.260        20
54.270        13
54.280        20
54.290        40
54.300        27
54.310        40
54.320        27
54.330         0
54.340        13
54.350        20
54.360        33
54.370         7
54.380        27
54.390        27
54.400         7
54.410        13
54.420        13
54.430        27
54.440        20
54.450        13
54.460        27
54.470        40
54.480        20
54.490         0
54.500        13
54.510        27
54.520        20
54.530         7
54.540        27
54.550         7
54.560        33
54.570        20
54.580        20
54.590        20
54.600        13
54.610        13
54.620         7
54.630         7
54.640        13
54.650        13
54.660        20
54.670         7
54.680         7
54.690        20
54.700         0
54.710        13
54.720         7
54.730        20
54.740         0
54.750        13
54.760         7
54.770        20
54.780         7
54.790        20
54.800        20
54.810        27
54.820        20
54.830        20
54.840         7
54.850        27
54.860        13
54.870        13
54.880        20
54.890        13
54.900        13
54.910         7
54.920        20
54.930        40
54.940         0
54.950         7
54.960        20
54.970        27
54.980        20
54.990        47
55.000        27
55.010         7
55.020         7
55.030        13
55.040         7
55.050        20
55.060        27
55.070        33
55.080        27
55.090        20
55.100        13
55.110        27
55.120        13
55.130        27
55.140         7
55.150        13
55.160        20
55.170        20
55.180        40
55.190         7
55.200        27
55.210        20
55.220        27
55.230        40
55.240        13
55.250         7
55.260        20
55.270        47
55.280        20
55.290         7
55.300        33
55.310        13
55.320        20
55.330        13
55.340        27
55.350        20
55.360        20
55.370        13
55.380        13
55.390        13
55.400        13
55.410        40
55.420        33
55.430         7
55.440        27
55.450         7
55.460        33
55.470         7
55.480         7
55.490         7
55.500        20
55.510        20
55.520         0
55.530        13
55.540        33
55.550         0
55.560        13
55.570        40
55.580        20
55.590        27
55.600        33
55.610        13
55.620        40
55.630        27
55.640        33
55.650         7
55.660        13
55.670         0
55.680        13
55.690        20
55.700        13
55.710        20
55.720        13
55.730        13
55.740        13
55.750        27
55.760         0
55.770        13
55.780        20
55.790        27
55.800        20
55.810        33
55.820         7
55.830        27
55.840        33
55.850        13
55.860        27
55.870         7
55.880         7
55.890         7
55.900        20
55.910        13
55.920        47
55.930        20
55.940        20
55.950         7
55.960         0
55.970        13
55.980        13
55.990         0
56.000        13
56.010        13
56.020        20
56.030        13
56.040        20
56.050        20
56.060        13
56.070        20
56.080        20
56.090        20
56.100        13
56.110        13
56.120         0
56.130        27
56.140        13
56.150        27
56.160        13
56.170        53
56.180         7
56.190         0
56.200        40
56.210        20
56.220        20
56.230        20
56.240        13
56.250        20
56.260        20
56.270         0
56.280        20
56.290        13
56.300        33
56.310        13
56.320        13
56.330         7
56.340        27
56.350        33
56.360         0
56.370        33
56.380        33
56.390        33
56.400        27
56.410         0
56.420         7
56.430         0
56.440        13
56.450        33
56.460         0
56.470         7
56.480        33
56.490        20
56.500        13
56.510        60
56.520        27
56.530        13
56.540        20
56.550         7
56.560        33
56.570        33
56.580        13
56.590        20
56.600         7
56.610        20
56.620        13
56.630        27
56.640         7
56.650        13
56.660        40
56.670         7
56.680         7
56.690         7
56.700        13
56.710        27
56.720        20
56.730         7
56.740         0
56.750        13
56.760         7
56.770        13
56.780         7
56.790        13
56.800        20
56.810        40
56.820        47
56.830         7
56.840         0
56.850        13
56.860        13
56.870        13
56.880         7
56.890        13
56.900         7
56.910         7
56.920        20
56.930        20
56.940        13
56.950        47
56.960         7
56.970         0
56.980        13
56.990        33
57.000        27
57.010        13
57.020        33
57.030        27
57.040        20
57.050         7
57.060         7
57.070         0
57.080         0
57.090        13
57.100        27
57.110        27
57.120        20
57.130        20
57.140        13
57.150         7
57.160         7
57.170         7
57.180         7
57.190        20
57.200        47
57.210        20
57.220        20
57.230        20
57.240        20
57.250        20
57.260        27
57.270         7
57.280        40
57.290         7
57.300        13
57.310         0
57.320        20
57.330        20
57.340        13
57.350        20
57.360        27
57.370        20
57.380        27
57.390        27
57.400        33
57.410        33
57.420        20
57.430        33
57.440        27
57.450        20
57.460        40
57.470        27
57.480        13
57.490        13
57.500        40
57.510        20
57.520        13
57.530        13
57.540        47
57.550        13
57.560        33
57.570        40
57.580        27
57.590        20
57.600        40
57.610        13
57.620         7
57.630        13
57.640         7
57.650         0
57.660        40
57.670        20
57.680         7
57.690         7
57.700        33
57.710        33
57.720        33
57.730        27
57.740         7
57.750        20
57.760        40
57.770        13
57.780         7
57.790         7
57.800         7
57.810        33
57.820         7
57.830        13
57.840         7
57.850        27
57.860        53
57.870        13
57.880         7
57.890        13
57.900        20
57.910         0
57.920        27
57.930        27
57.940        20
57.950        20
57.960         0
57.970        27
57.980         7
57.990        13
58.000        13
58.010         0
58.020        27
58.030         7
58.040        33
58.050         7
58.060         7
58.070         0
58.080         7
58.090         0
58.100        13
58.110         0
58.120        13
58.130        13
58.140        13
58.150        20
58.160        20
58.170         0
58.180         7
58.190         7
58.200        13
58.210         7
58.220        40
58.230         0
58.240        33
58.250        20
58.260        13
58.270         0
58.280        20
58.290         7
58.300         7
58.310        20
58.320        13
58.330        13
58.340         0
58.350        27
58.360        13
58.370        13
58.380         7
58.390         7
58.400         7
58.410        13
58.420        20
58.430        13
58.440        20
58.450        33
58.460        13
58.470        13
58.480        20
58.490        27
58.500         7
58.510        27
58.520        13
58.530        20
58.540        13
58.550        40
58.560         7
58.570        47
58.580        20
58.590         0
58.600        13
58.610         7
58.620        13
58.630        13
58.640        20
58.650         0
58.660        13
58.670        13
58.680         7
58.690         0
58.700        33
58.710         7
58.720        13
58.730        27
58.740         0
58.750        13
58.760         7
58.770        27
58.780        13
58.790        27
58.800         7
58.810         7
58.820         7
58.830        20
58.840        13
58.850        13
58.860        20
58.870         7
58.880        13
58.890         7
58.900        20
58.910         7
58.920        20
58.930         7
58.940         7
58.950        13
58.960        27
58.970         7
58.980         7
58.990        20
59.000         7
59.010         7
59.020         0
59.030        27
59.040        13
59.050        27
59.060        27
59.070        20
59.080        20
59.090         0
59.100        20
59.110        27
59.120        40
59.130         0
59.140        13
59.150         7
59.160        20
59.170         0
59.180        20
59.190         7
59.200         7
59.210        27
59.220        13
59.230        27
59.240        13
59.250         7
59.260         7
59.270         7
59.280        13
59.290         7
59.300        13
59.310         7
59.320         0
59.330         7
59.340         7
59.350        20
59.360        13
59.370        13
59.380        27
59.390        20
59.400        33
59.410        20
59.420        13
59.430         0
59.440        20
59.450        13
59.460         7
59.470        20
59.480        27
59.490        13
59.500         0
59.510        13
59.520        20
59.530         7
59.540         7
59.550         0
59.560        27
59.570        20
59.580        33
59.590        40
59.600         0
59.610         7
59.620         7
59.630        20
59.640         0
59.650        27
59.660        53
59.670        27
59.680         7
59.690         7
59.700        27
59.710         7
59.720        13
59.730        27
59.740        13
59.750        13
59.760        13
59.770         7
59.780        13
59.790         7
59.800        13
59.810         0
59.820        33
59.830         0
59.840         0
59.850         0
59.860         7
59.870         0
59.880        20
59.890        20
59.900         7
59.910        13
59.920        33
59.930        27
59.940        27
59.950        13
59.960         7
59.970        20
59.980        33
59.990        13
60.000        13
