20.000        93
20.010        73
20.020       140
20.030        93
20.040       147
20.050       127
20.060       113
20.070        73
20.080       147
20.090        67
20.100        60
20.110        80
20.120       127
20.130       133
20.140        73
20.150        93
20.160       127
20.170        93
20.180       147
20.190       100
20.200        60
20.210       147
20.220        53
20.230        93
20.240       113
20.250        93
20.260       153
20.270       107
20.280       100
20.290        73
20.300        87
20.310       113
20.320       107
20.330        60
20.340       100
20.350       133
20.360       127
20.370       100
20.380       107
20.390        73
20.400       107
20.410        93
20.420       100
20.430       113
20.440        80
20.450        93
20.460        80
20.470       113
20.480        93
20.490       100
20.500        67
20.510        67
20.520       113
20.530       120
20.540       120
20.550        93
20.560       120
20.570        67
20.580        53
20.590       147
20.600       113
20.610       120
20.620        93
20.630       160
20.640       133
20.650        93
20.660        73
20.670        80
20.680       120
20.690        60
20.700       113
20.710        80
20.720        80
20.730       133
20.740       113
20.750       160
20.760       167
20.770       127
20.780       107
20.790       147
20.800       147
20.810       113
20.820        93
20.830       127
20.840       153
20.850       133
20.860       100
20.870       160
20.880       127
20.890       113
20.900       147
20.910        93
20.920       140
20.930       107
20.940       147
20.950       107
20.960        93
20.970        87
20.980       140
20.990       127
21.000       147
21.010        47
21.020       140
21.030        93
21.040       147
21.050        60
21.060       193
21.070        93
21.080       140
21.090       133
21.100        67
21.110        87
21.120        73
21.130       160
21.140       127
21.150       140
21.160       147
21.170       100
21.180       133
21.190       120
21.200        87
21.210        73
21.220       107
21.230        93
21.240       113
21.250       107
21.260       100
21.270        87
21.280       100
21.290       107
21.300       127
21.310       140
21.320        67
21.330       133
21.340       120
21.350       113
21.360       167
21.370       133
21.380       147
21.390        80
21.400       147
21.410       100
21.420       120
21.430       153
21.440       113
21.450       100
21.460       153
21.470       113
21.480       160
21.490       100
21.500       107
21.510       113
21.520       160
21.530       133
21.540       167
21.550       153
21.560       133
21.570       107
21.580       160
21.590       107
21.600       140
21.610       127
21.620        80
21.630       153
21.640       160
21.650       147
21.660       180
21.670       160
21.680       140
21.690       120
21.700       140
21.710       127
21.720       207
21.730       133
21.740       220
21.750       153
21.760       120
21.770       120
21.780       147
21.790       160
21.800       107
21.810       173
21.820       153
21.830       153
21.840       160
21.850       113
21.860       107
21.870       173
21.880       187
21.890        87
21.900       173
21.910       207
21.920       113
21.930       193
21.940       213
21.950       133
21.960       173
21.970       167
21.980       147
21.990       140
22.000       127
22.010       180
22.020       187
22.030       173
22.040       113
22.050       173
22.060       207
22.070       187
22.080       173
22.090       193
22.100       153
22.110       180
22.120       207
22.130       173
22.140       200
22.150       200
22.160       113
22.170       160
22.180       233
22.190       193
22.200       180
22.210       180
22.220       207
22.230       160
22.240       133
22.250       253
22.260       167
22.270       260
22.280       220
22.290       200
22.300       233
22.310       267
22.320        93
22.330       213
22.340       160
22.350       173
22.360       133
22.370       260
22.380       220
22.390       207
22.400       273
22.410       273
22.420       213
22.430       213
22.440       173
22.450       240
22.460       227
22.470       180
22.480       233
22.490       193
22.500       133
22.510       213
22.520       213
22.530       213
22.540       247
22.550       180
22.560       260
22.570       220
22.580       187
22.590       180
22.600       253
22.610       293
22.620       280
22.630       220
22.640       200
22.650       267
22.660       200
22.670       247
22.680       240
22.690       213
22.700       193
22.710       267
22.720       313
22.730       207
22.740       207
22.750       200
22.760       240
22.770       260
22.780       207
22.790       213
22.800       193
22.810       213
22.820       280
22.830       260
22.840       260
22.850       220
22.860       227
22.870       287
22.880       173
22.890       260
22.900       267
22.910       300
22.920       433
22.930       307
22.940       307
22.950       353
22.960       313
22.970       333
22.980       353
22.990       353
23.000       293
23.010       267
23.020       460
23.030       267
23.040       333
23.050       407
23.060       540
23.070       626
23.080       873
23.090      1153
23.100      1319
23.110      1513
23.120      1773
23.130      1759
23.140      1639
23.150      1226
23.160       886
23.170       620
23.180       393
23.190       433
23.200       413
23.210       300
23.220       293
23.230       407
23.240       273
23.250       307
23.260       367
23.270       307
23.280       207
23.290       287
23.300       273
23.310       373
23.320       313
23.330       247
23.340       247
23.350       247
23.360       260
23.370       260
23.380       293
23.390       353
23.400       240
23.410       333
23.420       280
23.430       287
23.440       280
23.450       273
23.460       280
23.470       353
23.480       193
23.490       380
23.500       433
23.510       353
23.520       307
23.530       273
23.540       213
23.550       413
23.560       353
23.570       327
23.580       360
23.590       253
23.600       300
23.610       260
23.620       320
23.630       327
23.640       300
23.650       220
23.660       287
23.670       320
23.680       360
23.690       367
23.700       307
23.710       287
23.720       307
23.730       267
23.740       293
23.750       287
23.760       260
23.770       340
23.780       273
23.790       320
23.800       293
23.810       347
23.820       280
23.830       267
23.840       287
23.850       253
23.860       333
23.870       353
23.880       287
23.890       267
23.900       287
23.910       353
23.920       220
23.930       327
23.940       347
23.950       247
23.960       460
23.970       280
23.980       287
23.990       360
24.000       360
24.010       227
24.020       466
24.030       340
24.040       287
24.050       307
24.060       260
24.070       253
24.080       267
24.090       300
24.100       280
24.110       280
24.120       280
24.130       293
24.140       300
24.150       267
24.160       300
24.170       307
24.180       267
24.190       340
24.200       360
24.210       333
24.220       360
24.230       260
24.240       333
24.250       333
24.260       333
24.270       327
24.280       353
24.290       267
24.300       280
24.310       293
24.320       213
24.330       287
24.340       307
24.350       300
24.360       280
24.370       333
24.380       240
24.390       227
24.400       360
24.410       393
24.420       413
24.430       253
24.440       260
24.450       247
24.460       247
24.470       287
24.480       300
24.490       426
24.500       273
24.510       313
24.520       407
24.530       320
24.540       313
24.550       287
24.560       307
24.570       393
24.580       327
24.590       380
24.600       307
24.610       340
24.620       340
24.630       373
24.640       400
24.650       347
24.660       327
24.670       380
24.680       407
24.690       400
24.700       466
24.710       480
24.720       546
24.730       640
24.740       833
24.750       853
24.760       933
24.770       813
24.780      1040
24.790      1033
24.800      1073
24.810      1126
24.820       966
24.830       960
24.840       986
24.850      1020
24.860       966
24.870       953
24.880       873
24.890      1026
24.900      1000
24.910      1020
24.920      1033
24.930      1026
24.940       993
24.950       980
24.960       933
24.970      1066
24.980      1100
24.990      1100
25.000      1020
25.010       960
25.020      1066
25.030       973
25.040       886
25.050      1106
25.060      1200
25.070       926
25.080       973
25.090      1066
25.100      1026
25.110      1133
25.120      1100
25.130       913
25.140       960
25.150       866
25.160      1053
25.170      1046
25.180       886
25.190      1020
25.200      1000
25.210      1226
25.220      1173
25.230      1326
25.240      1266
25.250      1226
25.260      1113
25.270      1146
25.280      1240
25.290      1379
25.300      1459
25.310      1246
25.320      1479
25.330      1719
25.340      1686
25.350      2326
25.360      2646
25.370      2979
25.380      4238
25.390      4978
25.400      5365
25.410      6857
25.420      7884
25.430      9183
25.440     10183
25.450     10922
25.460     11915
25.470     12828
25.480     13455
25.490     14761
25.500     15460
25.510     16420
25.520     17326
25.530     18999
25.540     22378
25.550     27862
25.560     36745
25.570     58310
25.580     91144
25.590    127529
25.600    160862
25.610    182147
25.620    196648
25.630    204618
25.640    200860
25.650    175843
25.660    142350
25.670    122944
25.680    119139
25.690    121331
25.700    117593
25.710     97088
25.720     63901
25.730     33087
25.740     15867
25.750      9736
25.760      6824
25.770      5844
25.780      4765
25.790      4325
25.800      3758
25.810      3339
25.820      2925
25.830      2719
25.840      2432
25.850      2459
25.860      1973
25.870      1919
25.880      1993
25.890      2059
25.900      1886
25.910      1673
25.920      1766
25.930      1513
25.940      1359
25.950      1426
25.960      1493
25.970      1499
25.980      1459
25.990      1399
26.000      1393
26.010      1226
26.020      1259
26.030      1279
26.040      1259
26.050      1213
26.060      1126
26.070      1200
26.080      1133
26.090      1173
26.100      1200
26.110      1279
26.120      1140
26.130      1113
26.140      1266
26.150      1140
26.160      1120
26.170      1126
26.180      1066
26.190      1013
26.200      1086
26.210      1013
26.220       973
26.230       953
26.240      1000
26.250       933
26.260       953
26.270      1113
26.280       820
26.290       993
26.300      1006
26.310      1040
26.320      1013
26.330      1086
26.340      1013
26.350      1020
26.360       900
26.370       980
26.380      1006
26.390      1020
26.400      1020
26.410       973
26.420       953
26.430       866
26.440      1046
26.450       826
26.460       826
26.470       900
26.480       933
26.490       993
26.500       853
26.510       840
26.520       840
26.530       846
26.540       893
26.550       853
26.560       800
26.570       753
26.580       846
26.590       813
26.600       840
26.610       886
26.620       866
26.630       826
26.640       840
26.650       846
26.660       866
26.670       840
26.680       813
26.690       820
26.700       826
26.710       686
26.720       893
26.730       893
26.740       873
26.750       760
26.760       706
26.770       720
26.780       833
26.790       940
26.800       740
26.810       733
26.820       740
26.830       820
26.840       860
26.850       793
26.860       866
26.870       620
26.880       906
26.890       853
26.900       800
26.910       806
26.920       700
26.930       833
26.940       833
26.950       766
26.960       693
26.970       746
26.980       726
26.990       806
27.000       613
27.010       820
27.020       840
27.030       740
27.040       800
27.050       840
27.060       760
27.070       826
27.080       660
27.090       826
27.100       833
27.110       706
27.120       720
27.130       726
27.140       660
27.150       693
27.160       726
27.170       713
27.180       773
27.190       726
27.200       866
27.210       820
27.220       640
27.230       686
27.240       680
27.250       733
27.260       860
27.270       853
27.280       666
27.290       740
27.300       673
27.310       680
27.320       626
27.330       800
27.340       646
27.350       640
27.360       800
27.370       760
27.380       706
27.390       706
27.400       806
27.410       713
27.420       646
27.430       653
27.440       700
27.450       626
27.460       706
27.470       806
27.480       633
27.490       713
27.500       620
27.510       633
27.520       760
27.530       780
27.540       800
27.550       600
27.560       660
27.570       620
27.580       726
27.590       713
27.600       633
27.610       793
27.620       666
27.630       800
27.640       826
27.650       753
27.660       746
27.670       700
27.680       706
27.690       640
27.700       806
27.710       793
27.720       673
27.730       693
27.740       626
27.750       586
27.760       713
27.770       700
27.780       660
27.790       826
27.800       600
27.810       773
27.820       786
27.830       733
27.840       593
27.850       653
27.860       646
27.870       666
27.880       806
27.890       773
27.900       560
27.910       793
27.920       566
27.930       573
27.940       626
27.950       766
27.960       620
27.970       753
27.980       666
27.990       666
28.000       593
28.010       660
28.020       626
28.030       626
28.040       706
28.050       680
28.060       666
28.070       540
28.080       680
28.090       740
28.100       553
28.110       706
28.120       733
28.130       760
28.140       633
28.150       640
28.160       706
28.170       713
28.180       713
28.190       593
28.200       580
28.210       733
28.220       640
28.230       640
28.240       720
28.250       746
28.260       766
28.270       660
28.280       700
28.290       553
28.300       720
28.310       646
28.320       733
28.330       586
28.340       586
28.350       746
28.360       600
28.370       646
28.380       653
28.390       693
28.400       466
28.410       573
28.420       593
28.430       593
28.440       613
28.450       640
28.460       666
28.470       706
28.480       520
28.490       526
28.500       706
28.510       606
28.520       633
28.530       666
28.540       633
28.550       566
28.560       646
28.570       600
28.580       580
28.590       620
28.600       540
28.610       546
28.620       533
28.630       733
28.640       600
28.650       760
28.660       633
28.670       660
28.680       513
28.690       573
28.700       613
28.710       573
28.720       680
28.730       753
28.740       693
28.750       620
28.760       686
28.770       660
28.780       540
28.790       586
28.800       700
28.810       546
28.820       726
28.830       540
28.840       600
28.850       553
28.860       606
28.870       566
28.880       646
28.890       606
28.900       586
28.910       666
28.920       693
28.930       633
28.940       720
28.950       573
28.960       613
28.970       566
28.980       680
28.990       700
29.000       573
29.010       633
29.020       540
29.030       673
29.040       660
29.050       546
29.060       553
29.070       586
29.080       593
29.090       633
29.100       540
29.110       606
29.120       613
29.130       586
29.140       500
29.150       600
29.160       680
29.170       613
29.180       600
29.190       613
29.200       680
29.210       493
29.220       606
29.230       573
29.240       540
29.250       426
29.260       573
29.270       653
29.280       580
29.290       693
29.300       620
29.310       506
29.320       600
29.330       513
29.340       606
29.350       480
29.360       666
29.370       620
29.380       533
29.390       486
29.400       593
29.410       513
29.420       526
29.430       500
29.440       606
29.450       573
29.460       600
29.470       713
29.480       540
29.490       460
29.500       460
29.510       553
29.520       666
29.530       520
29.540       560
29.550       526
29.560       700
29.570       586
29.580       600
29.590       593
29.600       753
29.610       546
29.620       693
29.630       680
29.640       720
29.650       740
29.660       666
29.670       566
29.680       700
29.690       686
29.700       813
29.710       646
29.720       646
29.730       600
29.740       666
29.750       633
29.760       653
29.770       560
29.780       660
29.790       506
29.800       606
29.810       533
29.820       593
29.830       613
29.840       540
29.850       673
29.860       533
29.870       466
29.880       466
29.890       540
29.900       640
29.910       466
29.920       473
29.930       566
29.940       493
29.950       720
29.960       466
29.970       486
29.980       493
29.990       500
30.000       446
30.010       533
30.020       466
30.030       480
30.040       553
30.050       486
30.060       486
30.070       440
30.080       580
30.090       387
30.100       440
30.110       446
30.120       513
30.130       500
30.140       433
30.150       486
30.160       560
30.170       480
30.180       666
30.190       493
30.200       486
30.210       533
30.220       473
30.230       540
30.240       486
30.250       446
30.260       453
30.270       466
30.280       466
30.290       586
30.300       540
30.310       413
30.320       426
30.330       506
30.340       440
30.350       620
30.360       440
30.370       493
30.380       420
30.390       553
30.400       420
30.410       480
30.420       513
30.430       360
30.440       473
30.450       500
30.460       520
30.470       500
30.480       566
30.490       473
30.500       446
30.510       473
30.520       473
30.530       500
30.540       513
30.550       526
30.560       480
30.570       506
30.580       520
30.590       546
30.600       413
30.610       340
30.620       540
30.630       440
30.640       453
30.650       486
30.660       520
30.670       480
30.680       426
30.690       307
30.700       433
30.710       373
30.720       460
30.730       340
30.740       493
30.750       480
30.760       320
30.770       540
30.780       413
30.790       380
30.800       493
30.810       546
30.820       440
30.830       493
30.840       473
30.850       493
30.860       367
30.870       446
30.880       500
30.890       480
30.900       413
30.910       453
30.920       407
30.930       353
30.940       387
30.950       347
30.960       413
30.970       466
30.980       333
30.990       506
31.000       420
31.010       407
31.020       466
31.030       353
31.040       486
31.050       360
31.060       453
31.070       480
31.080       393
31.090       407
31.100       440
31.110       340
31.120       387
31.130       380
31.140       413
31.150       353
31.160       407
31.170       393
31.180       420
31.190       353
31.200       367
31.210       433
31.220       453
31.230       380
31.240       373
31.250       373
31.260       347
31.270       300
31.280       307
31.290       387
31.300       506
31.310       420
31.320       333
31.330       400
31.340       433
31.350       413
31.360       380
31.370       367
31.380       526
31.390       247
31.400       400
31.410       347
31.420       320
31.430       360
31.440       340
31.450       400
31.460       493
31.470       420
31.480       287
31.490       413
31.500       393
31.510       240
31.520       280
31.530       313
31.540       373
31.550       287
31.560       320
31.570       393
31.580       333
31.590       353
31.600       267
31.610       367
31.620       320
31.630       340
31.640       307
31.650       293
31.660       413
31.670       307
31.680       333
31.690       293
31.700       293
31.710       340
31.720       407
31.730       313
31.740       380
31.750       407
31.760       313
31.770       413
31.780       353
31.790       347
31.800       293
31.810       300
31.820       393
31.830       340
31.840       387
31.850       347
31.860       267
31.870       307
31.880       353
31.890       327
31.900       353
31.910       380
31.920       400
31.930       353
31.940       313
31.950       347
31.960       340
31.970       347
31.980       387
31.990       340
32.000       420
32.010       327
32.020       327
32.030       287
32.040       360
32.050       313
32.060       327
32.070       333
32.080       313
32.090       327
32.100       300
32.110       413
32.120       367
32.130       293
32.140       407
32.150       360
32.160       480
32.170       420
32.180       413
32.190       353
32.200       420
32.210       367
32.220       413
32.230       347
32.240       400
32.250       407
32.260       340
32.270       426
32.280       400
32.290       320
32.300       340
32.310       327
32.320       393
32.330       307
32.340       393
32.350       387
32.360       373
32.370       307
32.380       420
32.390       347
32.400       300
32.410       360
32.420       280
32.430       320
32.440       287
32.450       333
32.460       287
32.470       407
32.480       367
32.490       340
32.500       267
32.510       293
32.520       207
32.530       267
32.540       247
32.550       280
32.560       307
32.570       320
32.580       327
32.590       320
32.600       353
32.610       327
32.620       233
32.630       287
32.640       267
32.650       267
32.660       360
32.670       293
32.680       300
32.690       307
32.700       287
32.710       227
32.720       247
32.730       253
32.740       267
32.750       267
32.760       293
32.770       280
32.780       313
32.790       360
32.800       273
32.810       280
32.820       300
32.830       313
32.840       320
32.850       220
32.860       240
32.870       307
32.880       220
32.890       327
32.900       247
32.910       267
32.920       227
32.930       220
32.940       213
32.950       273
32.960       320
32.970       333
32.980       280
32.990       320
33.000       293
33.010       220
33.020       300
33.030       247
33.040       287
33.050       273
33.060       367
33.070       333
33.080       213
33.090       227
33.100       307
33.110       267
33.120       273
33.130       240
33.140       220
33.150       187
33.160       233
33.170       280
33.180       267
33.190       160
33.200       313
33.210       300
33.220       247
33.230       260
33.240       267
33.250       260
33.260       287
33.270       240
33.280       280
33.290       240
33.300       233
33.310       320
33.320       213
33.330       253
33.340       227
33.350       227
33.360       293
33.370       367
33.380       247
33.390       353
33.400       260
33.410       280
33.420       260
33.430       173
33.440       200
33.450       180
33.460       260
33.470       247
33.480       273
33.490       247
33.500       300
33.510       233
33.520       240
33.530       260
33.540       287
33.550       340
33.560       253
33.570       227
33.580       240
33.590       273
33.600       207
33.610       267
33.620       340
33.630       260
33.640       213
33.650       240
33.660       187
33.670       180
33.680       267
33.690       247
33.700       193
33.710       213
33.720       287
33.730       240
33.740       247
33.750       213
33.760       273
33.770       187
33.780       247
33.790       220
33.800       280
33.810       267
33.820       273
33.830       200
33.840       207
33.850       320
33.860       180
33.870       260
33.880       207
33.890       247
33.900       220
33.910       220
33.920       227
33.930       200
33.940       253
33.950       160
33.960       167
33.970       240
33.980       200
33.990       167
34.000       247
34.010       213
34.020       193
34.030       227
34.040       207
34.050       247
34.060       187
34.070       180
34.080       233
34.090       240
34.100       193
34.110       247
34.120       273
34.130       173
34.140       240
34.150       187
34.160       173
34.170       160
34.180       160
34.190       213
34.200       207
34.210       247
34.220       160
34.230       187
34.240       160
34.250       233
34.260       187
34.270       180
34.280       193
34.290       280
34.300       260
34.310       180
34.320       187
34.330       213
34.340       307
34.350       227
34.360       253
34.370       220
34.380       227
34.390       213
34.400       187
34.410       167
34.420       207
34.430       193
34.440       160
34.450       120
34.460       180
34.470       200
34.480       167
34.490       260
34.500       140
34.510       133
34.520       193
34.530       193
34.540       167
34.550       227
34.560       180
34.570       180
34.580        87
34.590       240
34.600       180
34.610       233
34.620       307
34.630       187
34.640       167
34.650       187
34.660       173
34.670       180
34.680       207
34.690       200
34.700       200
34.710       167
34.720       200
34.730       153
34.740       200
34.750       193
34.760       213
34.770       140
34.780       227
34.790       233
34.800       173
34.810       287
34.820       213
34.830       193
34.840       240
34.850       220
34.860       180
34.870       193
34.880       160
34.890       193
34.900       220
34.910       193
34.920       233
34.930       213
34.940       207
34.950       173
34.960       140
34.970       187
34.980       227
34.990       140
35.000       160
35.010       193
35.020       147
35.030       153
35.040       140
35.050       160
35.060       187
35.070       200
35.080       140
35.090       220
35.100       227
35.110       140
35.120       200
35.130       160
35.140       100
35.150       160
35.160       200
35.170       247
35.180       200
35.190       167
35.200       227
35.210       167
35.220       180
35.230       167
35.240       153
35.250       173
35.260       127
35.270       240
35.280       133
35.290       200
35.300       200
35.310       173
35.320       267
35.330       193
35.340       153
35.350       140
35.360       160
35.370       180
35.380       147
35.390       153
35.400       207
35.410       133
35.420       180
35.430       173
35.440       140
35.450       207
35.460       200
35.470       133
35.480       200
35.490       200
35.500       213
35.510       133
35.520       173
35.530       140
35.540       160
35.550       167
35.560       233
35.570       167
35.580       160
35.590       193
35.600       167
35.610        87
35.620       120
35.630       160
35.640       147
35.650       160
35.660       167
35.670       160
35.680       187
35.690       187
35.700        80
35.710       147
35.720       167
35.730       140
35.740       140
35.750       153
35.760       147
35.770       133
35.780       167
35.790       187
35.800       167
35.810       180
35.820       213
35.830       147
35.840       200
35.850       193
35.860       160
35.870       153
35.880        80
35.890       153
35.900       140
35.910       153
35.920       153
35.930       160
35.940       167
35.950        93
35.960       160
35.970       173
35.980       127
35.990       140
36.000       140
36.010       120
36.020       100
36.030       207
36.040       140
36.050       100
36.060        67
36.070       147
36.080       200
36.090       140
36.100       160
36.110       153
36.120       147
36.130       153
36.140       127
36.150       167
36.160       120
36.170       140
36.180       153
36.190       153
36.200       147
36.210       113
36.220       173
36.230        93
36.240       127
36.250       120
36.260       160
36.270       133
36.280       140
36.290       180
36.300       173
36.310       193
36.320       133
36.330        87
36.340       100
36.350       160
36.360       140
36.370       100
36.380       107
36.390       187
36.400       173
36.410       113
36.420       133
36.430        87
36.440       160
36.450       173
36.460       127
36.470       213
36.480       167
36.490        93
36.500       180
36.510       127
36.520       147
36.530       153
36.540       133
36.550       140
36.560       147
36.570       127
36.580       160
36.590        87
36.600       133
36.610       167
36.620       133
36.630        67
36.640       127
36.650       140
36.660       127
36.670        87
36.680       173
36.690       180
36.700       113
36.710       147
36.720       107
36.730       147
36.740       113
36.750       167
36.760        87
36.770       127
36.780       147
36.790       133
36.800       147
36.810       100
36.820       127
36.830       173
36.840       133
36.850       107
36.860        73
36.870       133
36.880       147
36.890       140
36.900       173
36.910       160
36.920        53
36.930        80
36.940        93
36.950       107
36.960       167
36.970       107
36.980       127
36.990       133
37.000       133
37.010       127
37.020       153
37.030        80
37.040       140
37.050        60
37.060       120
37.070        87
37.080       160
37.090       120
37.100       153
37.110       127
37.120        60
37.130        93
37.140       100
37.150       100
37.160       167
37.170       120
37.180       173
37.190       140
37.200        87
37.210       160
37.220        93
37.230       127
37.240       147
37.250       153
37.260       133
37.270       133
37.280       127
37.290        93
37.300       127
37.310        67
37.320       173
37.330        87
37.340        93
37.350        40
37.360        93
37.370       127
37.380       153
37.390       127
37.400       120
37.410       100
37.420       113
37.430       133
37.440       107
37.450       147
37.460        93
37.470       120
37.480       120
37.490       127
37.500       140
37.510       113
37.520       153
37.530       107
37.540       120
37.550       127
37.560       100
37.570       127
37.580       100
37.590        87
37.600       127
37.610        80
37.620       167
37.630       113
37.640       153
37.650       147
37.660        80
37.670       113
37.680        93
37.690       167
37.700       167
37.710        80
37.720        87
37.730        80
37.740        80
37.750       120
37.760       113
37.770        67
37.780       107
37.790       133
37.800       107
37.810        73
37.820       127
37.830       127
37.840       120
37.850        93
37.860        80
37.870        80
37.880        53
37.890       113
37.900       107
37.910        73
37.920        60
37.930        80
37.940       107
37.950        80
37.960        80
37.970       120
37.980       133
37.990       100
38.000        93
38.010       107
38.020       127
38.030       107
38.040       160
38.050        87
38.060        53
38.070        53
38.080       107
38.090       127
38.100        87
38.110       107
38.120        60
38.130        67
38.140       120
38.150        53
38.160       127
38.170        27
38.180        93
38.190        60
38.200       120
38.210       120
38.220        80
38.230        93
38.240       107
38.250        87
38.260       133
38.270        80
38.280        60
38.290        80
38.300        40
38.310        80
38.320        53
38.330       113
38.340        73
38.350        73
38.360       113
38.370        93
38.380       113
38.390       113
38.400       113
38.410       133
38.420       147
38.430       107
38.440        87
38.450       147
38.460       107
38.470        80
38.480        87
38.490        93
38.500       113
38.510        60
38.520       107
38.530        67
38.540       133
38.550        60
38.560        73
38.570        67
38.580        67
38.590       127
38.600       107
38.610        87
38.620        87
38.630       153
38.640       113
38.650        67
38.660       147
38.670       100
38.680        93
38.690        73
38.700        67
38.710        73
38.720        60
38.730       127
38.740       133
38.750       107
38.760        67
38.770        73
38.780        80
38.790       120
38.800       133
38.810        67
38.820        60
38.830       160
38.840        60
38.850       100
38.860        53
38.870        73
38.880       100
38.890       107
38.900        67
38.910        73
38.920        93
38.930       100
38.940        67
38.950        93
38.960        80
38.970        93
38.980        87
38.990        87
39.000        80
39.010        73
39.020        93
39.030        53
39.040       107
39.050        53
39.060       107
39.070       127
39.080        67
39.090        87
39.100        67
39.110        80
39.120       113
39.130       113
39.140        47
39.150       107
39.160        60
39.170        73
39.180        67
39.190        60
39.200        87
39.210       107
39.220        60
39.230        87
39.240        67
39.250        67
39.260        73
39.270        80
39.280       100
39.290        60
39.300        60
39.310        73
39.320        93
39.330       120
39.340       107
39.350        73
39.360        67
39.370        87
39.380        87
39.390       113
39.400        47
39.410       100
39.420        60
39.430        47
39.440        87
39.450        60
39.460       113
39.470        87
39.480        93
39.490        60
39.500        47
39.510        40
39.520        67
39.530        73
39.540        80
39.550        80
39.560       100
39.570        87
39.580        73
39.590        73
39.600        40
39.610        87
39.620        47
39.630       107
39.640        53
39.650       113
39.660        53
39.670       100
39.680        53
39.690        73
39.700        73
39.710        87
39.720        93
39.730        73
39.740        73
39.750        67
39.760        67
39.770        53
39.780        73
39.790        47
39.800        93
39.810       107
39.820        67
39.830        67
39.840        47
39.850       120
39.860       100
39.870        67
39.880        53
39.890        60
39.900        40
39.910        60
39.920        67
39.930        67
39.940        93
39.950        60
39.960        93
39.970       100
39.980        73
39.990        80
40.000        60
40.010        40
40.020        53
40.030       127
40.040        80
40.050        80
40.060        93
40.070        67
40.080        67
40.090        73
40.100        67
40.110        73
40.120        87
40.130        53
40.140        47
40.150       113
40.160        33
40.170        47
40.180       133
40.190       113
40.200       100
40.210        60
40.220        67
40.230        67
40.240        87
40.250        80
40.260        67
40.270        80
40.280        73
40.290        80
40.300        93
40.310        60
40.320        20
40.330        73
40.340        60
40.350        73
40.360        80
40.370       100
40.380        53
40.390        73
40.400        60
40.410       107
40.420        53
40.430        47
40.440        80
40.450        67
40.460        80
40.470        53
40.480        67
40.490        53
40.500        53
40.510        40
40.520        60
40.530        80
40.540        73
40.550        27
40.560        67
40.570        60
40.580        80
40.590        87
40.600        67
40.610        47
40.620       107
40.630        53
40.640        67
40.650        67
40.660       120
40.670        40
40.680        47
40.690        67
40.700        40
40.710        40
40.720        47
40.730        87
40.740        73
40.750        93
40.760        27
40.770        80
40.780        73
40.790        80
40.800       107
40.810        67
40.820        47
40.830        40
40.840        67
40.850        33
40.860       113
40.870        40
40.880       100
40.890       100
40.900        53
40.910        60
40.920        27
40.930        53
40.940       113
40.950        20
40.960        80
40.970        93
40.980        73
40.990        67
41.000        33
41.010        73
41.020        27
41.030        73
41.040        67
41.050        53
41.060        73
41.070        80
41.080        53
41.090        60
41.100        33
41.110        80
41.120        73
41.130        60
41.140        47
41.150        60
41.160        67
41.170        53
41.180        47
41.190        67
41.200        53
41.210        73
41.220        67
41.230       113
41.240        53
41.250        47
41.260        80
41.270        53
41.280        40
41.290        20
41.300        47
41.310        73
41.320        33
41.330        73
41.340        40
41.350        20
41.360        27
41.370        60
41.380        60
41.390        47
41.400        33
41.410        73
41.420        80
41.430        73
41.440        67
41.450        80
41.460        33
41.470        53
41.480        60
41.490        80
41.500        73
41.510        73
41.520        67
41.530        80
41.540        47
41.550        40
41.560        73
41.570        47
41.580        53
41.590        53
41.600        40
41.610        73
41.620        73
41.630        60
41.640        73
41.650        60
41.660        40
41.670        60
41.680        80
41.690        60
41.700        87
41.710        80
41.720        27
41.730        60
41.740        53
41.750        53
41.760        67
41.770        53
41.780        53
41.790        53
41.800        47
41.810        60
41.820        40
41.830        73
41.840        40
41.850        60
41.860        47
41.870        60
41.880        67
41.890        40
41.900        80
41.910        33
41.920        53
41.930        67
41.940        60
41.950        47
41.960        40
41.970        33
41.980        47
41.990        53
42.000        67
42.010        60
42.020        40
42.030        93
42.040        53
42.050        67
42.060        13
42.070        53
42.080        27
42.090        60
42.100        33
42.110        60
42.120        93
42.130        20
42.140        40
42.150        73
42.160        73
42.170        47
42.180        53
42.190        47
42.200        87
42.210        40
42.220        67
42.230        87
42.240        87
42.250        53
42.260        73
42.270        40
42.280        87
42.290        67
42.300        73
42.310        67
42.320        93
42.330        60
42.340        73
42.350        47
42.360       113
42.370        67
42.380        47
42.390        80
42.400        80
42.410        80
42.420       133
42.430        93
42.440        93
42.450        80
42.460        93
42.470        47
42.480        60
42.490        73
42.500       100
42.510        87
42.520        67
42.530       100
42.540        73
42.550        73
42.560        87
42.570        33
42.580        40
42.590       113
42.600        53
42.610        67
42.620        53
42.630        60
42.640        80
42.650        53
42.660        73
42.670        53
42.680        60
42.690        67
42.700       100
42.710        73
42.720        40
42.730        93
42.740        67
42.750        53
42.760        53
42.770        73
42.780        67
42.790        33
42.800        80
42.810        67
42.820        40
42.830        67
42.840        47
42.850       100
42.860        67
42.870        40
42.880       140
42.890        73
42.900        53
42.910        53
42.920        60
42.930        93
42.940        80
42.950        60
42.960        60
42.970        67
42.980        67
42.990        53
43.000        33
43.010        60
43.020       100
43.030        67
43.040        60
43.050        60
43.060        80
43.070        40
43.080        47
43.090        80
43.100        53
43.110        53
43.120        13
43.130        60
43.140        73
43.150        47
43.160        60
43.170        33
43.180        33
43.190        73
43.200        47
43.210        47
43.220        40
43.230        40
43.240        73
43.250        93
43.260        73
43.270        33
43.280        87
43.290        27
43.300        47
43.310        27
43.320        33
43.330        33
43.340        40
43.350        80
43.360        40
43.370        27
43.380        33
43.390        60
43.400        60
43.410        60
43.420        60
43.430        40
43.440        47
43.450        67
43.460        47
43.470        40
43.480        33
43.490        67
43.500        60
43.510        47
43.520        73
43.530        47
43.540        33
43.550        27
43.560        40
43.570        33
43.580        33
43.590        53
43.600        73
43.610        53
43.620        40
43.630        60
43.640        40
43.650        33
43.660        80
43.670        53
43.680        47
43.690        27
43.700        53
43.710        67
43.720        53
43.730        67
43.740        40
43.750        47
43.760        40
43.770        33
43.780        27
43.790        47
43.800        67
43.810        33
43.820        53
43.830        27
43.840        47
43.850        53
43.860        33
43.870        20
43.880        60
43.890        67
43.900        40
43.910        13
43.920        93
43.930        40
43.940        33
43.950        33
43.960        33
43.970        67
43.980        33
43.990        60
44.000        33
44.010        60
44.020        33
44.030        33
44.040        40
44.050         7
44.060        40
44.070        80
44.080        33
44.090        53
44.100        53
44.110        40
44.120        27
44.130        40
44.140        67
44.150        27
44.160        53
44.170        33
44.180        60
44.190        67
44.200        40
44.210        47
44.220        40
44.230        47
44.240        13
44.250        33
44.260        60
44.270        33
44.280        60
44.290        53
44.300        47
44.310        13
44.320        47
44.330        47
44.340        80
44.350        27
44.360        60
44.370        13
44.380        53
44.390        73
44.400        33
44.410        20
44.420        40
44.430        53
44.440        47
44.450        67
44.460        27
44.470        40
44.480        67
44.490        40
44.500        53
44.510        60
44.520        20
44.530        53
44.540        40
44.550        47
44.560        40
44.570        73
44.580        40
44.590        47
44.600        33
44.610        20
44.620        53
44.630        60
44.640        47
44.650        47
44.660        40
44.670        53
44.680        13
44.690        33
44.700        60
44.710        27
44.720        40
44.730        53
44.740        40
44.750        40
44.760        60
44.770        53
44.780        40
44.790        27
44.800        47
44.810        60
44.820        53
44.830        47
44.840        47
44.850        47
44.860        53
44.870        47
44.880        40
44.890        27
44.900        33
44.910        53
44.920        67
44.930        27
44.940        20
44.950        40
44.960        33
44.970        33
44.980        60
44.990        40
45.000        40
45.010        40
45.020        53
45.030        33
45.040        27
45.050        67
45.060        67
45.070        33
45.080        40
45.090        53
45.100        33
45.110        40
45.120        27
45.130        47
45.140        27
45.150        53
45.160        27
45.170        40
45.180        33
45.190        33
45.200        67
45.210        33
45.220        47
45.230        40
45.240        60
45.250        40
45.260        73
45.270        33
45.280        53
45.290        33
45.300        53
45.310        53
45.320        67
45.330        40
45.340        33
45.350        33
45.360        47
45.370        40
45.380        53
45.390        67
45.400        53
45.410        53
45.420       100
45.430        47
45.440        27
45.450        27
45.460        53
45.470        67
45.480        33
45.490        53
45.500        27
45.510        47
45.520        60
45.530        67
45.540        47
45.550        40
45.560        33
45.570        27
45.580        40
45.590        20
45.600        40
45.610        33
45.620        87
45.630        27
45.640        40
45.650        33
45.660        27
45.670        73
45.680        40
45.690        47
45.700        60
45.710        47
45.720        53
45.730        53
45.740        67
45.750        73
45.760        33
45.770        47
45.780        40
45.790        67
45.800        53
45.810        53
45.820        80
45.830        40
45.840        47
45.850        47
45.860        60
45.870        67
45.880        40
45.890        40
45.900        47
45.910        40
45.920        13
45.930        40
45.940        27
45.950        40
45.960        47
45.970        27
45.980        33
45.990        53
46.000        47
46.010        87
46.020        47
46.030        47
46.040        93
46.050        80
46.060        20
46.070        40
46.080        47
46.090        20
46.100        60
46.110        60
46.120        60
46.130        47
46.140        40
46.150        60
46.160        53
46.170        93
46.180        87
46.190        53
46.200        33
46.210        33
46.220        67
46.230        80
46.240        67
46.250        20
46.260        67
46.270        47
46.280        47
46.290        47
46.300        47
46.310        33
46.320        53
46.330        67
46.340        67
46.350        60
46.360        67
46.370        60
46.380        53
46.390        67
46.400        33
46.410        53
46.420        87
46.430        40
46.440        53
46.450        60
46.460        60
46.470        33
46.480        33
46.490        27
46.500        47
46.510        53
46.520        60
46.530        40
46.540        33
46.550        53
46.560        40
46.570        40
46.580        73
46.590        67
46.600        47
46.610        73
46.620        53
46.630        53
46.640        67
46.650        80
46.660        40
46.670        27
46.680        40
46.690        80
46.700        87
46.710        40
46.720        47
46.730        40
46.740        87
46.750        73
46.760        47
46.770        80
46.780        87
46.790        93
46.800       120
46.810        80
46.820       153
46.830        67
46.840       113
46.850       100
46.860        87
46.870       100
46.880       127
46.890        80
46.900        80
46.910        73
46.920        87
46.930       120
46.940        60
46.950       113
46.960        80
46.970       100
46.980       127
46.990       160
47.000       133
47.010       220
47.020       127
47.030       160
47.040       127
47.050       193
47.060       233
47.070       213
47.080       247
47.090       240
47.100       240
47.110       340
47.120       400
47.130       573
47.140       693
47.150      1093
47.160      1433
47.170      1859
47.180      2172
47.190      2546
47.200      2379
47.210      2652
47.220      2179
47.230      1839
47.240      1619
47.250      1040
47.260       766
47.270       553
47.280       500
47.290       307
47.300       240
47.310       273
47.320       227
47.330       213
47.340       187
47.350       200
47.360       160
47.370       227
47.380       133
47.390        87
47.400        93
47.410       153
47.420        93
47.430       107
47.440       107
47.450        80
47.460        67
47.470       100
47.480        73
47.490       127
47.500       100
47.510       120
47.520        47
47.530       100
47.540       127
47.550        60
47.560       133
47.570        73
47.580        73
47.590        80
47.600        40
47.610        80
47.620        60
47.630       107
47.640        87
47.650        60
47.660        87
47.670       100
47.680       107
47.690        53
47.700        53
47.710        93
47.720        47
47.730        80
47.740        93
47.750        80
47.760        40
47.770        93
47.780        60
47.790       113
47.800        60
47.810       100
47.820        73
47.830        40
47.840       100
47.850       100
47.860        60
47.870        60
47.880        80
47.890        47
47.900        47
47.910        20
47.920        33
47.930        60
47.940        27
47.950        80
47.960        47
47.970        67
47.980        47
47.990        40
48.000        33
48.010        47
48.020        60
48.030        67
48.040        60
48.050        47
48.060        80
48.070        80
48.080        73
48.090        47
48.100        47
48.110        80
48.120        53
48.130        67
48.140        47
48.150        47
48.160        60
48.170        60
48.180        40
48.190        87
48.200        80
48.210        20
48.220        20
48.230        67
48.240        73
48.250        40
48.260        80
48.270        80
48.280        33
48.290        60
48.300        40
48.310        53
48.320        40
48.330        93
48.340        53
48.350        73
48.360        47
48.370        67
48.380        47
48.390        80
48.400        73
48.410        53
48.420        47
48.430        40
48.440        13
48.450        33
48.460        87
48.470        53
48.480        60
48.490        33
48.500        40
48.510        60
48.520        87
48.530        53
48.540        53
48.550        27
48.560        33
48.570        33
48.580        33
48.590        87
48.600        60
48.610        53
48.620        53
48.630        87
48.640        40
48.650        27
48.660        40
48.670        47
48.680        40
48.690        47
48.700        33
48.710        60
48.720        60
48.730        33
48.740        47
48.750        40
48.760        80
48.770        40
48.780        40
48.790        73
48.800        93
48.810        47
48.820        47
48.830        73
48.840        73
48.850        47
48.860        67
48.870        87
48.880        67
48.890        47
48.900        60
48.910        60
48.920        80
48.930        47
48.940        40
48.950        53
48.960        47
48.970        73
48.980        47
48.990        40
49.000        67
49.010        47
49.020        47
49.030        67
49.040        53
49.050       100
49.060        87
49.070        67
49.080        80
49.090        73
49.100        47
49.110        80
49.120        93
49.130       100
49.140        27
49.150        53
49.160        73
49.170        60
49.180       100
49.190        67
49.200       127
49.210       100
49.220        73
49.230        53
49.240        73
49.250        47
49.260        73
49.270        73
49.280       113
49.290        80
49.300       140
49.310        60
49.320        67
49.330        67
49.340        53
49.350        53
49.360        67
49.370        33
49.380        53
49.390        40
49.400        67
49.410        60
49.420        87
49.430        40
49.440        40
49.450        60
49.460        73
49.470        47
49.480        60
49.490        53
49.500        40
49.510        53
49.520        13
49.530        47
49.540        53
49.550        53
49.560        27
49.570        40
49.580        20
49.590        47
49.600        73
49.610        33
49.620        33
49.630        53
49.640        20
49.650        27
49.660        47
49.670        47
49.680        33
49.690        67
49.700        47
49.710        80
49.720        67
49.730        40
49.740        53
49.750        53
49.760        27
49.770        40
49.780        47
49.790        53
49.800        47
49.810        40
49.820        40
49.830        60
49.840        60
49.850        60
49.860        40
49.870        67
49.880        40
49.890        40
49.900        40
49.910        53
49.920        87
49.930        47
49.940        47
49.950        73
49.960        53
49.970        47
49.980        60
49.990        40
50.000        60
50.010        40
50.020        47
50.030        67
50.040        27
50.050        67
50.060        27
50.070        40
50.080        27
50.090        53
50.100        60
50.110        60
50.120        87
50.130        60
50.140        33
50.150        27
50.160        53
50.170        47
50.180        60
50.190        47
50.200        53
50.210        33
50.220        60
50.230        40
50.240        47
50.250        40
50.260        60
50.270        53
50.280        53
50.290        53
50.300        60
50.310        13
50.320        20
50.330        40
50.340        60
50.350        20
50.360        40
50.370        40
50.380        67
50.390        20
50.400        40
50.410        53
50.420        73
50.430        53
50.440        53
50.450        47
50.460        60
50.470        60
50.480        47
50.490        33
50.500        40
50.510        60
50.520        47
50.530        60
50.540         7
50.550        53
50.560        53
50.570        87
50.580        33
50.590       113
50.600        73
50.610       133
50.620       153
50.630       160
50.640       200
50.650       253
50.660       253
50.670       373
50.680       293
50.690       413
50.700       440
50.710       560
50.720       553
50.730       446
50.740       673
50.750       620
50.760       640
50.770       566
50.780       500
50.790       633
50.800       613
50.810       540
50.820       700
50.830       693
50.840       566
50.850       593
50.860       700
50.870       693
50.880       560
50.890       600
50.900       640
50.910       653
50.920       640
50.930       553
50.940       646
50.950       660
50.960       673
50.970       686
50.980       666
50.990       513
51.000       613
51.010       666
51.020       740
51.030       573
51.040       646
51.050       766
51.060       733
51.070       626
51.080       686
51.090       533
51.100       573
51.110       626
51.120       600
51.130       526
51.140       593
51.150       646
51.160       740
51.170       633
51.180       626
51.190       673
51.200       533
51.210       713
51.220       673
51.230       633
51.240       560
51.250       706
51.260       633
51.270       566
51.280       786
51.290       693
51.300       540
51.310       486
51.320       660
51.330       700
51.340       626
51.350       780
51.360       533
51.370       640
51.380       586
51.390       586
51.400       540
51.410       686
51.420       713
51.430       620
51.440       680
51.450       646
51.460       646
51.470       540
51.480       600
51.490       620
51.500       660
51.510       626
51.520       720
51.530       580
51.540       693
51.550       673
51.560       753
51.570       660
51.580       680
51.590       740
51.600       766
51.610       713
51.620       553
51.630       686
51.640       640
51.650       666
51.660       653
51.670       753
51.680       666
51.690       640
51.700       860
51.710       840
51.720       786
51.730       786
51.740       760
51.750       513
51.760       646
51.770       706
51.780       613
51.790       646
51.800       720
51.810       700
51.820       793
51.830       853
51.840       800
51.850       740
51.860       726
51.870       753
51.880       706
51.890       973
51.900       733
51.910       766
51.920       866
51.930       866
51.940       946
51.950       826
51.960       760
51.970       846
51.980      1020
51.990       893
52.000       773
52.010       986
52.020      1040
52.030       933
52.040       920
52.050       946
52.060      1220
52.070      1006
52.080       866
52.090      1020
52.100      1173
52.110      1186
52.120      1106
52.130      1213
52.140      1279
52.150      1173
52.160      1326
52.170      1486
52.180      1359
52.190      1473
52.200      1426
52.210      1679
52.220      1866
52.230      1693
52.240      1706
52.250      2033
52.260      1946
52.270      2332
52.280      2912
52.290      3059
52.300      3479
52.310      3898
52.320      4798
52.330      5831
52.340      6297
52.350      6977
52.360      7697
52.370      8717
52.380      9316
52.390      9969
52.400     11189
52.410     11669
52.420     12468
52.430     13588
52.440     13535
52.450     13814
52.460     15134
52.470     16407
52.480     18366
52.490     20958
52.500     25217
52.510     30668
52.520     41064
52.530     58357
52.540     89264
52.550    133080
52.560    175250
52.570    208550
52.580    225243
52.590    235899
52.600    236106
52.610    229235
52.620    211789
52.630    174583
52.640    131567
52.650     91797
52.660     68972
52.670     62035
52.680     70412
52.690     86899
52.700    110029
52.710    129542
52.720    142243
52.730    147814
52.740    149194
52.750    143256
52.760    125290
52.770    102526
52.780     71971
52.790     48134
52.800     32260
52.810     22411
52.820     16187
52.830     13208
52.840     10789
52.850      9190
52.860      7790
52.870      6631
52.880      5898
52.890      5238
52.900      4258
52.910      4032
52.920      3392
52.930      3079
52.940      3465
52.950      2932
52.960      2726
52.970      2499
52.980      2412
52.990      2159
53.000      2106
53.010      1999
53.020      2066
53.030      1899
53.040      1733
53.050      1779
53.060      1933
53.070      1686
53.080      1459
53.090      1513
53.100      1346
53.110      1293
53.120      1266
53.130      1173
53.140      1579
53.150      1306
53.160       986
53.170      1086
53.180      1140
53.190      1200
53.200       993
53.210      1026
53.220      1173
53.230      1200
53.240      1000
53.250      1193
53.260      1066
53.270      1093
53.280      1106
53.290       986
53.300       913
53.310       900
53.320       993
53.330       920
53.340      1000
53.350       966
53.360       813
53.370       873
53.380       893
53.390       733
53.400       913
53.410       826
53.420       713
53.430       753
53.440       833
53.450       746
53.460       700
53.470       913
53.480       580
53.490       693
53.500       753
53.510       753
53.520       820
53.530       806
53.540       726
53.550       573
53.560       740
53.570       726
53.580       706
53.590       693
53.600       706
53.610       720
53.620       733
53.630       640
53.640       760
53.650       706
53.660       666
53.670       600
53.680       720
53.690       626
53.700       720
53.710       653
53.720       533
53.730       640
53.740       653
53.750       633
53.760       613
53.770       600
53.780       573
53.790       560
53.800       660
53.810       593
53.820       566
53.830       666
53.840       533
53.850       493
53.860       533
53.870       673
53.880       706
53.890       573
53.900       446
53.910       586
53.920       566
53.930       640
53.940       533
53.950       573
53.960       526
53.970       553
53.980       513
53.990       506
54.000       453
54.010       446
54.020       513
54.030       466
54.040       520
54.050       526
54.060       533
54.070       460
54.080       413
54.090       573
54.100       546
54.110       486
54.120       480
54.130       407
54.140       533
54.150       400
54.160       546
54.170       426
54.180       433
54.190       613
54.200       513
54.210       486
54.220       453
54.230       480
54.240       460
54.250       400
54.260       493
54.270       480
54.280       513
54.290       446
54.300       380
54.310       486
54.320       400
54.330       407
54.340       466
54.350       400
54.360       460
54.370       393
54.380       506
54.390       393
54.400       433
54.410       540
54.420       387
54.430       400
54.440       466
54.450       367
54.460       426
54.470       433
54.480       407
54.490       466
54.500       460
54.510       433
54.520       466
54.530       347
54.540       380
54.550       293
54.560       493
54.570       453
54.580       466
54.590       426
54.600       393
54.610       480
54.620       393
54.630       446
54.640       413
54.650       466
54.660       413
54.670       373
54.680       367
54.690       327
54.700       420
54.710       380
54.720       413
54.730       426
54.740       466
54.750       433
54.760       460
54.770       426
54.780       367
54.790       360
54.800       453
54.810       480
54.820       387
54.830       453
54.840       460
54.850       420
54.860       387
54.870       533
54.880       340
54.890       493
54.900       380
54.910       340
54.920       367
54.930       520
54.940       420
54.950       287
54.960       460
54.970       420
54.980       407
54.990       360
55.000       520
55.010       446
55.020       433
55.030       320
55.040       407
55.050       353
55.060       433
55.070       353
55.080       380
55.090       413
55.100       307
55.110       387
55.120       426
55.130       466
55.140       240
55.150       300
55.160       473
55.170       367
55.180       420
55.190       460
55.200       393
55.210       353
55.220       320
55.230       440
55.240       293
55.250       387
55.260       360
55.270       360
55.280       367
55.290       373
55.300       273
55.310       353
55.320       373
55.330       307
55.340       393
55.350       506
55.360       400
55.370       347
55.380       367
55.390       440
55.400       387
55.410       320
55.420       347
55.430       460
55.440       367
55.450       440
55.460       347
55.470       380
55.480       333
55.490       320
55.500       420
55.510       293
55.520       320
55.530       466
55.540       387
55.550       327
55.560       387
55.570       340
55.580       327
55.590       373
55.600       347
55.610       300
55.620       307
55.630       307
55.640       333
55.650       327
55.660       307
55.670       273
55.680       393
55.690       340
55.700       293
55.710       347
55.720       373
55.730       360
55.740       333
55.750       353
55.760       373
55.770       340
55.780       353
55.790       387
55.800       320
55.810       300
55.820       367
55.830       340
55.840       400
55.850       327
55.860       367
55.870       387
55.880       380
55.890       267
55.900       233
55.910       340
55.920       313
55.930       353
55.940       267
55.950       273
55.960       347
55.970       393
55.980       307
55.990       387
56.000       433
56.010       300
56.020       227
56.030       300
56.040       300
56.050       373
56.060       360
56.070       273
56.080       240
56.090       347
56.100       340
56.110       353
56.120       320
56.130       360
56.140       307
56.150       307
56.160       340
56.170       360
56.180       380
56.190       313
56.200       233
56.210       347
56.220       320
56.230       340
56.240       333
56.250       360
56.260       247
56.270       380
56.280       240
56.290       393
56.300       287
56.310       353
56.320       253
56.330       307
56.340       307
56.350       307
56.360       267
56.370       267
56.380       253
56.390       367
56.400       240
56.410       340
56.420       300
56.430       420
56.440       320
56.450       327
56.460       333
56.470       373
56.480       267
56.490       340
56.500       380
56.510       273
56.520       360
56.530       280
56.540       293
56.550       393
56.560       347
56.570       273
56.580       300
56.590       320
56.600       240
56.610       320
56.620       287
56.630       227
56.640       253
56.650       287
56.660       333
56.670       200
56.680       320
56.690       253
56.700       307
56.710       293
56.720       273
56.730       327
56.740       367
56.750       307
56.760       267
56.770       320
56.780       240
56.790       273
56.800       247
56.810       273
56.820       300
56.830       267
56.840       280
56.850       307
56.860       287
56.870       200
56.880       367
56.890       207
56.900       240
56.910       260
56.920       327
56.930       360
56.940       313
56.950       367
56.960       240
56.970       333
56.980       280
56.990       300
57.000       287
57.010       233
57.020       280
57.030       220
57.040       213
57.050       280
57.060       227
57.070       267
57.080       313
57.090       267
57.100       313
57.110       287
57.120       207
57.130       333
57.140       327
57.150       273
57.160       267
57.170       313
57.180       253
57.190       313
57.200       313
57.210       233
57.220       347
57.230       207
57.240       227
57.250       213
57.260       240
57.270       280
57.280       300
57.290       273
57.300       220
57.310       260
57.320       193
57.330       313
57.340       260
57.350       273
57.360       233
57.370       247
57.380       287
57.390       333
57.400       300
57.410       247
57.420       213
57.430       227
57.440       313
57.450       220
57.460       213
57.470       313
57.480       340
57.490       307
57.500       207
57.510       280
57.520       240
57.530       287
57.540       180
57.550       273
57.560       267
57.570       220
57.580       267
57.590       320
57.600       273
57.610       233
57.620       293
57.630       273
57.640       253
57.650       327
57.660       220
57.670       273
57.680       287
57.690       200
57.700       207
57.710       287
57.720       240
57.730       247
57.740       273
57.750       320
57.760       227
57.770       253
57.780       287
57.790       253
57.800       273
57.810       187
57.820       267
57.830       300
57.840       293
57.850       307
57.860       233
57.870       213
57.880       227
57.890       293
57.900       287
57.910       300
57.920       253
57.930       200
57.940       300
57.950       207
57.960       293
57.970       287
57.980       233
57.990       267
58.000       233
58.010       220
58.020       233
58.030       340
58.040       200
58.050       173
58.060       260
58.070       313
58.080       233
58.090       253
58.100       160
58.110       240
58.120       267
58.130       240
58.140       207
58.150       213
58.160       233
58.170       253
58.180       247
58.190       260
58.200       240
58.210       187
58.220       307
58.230       220
58.240       213
58.250       153
58.260       220
58.270       307
58.280       200
58.290       213
58.300       260
58.310       167
58.320       233
58.330       280
58.340       227
58.350       200
58.360       233
58.370       193
58.380       247
58.390       207
58.400       187
58.410       220
58.420       227
58.430       207
58.440       227
58.450       267
58.460       140
58.470       273
58.480       187
58.490       280
58.500       247
58.510       227
58.520       260
58.530       220
58.540       253
58.550       260
58.560       173
58.570       213
58.580       247
58.590       287
58.600       207
58.610       167
58.620       260
58.630       180
58.640       253
58.650       247
58.660       260
58.670       260
58.680       227
58.690       220
58.700       220
58.710       213
58.720       173
58.730       233
58.740       213
58.750       187
58.760       293
58.770       213
58.780       260
58.790       227
58.800       227
58.810       253
58.820       213
58.830       207
58.840       207
58.850       207
58.860       247
58.870       247
58.880       233
58.890       213
58.900        93
58.910       167
58.920       227
58.930       207
58.940       200
58.950       167
58.960       220
58.970       187
58.980       240
58.990       247
59.000       233
59.010       240
59.020       273
59.030       240
59.040       193
59.050       200
59.060       207
59.070       247
59.080       193
59.090       160
59.100       127
59.110       213
59.120       233
59.130       180
59.140       233
59.150       187
59.160       180
59.170       193
59.180       160
59.190       153
59.200       180
59.210       173
59.220       213
59.230       173
59.240       153
59.250       200
59.260       193
59.270       160
59.280       133
59.290       187
59.300       167
59.310       253
59.320       140
59.330       193
59.340       180
59.350       180
59.360       220
59.370       207
59.380       167
59.390       213
59.400       147
59.410       233
59.420       240
59.430       227
59.440       173
59.450       153
59.460       193
59.470       207
59.480       120
59.490       227
59.500       227
59.510       153
59.520       180
59.530       153
59.540       180
59.550       207
59.560       233
59.570       180
59.580       240
59.590       133
59.600       227
59.610       200
59.620       207
59.630       133
59.640       213
59.650       207
59.660       187
59.670       240
59.680       180
59.690       233
59.700       173
59.710       187
59.720       227
59.730       167
59.740       307
59.750       207
59.760       227
59.770       173
59.780       213
59.790       207
59.800       233
59.810       187
59.820       220
59.830       213
59.840       193
59.850       180
59.860       227
59.870       120
59.880       227
59.890       127
59.900       153
59.910       160
59.920       233
59.930       160
59.940       187
59.950       173
59.960       120
59.970       207
59.980       153
59.990       113
60.000       113
