20.000        27
20.010        27
20.020        60
20.030        40
20.040        20
20.050        53
20.060        20
20.070        47
20.080        20
20.090        40
20.100        53
20.110        40
20.120        20
20.130        33
20.140        27
20.150        67
20.160        27
20.170        60
20.180        27
20.190        53
20.200        60
20.210        60
20.220        33
20.230        60
20.240        40
20.250        67
20.260        27
20.270        60
20.280        53
20.290        33
20.300        13
20.310        33
20.320        20
20.330        53
20.340        33
20.350        40
20.360        40
20.370        40
20.380        33
20.390        40
20.400        67
20.410        40
20.420        87
20.430        27
20.440        47
20.450        60
20.460        27
20.470        20
20.480        87
20.490        53
20.500        33
20.510        40
20.520        20
20.530        40
20.540        47
20.550        33
20.560        27
20.570        60
20.580        47
20.590        27
20.600        67
20.610        33
20.620        60
20.630        73
20.640        33
20.650        40
20.660        53
20.670        47
20.680        87
20.690        60
20.700        27
20.710        60
20.720        53
20.730        53
20.740        67
20.750        40
20.760        20
20.770        53
20.780        47
20.790        20
20.800        60
20.810        40
20.820        40
20.830        67
20.840        27
20.850        13
20.860        20
20.870        20
20.880        40
20.890        53
20.900        13
20.910        73
20.920        27
20.930        40
20.940        27
20.950        20
20.960        53
20.970        53
20.980        40
20.990        27
21.000        27
21.010        27
21.020        67
21.030        53
21.040        47
21.050        60
21.060        33
21.070        27
21.080        13
21.090        53
21.100        73
21.110        33
21.120        33
21.130        27
21.140        27
21.150        47
21.160        20
21.170         7
21.180        33
21.190        60
21.200        60
21.210        53
21.220        27
21.230        53
21.240        33
21.250        40
21.260        47
21.270        47
21.280        33
21.290        33
21.300        13
21.310        47
21.320        40
21.330        33
21.340        40
21.350        53
21.360        47
21.370        60
21.380        47
21.390        27
21.400        40
21.410        33
21.420        33
21.430        47
21.440        33
21.450        33
21.460        47
21.470        87
21.480        40
21.490        33
21.500        40
21.510        27
21.520        53
21.530        53
21.540        53
21.550        53
21.560        20
21.570        67
21.580        47
21.590        40
21.600        27
21.610        33
21.620        47
21.630        47
21.640        20
21.650        87
21.660        73
21.670        60
21.680        13
21.690        13
21.700        33
21.710        67
21.720        27
21.730        33
21.740        67
21.750        53
21.760        47
21.770        47
21.780        33
21.790        47
21.800        60
21.810        53
21.820        60
21.830        53
21.840        40
21.850        33
21.860        47
21.870        80
21.880        27
21.890        27
21.900        40
21.910        53
21.920        53
21.930        40
21.940        20
21.950        67
21.960        33
21.970        80
21.980        33
21.990        67
22.000        53
22.010        60
22.020        47
22.030        33
22.040        87
22.050        53
22.060        40
22.070        80
22.080        40
22.090        53
22.100        20
22.110        33
22.120        27
22.130        53
22.140        40
22.150        87
22.160        60
22.170        47
22.180        40
22.190        27
22.200        47
22.210        60
22.220        40
22.230        67
22.240        60
22.250        47
22.260        47
22.270        33
22.280        73
22.290        40
22.300        60
22.310        53
22.320        73
22.330        53
22.340        27
22.350        53
22.360        40
22.370        20
22.380        60
22.390        13
22.400        60
22.410        73
22.420        27
22.430        60
22.440        80
22.450        73
22.460        60
22.470        80
22.480        73
22.490        47
22.500        53
22.510        60
22.520        33
22.530        60
22.540        27
22.550        73
22.560        53
22.570        73
22.580        53
22.590        53
22.600        67
22.610        47
22.620        60
22.630         7
22.640        47
22.650        33
22.660        67
22.670        73
22.680        40
22.690        27
22.700        40
22.710        33
22.720        53
22.730        33
22.740        33
22.750        33
22.760        47
22.770        27
22.780        53
22.790        67
22.800        40
22.810        47
22.820        40
22.830        13
22.840        40
22.850        60
22.860        27
22.870        40
22.880        40
22.890        13
22.900        40
22.910        27
22.920        27
22.930        40
22.940        53
22.950        33
22.960        40
22.970        40
22.980        40
22.990        33
23.000        40
23.010        47
23.020        53
23.030        40
23.040        67
23.050        40
23.060        33
23.070        67
23.080        40
23.090        53
23.100        13
23.110        27
23.120        13
23.130        27
23.140        27
23.150        27
23.160        67
23.170        53
23.180        47
23.190        33
23.200        33
23.210        33
23.220        47
23.230        47
23.240        33
23.250        47
23.260        27
23.270        47
23.280        27
23.290        13
23.300        20
23.310        20
23.320        53
23.330        53
23.340        27
23.350         7
23.360        47
23.370        53
23.380        27
23.390        47
23.400         0
23.410        47
23.420        27
23.430        60
23.440        40
23.450        20
23.460        73
23.470        40
23.480        20
23.490        47
23.500        47
23.510        47
23.520        20
23.530        33
23.540        20
23.550        33
23.560        60
23.570        27
23.580        33
23.590         7
23.600        47
23.610        40
23.620        33
23.630        53
23.640        27
23.650        33
23.660        40
23.670        33
23.680        60
23.690        53
23.700        60
23.710        53
23.720        47
23.730        13
23.740        13
23.750        33
23.760        40
23.770        47
23.780        13
23.790        40
23.800        40
23.810        53
23.820        20
23.830        27
23.840        27
23.850        33
23.860        40
23.870        13
23.880        27
23.890        13
23.900        27
23.910        47
23.920        33
23.930        33
23.940        47
23.950        33
23.960        47
23.970        53
23.980        60
23.990        40
24.000        27
24.010        27
24.020        60
24.030        60
24.040        33
24.050        47
24.060        60
24.070        40
24.080        33
24.090        53
24.100        33
24.110        53
24.120        40
24.130        87
24.140        47
24.150        33
24.160        20
24.170        47
24.180        33
24.190        33
24.200        53
24.210        60
24.220        27
24.230        40
24.240        33
24.250        40
24.260        27
24.270         7
24.280        33
24.290        33
24.300        33
24.310        27
24.320        53
24.330        27
24.340        13
24.350        27
24.360        53
24.370        40
24.380        33
24.390        20
24.400        20
24.410        40
24.420        40
24.430        67
24.440        13
24.450        67
24.460        27
24.470        53
24.480        13
24.490        27
24.500        53
24.510        60
24.520        53
24.530        20
24.540        33
24.550        53
24.560        47
24.570        47
24.580        20
24.590        27
24.600        27
24.610        20
24.620        87
24.630        40
24.640        33
24.650        20
24.660        53
24.670        20
24.680        33
24.690        40
24.700        33
24.710        40
24.720        27
24.730        40
24.740        40
24.750        40
24.760        20
24.770        33
24.780        33
24.790        60
24.800        20
24.810        60
24.820        40
24.830        40
24.840        20
24.850        47
24.860        47
24.870        20
24.880        33
24.890        47
24.900        40
24.910        40
24.920        53
24.930        33
24.940        27
24.950        40
24.960        27
24.970        40
24.980        53
24.990        27
25.000        27
25.010        33
25.020        13
25.030        27
25.040        20
25.050        53
25.060        40
25.070        27
25.080        27
25.090        27
25.100        47
25.110        40
25.120        40
25.130        67
25.140        27
25.150        60
25.160        47
25.170        60
25.180        40
25.190        27
25.200        20
25.210        47
25.220        53
25.230        20
25.240         7
25.250        33
25.260        47
25.270        53
25.280        20
25.290        13
25.300        60
25.310        60
25.320        27
25.330        47
25.340        53
25.350        20
25.360        47
25.370        20
25.380        33
25.390        27
25.400        80
25.410        33
25.420        53
25.430        53
25.440        53
25.450        67
25.460        60
25.470        67
25.480        80
25.490        67
25.500       133
25.510       100
25.520       107
25.530       153
25.540       180
25.550       147
25.560        93
25.570       127
25.580       167
25.590       160
25.600       240
25.610       207
25.620       227
25.630       233
25.640       140
25.650       113
25.660       160
25.670        73
25.680       100
25.690        93
25.700        93
25.710        60
25.720        47
25.730        87
25.740        33
25.750        27
25.760        47
25.770        33
25.780        13
25.790        33
25.800        27
25.810        27
25.820        60
25.830        27
25.840        27
25.850        33
25.860        27
25.870        20
25.880        47
25.890        33
25.900        20
25.910        40
25.920        13
25.930        53
25.940        33
25.950        47
25.960        13
25.970        13
25.980         7
25.990        27
26.000        33
26.010        47
26.020        20
26.030        40
26.040        47
26.050        40
26.060        53
26.070        27
26.080        27
26.090        20
26.100        20
26.110        40
26.120         7
26.130        33
26.140        20
26.150        27
26.160        27
26.170        33
26.180        33
26.190        13
26.200        20
26.210        80
26.220        13
26.230        27
26.240        33
26.250        20
26.260        33
26.270        27
26.280        13
26.290        33
26.300        13
26.310        13
26.320        40
26.330        27
26.340        33
26.350        53
26.360        33
26.370        27
26.380        47
26.390        80
26.400        27
26.410        27
26.420         0
26.430        13
26.440        40
26.450        33
26.460        20
26.470        33
26.480        33
26.490        40
26.500        33
26.510        53
26.520        13
26.530         0
26.540        33
26.550        47
26.560        47
26.570        27
26.580        73
26.590        27
26.600        20
26.610        40
26.620        33
26.630        33
26.640        20
26.650        40
26.660        47
26.670        33
26.680        40
26.690        33
26.700        20
26.710        33
26.720        13
26.730        60
26.740        27
26.750        40
26.760        27
26.770        67
26.780        27
26.790        33
26.800        33
26.810        53
26.820        40
26.830        33
26.840        40
26.850        33
26.860        40
26.870        33
26.880        40
26.890         7
26.900        33
26.910        40
26.920        13
26.930        33
26.940        33
26.950        47
26.960        13
26.970        13
26.980        13
26.990        47
27.000        13
27.010        27
27.020        40
27.030        33
27.040        60
27.050        13
27.060        13
27.070        47
27.080        27
27.090        33
27.100        53
27.110        47
27.120        27
27.130        20
27.140        47
27.150        53
27.160        40
27.170        40
27.180         7
27.190        60
27.200        47
27.210        20
27.220        47
27.230        13
27.240        27
27.250        20
27.260        47
27.270        27
27.280        27
27.290        27
27.300        53
27.310        20
27.320        53
27.330        47
27.340        13
27.350        20
27.360         7
27.370        20
27.380        27
27.390        47
27.400        13
27.410        27
27.420        27
27.430        27
27.440        27
27.450        40
27.460        20
27.470        27
27.480        47
27.490        20
27.500        33
27.510        27
27.520        20
27.530        53
27.540        27
27.550        27
27.560        47
27.570        40
27.580        20
27.590        20
27.600        20
27.610        27
27.620         7
27.630        27
27.640        13
27.650        40
27.660        33
27.670        40
27.680        40
27.690        27
27.700        40
27.710        40
27.720        33
27.730         7
27.740        13
27.750        33
27.760        13
27.770        20
27.780        20
27.790        47
27.800        20
27.810        27
27.820        47
27.830        47
27.840        33
27.850        67
27.860        13
27.870        20
27.880        13
27.890        33
27.900        40
27.910        33
27.920        33
27.930        60
27.940        33
27.950        20
27.960        33
27.970        13
27.980        33
27.990        33
28.000        20
28.010        20
28.020        27
28.030        20
28.040        47
28.050        20
28.060        47
28.070        40
28.080        27
28.090        40
28.100        33
28.110         7
28.120        27
28.130        47
28.140        20
28.150        40
28.160        13
28.170        27
28.180        20
28.190        33
28.200        27
28.210        53
28.220        73
28.230        40
28.240        27
28.250        20
28.260         7
28.270        33
28.280        13
28.290        20
28.300         7
28.310        27
28.320        27
28.330        53
28.340        27
28.350        40
28.360        20
28.370        33
28.380        27
28.390        40
28.400        20
28.410        33
28.420        33
28.430        33
28.440        53
28.450        53
28.460         7
28.470        20
28.480        20
28.490        40
28.500        13
28.510        13
28.520        13
28.530        27
28.540        13
28.550         0
28.560        40
28.570        27
28.580         7
28.590        53
28.600        40
28.610        60
28.620        27
28.630        20
28.640        20
28.650        27
28.660        27
28.670        33
28.680         0
28.690        60
28.700         7
28.710        13
28.720        33
28.730        47
28.740        33
28.750        40
28.760         7
28.770        33
28.780        40
28.790        20
28.800        13
28.810        20
28.820        33
28.830        13
28.840        33
28.850        13
28.860        47
28.870        47
28.880        40
28.890        13
28.900        20
28.910        33
28.920        13
28.930        53
28.940        20
28.950        27
28.960        33
28.970         7
28.980        33
28.990        27
29.000        27
29.010        40
29.020        47
29.030        13
29.040        20
29.050        40
29.060         0
29.070        47
29.080        13
29.090        20
29.100        47
29.110        60
29.120        33
29.130        47
29.140        40
29.150        33
29.160        53
29.170        20
29.180        80
29.190        67
29.200        47
29.210        47
29.220        20
29.230        40
29.240        47
29.250        40
29.260        27
29.270        40
29.280        47
29.290        47
29.300        47
29.310        47
29.320        13
29.330        33
29.340         7
29.350         0
29.360        73
29.370        27
29.380        40
29.390        27
29.400        40
29.410        33
29.420        40
29.430        27
29.440        13
29.450        33
29.460         7
29.470        33
29.480        20
29.490        20
29.500        40
29.510        33
29.520        13
29.530        53
29.540        53
29.550        13
29.560        40
29.570        53
29.580         7
29.590        20
29.600        27
29.610        27
29.620        60
29.630        40
29.640        13
29.650        33
29.660        20
29.670        20
29.680        47
29.690        20
29.700        33
29.710        27
29.720        53
29.730        33
29.740        13
29.750        20
29.760        33
29.770        33
29.780        40
29.790        13
29.800        33
29.810        53
29.820        27
29.830        33
29.840        13
29.850        27
29.860        33
29.870        27
29.880        47
29.890        47
29.900        40
29.910         7
29.920        53
29.930        47
29.940        20
29.950        47
29.960        20
29.970        40
29.980        20
29.990        33
30.000        27
30.010        33
30.020        47
30.030        40
30.040        33
30.050        20
30.060         7
30.070        27
30.080        20
30.090        33
30.100        20
30.110        27
30.120        20
30.130        87
30.140        47
30.150        33
30.160        20
30.170        53
30.180        27
30.190        20
30.200        20
30.210        20
30.220        20
30.230        33
30.240        47
30.250        47
30.260        40
30.270        20
30.280        40
30.290         7
30.300        60
30.310        33
30.320        40
30.330        27
30.340        27
30.350        53
30.360        33
30.370        33
30.380        27
30.390        40
30.400        20
30.410        33
30.420        13
30.430        40
30.440        27
30.450        33
30.460        33
30.470        47
30.480        47
30.490        33
30.500        27
30.510        13
30.520        27
30.530        20
30.540        20
30.550        40
30.560        33
30.570        27
30.580        40
30.590        67
30.600        33
30.610        67
30.620        33
30.630        13
30.640        60
30.650        47
30.660        20
30.670        20
30.680        27
30.690        13
30.700        13
30.710        33
30.720        40
30.730        13
30.740        53
30.750        20
30.760        47
30.770        33
30.780        60
30.790        47
30.800        33
30.810        27
30.820        47
30.830        47
30.840        60
30.850        53
30.860        60
30.870        40
30.880        20
30.890        47
30.900        40
30.910        47
30.920        53
30.930        40
30.940        60
30.950        47
30.960        33
30.970        40
30.980        33
30.990        47
31.000        53
31.010        20
31.020        27
31.030        53
31.040        67
31.050        33
31.060        53
31.070        40
31.080        40
31.090        60
31.100        87
31.110        40
31.120        27
31.130        73
31.140        60
31.150        33
31.160        73
31.170        87
31.180        60
31.190       100
31.200       100
31.210        27
31.220        33
31.230        60
31.240        73
31.250        60
31.260        80
31.270        80
31.280        80
31.290        67
31.300       100
31.310       133
31.320        67
31.330        87
31.340        73
31.350        73
31.360        60
31.370        80
31.380       107
31.390       107
31.400        93
31.410       120
31.420        60
31.430        93
31.440       113
31.450        87
31.460       113
31.470       120
31.480        60
31.490       100
31.500        87
31.510       127
31.520       107
31.530        67
31.540        67
31.550       107
31.560       107
31.570       133
31.580        80
31.590        93
31.600       100
31.610       127
31.620        87
31.630       100
31.640        67
31.650        87
31.660       107
31.670        87
31.680        53
31.690        87
31.700       140
31.710       113
31.720       107
31.730       100
31.740        67
31.750       100
31.760       140
31.770        93
31.780        80
31.790        93
31.800       100
31.810       140
31.820        87
31.830       147
31.840        73
31.850       100
31.860       100
31.870       127
31.880       100
31.890       107
31.900        47
31.910       100
31.920       113
31.930        87
31.940       140
31.950       100
31.960        93
31.970        87
31.980       133
31.990       140
32.000       107
32.010       173
32.020       107
32.030       100
32.040        93
32.050       133
32.060       133
32.070       153
32.080        73
32.090       107
32.100       113
32.110        80
32.120       113
32.130        93
32.140       107
32.150        73
32.160        73
32.170        93
32.180       100
32.190        80
32.200        40
32.210        73
32.220        73
32.230        33
32.240        60
32.250       120
32.260        67
32.270        87
32.280        47
32.290        73
32.300        80
32.310        60
32.320        73
32.330        33
32.340        60
32.350        73
32.360        47
32.370        47
32.380        20
32.390        27
32.400        27
32.410        33
32.420        33
32.430        33
32.440        47
32.450        87
32.460        40
32.470        20
32.480        47
32.490        33
32.500        13
32.510        20
32.520        47
32.530        33
32.540        40
32.550        40
32.560        27
32.570        33
32.580        53
32.590        33
32.600        60
32.610         7
32.620        20
32.630        27
32.640        13
32.650        33
32.660        47
32.670        80
32.680        40
32.690        40
32.700         7
32.710        67
32.720        53
32.730        20
32.740        27
32.750        33
32.760        40
32.770        47
32.780        33
32.790        33
32.800        20
32.810         7
32.820        60
32.830        27
32.840        20
32.850         0
32.860        40
32.870        33
32.880        53
32.890        13
32.900        60
32.910        27
32.920        67
32.930        27
32.940        27
32.950        20
32.960        33
32.970        53
32.980        27
32.990        40
33.000        13
33.010         7
33.020        60
33.030        20
33.040        27
33.050         7
33.060         7
33.070        40
33.080        20
33.090        20
33.100        40
33.110        20
33.120        27
33.130        53
33.140        20
33.150        33
33.160        40
33.170         7
33.180        20
33.190        20
33.200        13
33.210        33
33.220        60
33.230        27
33.240        13
33.250        20
33.260        20
33.270        33
33.280        40
33.290        40
33.300        20
33.310        33
33.320        33
33.330        27
33.340        27
33.350        13
33.360        33
33.370        40
33.380        20
33.390        20
33.400        73
33.410        13
33.420        47
33.430        27
33.440        47
33.450        53
33.460        27
33.470        33
33.480        20
33.490        20
33.500        13
33.510        13
33.520        40
33.530        53
33.540        20
33.550         7
33.560        53
33.570        27
33.580        20
33.590        27
33.600        73
33.610         7
33.620        27
33.630        33
33.640        20
33.650        60
33.660        33
33.670        20
33.680        13
33.690        27
33.700        13
33.710        40
33.720        20
33.730        33
33.740        33
33.750        27
33.760        20
33.770        13
33.780        33
33.790        27
33.800        27
33.810        13
33.820        27
33.830        33
33.840        27
33.850        20
33.860        20
33.870        20
33.880        27
33.890        47
33.900        13
33.910        33
33.920        27
33.930        20
33.940        20
33.950        27
33.960        20
33.970        13
33.980        47
33.990        47
34.000        20
34.010        47
34.020        13
34.030        20
34.040        33
34.050         7
34.060        13
34.070        33
34.080        33
34.090        20
34.100        27
34.110        20
34.120        13
34.130        13
34.140        40
34.150        20
34.160        47
34.170        27
34.180         7
34.190        33
34.200        27
34.210        40
34.220        20
34.230         7
34.240        40
34.250        13
34.260        27
34.270        13
34.280        33
34.290        27
34.300        40
34.310        20
34.320        40
34.330        40
34.340        40
34.350        40
34.360        27
34.370        33
34.380        67
34.390        27
34.400         7
34.410         7
34.420        53
34.430         7
34.440        13
34.450        27
34.460        40
34.470        47
34.480        33
34.490        40
34.500        27
34.510        27
34.520        13
34.530        13
34.540        33
34.550        47
34.560        33
34.570        33
34.580        13
34.590        20
34.600        27
34.610        33
34.620        20
34.630        27
34.640        33
34.650        40
34.660        20
34.670         7
34.680        27
34.690        27
34.700        20
34.710        33
34.720        33
34.730        13
34.740         7
34.750        47
34.760        27
34.770        47
34.780        27
34.790        47
34.800        27
34.810        27
34.820        13
34.830        13
34.840        27
34.850        40
34.860        40
34.870        47
34.880        40
34.890        27
34.900        47
34.910        27
34.920        27
34.930        33
34.940        40
34.950        60
34.960        33
34.970        60
34.980        40
34.990        33
35.000        47
35.010        73
35.020       127
35.030       120
35.040        93
35.050       113
35.060       120
35.070       140
35.080       107
35.090        60
35.100       120
35.110       167
35.120       127
35.130       147
35.140       213
35.150       213
35.160       213
35.170       293
35.180       313
35.190       413
35.200       367
35.210       327
35.220       280
35.230       260
35.240       233
35.250       233
35.260       233
35.270       253
35.280       193
35.290       200
35.300       167
35.310       120
35.320       133
35.330       133
35.340        27
35.350        40
35.360        53
35.370        20
35.380        20
35.390        47
35.400        20
35.410        40
35.420        20
35.430        33
35.440        20
35.450        27
35.460        27
35.470        40
35.480        13
35.490        47
35.500        47
35.510        27
35.520        13
35.530        60
35.540        20
35.550        27
35.560        40
35.570         0
35.580        27
35.590        60
35.600        13
35.610        27
35.620         7
35.630        40
35.640        13
35.650        27
35.660        13
35.670        13
35.680         7
35.690        27
35.700        33
35.710        33
35.720        47
35.730        47
35.740        20
35.750         7
35.760        67
35.770        47
35.780        13
35.790        33
35.800        47
35.810        27
35.820        40
35.830        33
35.840        20
35.850        20
35.860        47
35.870        47
35.880        20
35.890         0
35.900        27
35.910         0
35.920        40
35.930        33
35.940        27
35.950        40
35.960        20
35.970        13
35.980        33
35.990        13
36.000        27
36.010        20
36.020        53
36.030        47
36.040        33
36.050        20
36.060         7
36.070        27
36.080        40
36.090        13
36.100        13
36.110        20
36.120        40
36.130        27
36.140        40
36.150        40
36.160        33
36.170        27
36.180        27
36.190        53
36.200        13
36.210        27
36.220        13
36.230        33
36.240        47
36.250        27
36.260        13
36.270        20
36.280        20
36.290        33
36.300        13
36.310        20
36.320         7
36.330        40
36.340        33
36.350        20
36.360        40
36.370        13
36.380        13
36.390        13
36.400        53
36.410        53
36.420        27
36.430         7
36.440        13
36.450        33
36.460        20
36.470        13
36.480        20
36.490        20
36.500        13
36.510        13
36.520        20
36.530        27
36.540        20
36.550        40
36.560        13
36.570        27
36.580        27
36.590        20
36.600        33
36.610         7
36.620         7
36.630        27
36.640        40
36.650        27
36.660        27
36.670        20
36.680        20
36.690        40
36.700        27
36.710        20
36.720        33
36.730        13
36.740        13
36.750        27
36.760        33
36.770        33
36.780        40
36.790        13
36.800        13
36.810        40
36.820         7
36.830        40
36.840        20
36.850        20
36.860        20
36.870        20
36.880        33
36.890        40
36.900        27
36.910        27
36.920        40
36.930        53
36.940         7
36.950        27
36.960        27
36.970        40
36.980        20
36.990         7
37.000        53
37.010        20
37.020        20
37.030        40
37.040        20
37.050        33
37.060        33
37.070         0
37.080        33
37.090        13
37.100        33
37.110        27
37.120        20
37.130        40
37.140        20
37.150        40
37.160        33
37.170        13
37.180         7
37.190        27
37.200        27
37.210         7
37.220        20
37.230        40
37.240        33
37.250        20
37.260        33
37.270        27
37.280        47
37.290        20
37.300        20
37.310        53
37.320        20
37.330        13
37.340        27
37.350        13
37.360        33
37.370        27
37.380        27
37.390        27
37.400        33
37.410         0
37.420        33
37.430        20
37.440        27
37.450        33
37.460        47
37.470        40
37.480        13
37.490         7
37.500        13
37.510        40
37.520        13
37.530        27
37.540        27
37.550        33
37.560        40
37.570        27
37.580        33
37.590        20
37.600        40
37.610        47
37.620        27
37.630        13
37.640        40
37.650        13
37.660        73
37.670        33
37.680        47
37.690        47
37.700        73
37.710        27
37.720        80
37.730        80
37.740       107
37.750       140
37.760       273
37.770       413
37.780       413
37.790       433
37.800       593
37.810       367
37.820       380
37.830       407
37.840       187
37.850       207
37.860       333
37.870       193
37.880       227
37.890       233
37.900       187
37.910       260
37.920       173
37.930       133
37.940        93
37.950        93
37.960        33
37.970        40
37.980        53
37.990        33
38.000        20
38.010        20
38.020        33
38.030        33
38.040        33
38.050        13
38.060        33
38.070        33
38.080        27
38.090        27
38.100        20
38.110        27
38.120        33
38.130        47
38.140        33
38.150        60
38.160        27
38.170        60
38.180        40
38.190        33
38.200        67
38.210        20
38.220        20
38.230        13
38.240        27
38.250        27
38.260        27
38.270        80
38.280        40
38.290        60
38.300        47
38.310         7
38.320        33
38.330        40
38.340        67
38.350        13
38.360         7
38.370        20
38.380        53
38.390        33
38.400        40
38.410        40
38.420        40
38.430        33
38.440        40
38.450        27
38.460        13
38.470         0
38.480        33
38.490        13
38.500        47
38.510        27
38.520        40
38.530        60
38.540        47
38.550        53
38.560        27
38.570        53
38.580        60
38.590        40
38.600        73
38.610        40
38.620        33
38.630        27
38.640        33
38.650        40
38.660        27
38.670        53
38.680        27
38.690        33
38.700        53
38.710        73
38.720        67
38.730        47
38.740        47
38.750        67
38.760        47
38.770        60
38.780        73
38.790        13
38.800        20
38.810        67
38.820        33
38.830        47
38.840        33
38.850        13
38.860        60
38.870        67
38.880       107
38.890        60
38.900        87
38.910        20
38.920        47
38.930        80
38.940        53
38.950        27
38.960        60
38.970        60
38.980        87
38.990        80
39.000        40
39.010        67
39.020        53
39.030        40
39.040        27
39.050        40
39.060        53
39.070        27
39.080        20
39.090        80
39.100        67
39.110        13
39.120        20
39.130        33
39.140        47
39.150        27
39.160        20
39.170        73
39.180        53
39.190        60
39.200        40
39.210        53
39.220        40
39.230        40
39.240        73
39.250        53
39.260        13
39.270        40
39.280        27
39.290        53
39.300        40
39.310        27
39.320        40
39.330        40
39.340        53
39.350        40
39.360        20
39.370        40
39.380        27
39.390        47
39.400        60
39.410        27
39.420        20
39.430        20
39.440        20
39.450        47
39.460        60
39.470        47
39.480        40
39.490        27
39.500        40
39.510        47
39.520        40
39.530        47
39.540        33
39.550        33
39.560        67
39.570        47
39.580        73
39.590        40
39.600        60
39.610        47
39.620        53
39.630        33
39.640        20
39.650        20
39.660        33
39.670        20
39.680        40
39.690        13
39.700        40
39.710        40
39.720        33
39.730         0
39.740        20
39.750        53
39.760        20
39.770        20
39.780        27
39.790        40
39.800        20
39.810        33
39.820        47
39.830        13
39.840        33
39.850        20
39.860        27
39.870        20
39.880         7
39.890         7
39.900        20
39.910        47
39.920        27
39.930        33
39.940        33
39.950        40
39.960        53
39.970        33
39.980        20
39.990        33
40.000        40
40.010        27
40.020        27
40.030         7
40.040        33
40.050        20
40.060         7
40.070        20
40.080        13
40.090        20
40.100        27
40.110        53
40.120        33
40.130        33
40.140         7
40.150        33
40.160        40
40.170        13
40.180        33
40.190        20
40.200        13
40.210         7
40.220        33
40.230        33
40.240        47
40.250        53
40.260        20
40.270        27
40.280        60
40.290        27
40.300        13
40.310        40
40.320        27
40.330        33
40.340        20
40.350        33
40.360        40
40.370        33
40.380        13
40.390        27
40.400        13
40.410        27
40.420        20
40.430        20
40.440        27
40.450        40
40.460        40
40.470        27
40.480        33
40.490        27
40.500        20
40.510         0
40.520        33
40.530        13
40.540        47
40.550        33
40.560        20
40.570        40
40.580        33
40.590         7
40.600        20
40.610        20
40.620        27
40.630        13
40.640        33
40.650        53
40.660        20
40.670        20
40.680        47
40.690        20
40.700        40
40.710        20
40.720        20
40.730        33
40.740        27
40.750        40
40.760        13
40.770        20
40.780        20
40.790        27
40.800        13
40.810        27
40.820        27
40.830        20
40.840        27
40.850        27
40.860        40
40.870        20
40.880        20
40.890         7
40.900        27
40.910        47
40.920        20
40.930        20
40.940         7
40.950        40
40.960        13
40.970        33
40.980        13
40.990        53
41.000        33
41.010        27
41.020        27
41.030        33
41.040        40
41.050        27
41.060        33
41.070        20
41.080        27
41.090        27
41.100        27
41.110        13
41.120        13
41.130        20
41.140         7
41.150        27
41.160        53
41.170        13
41.180        20
41.190        13
41.200        20
41.210         7
41.220        40
41.230        20
41.240        27
41.250         7
41.260        13
41.270        33
41.280         0
41.290        33
41.300        13
41.310        13
41.320        20
41.330        27
41.340        27
41.350         7
41.360         7
41.370        33
41.380        20
41.390        13
41.400        20
41.410        20
41.420        47
41.430        27
41.440        27
41.450        53
41.460        20
41.470         7
41.480        33
41.490        33
41.500        27
41.510        40
41.520        33
41.530        80
41.540        53
41.550        40
41.560        53
41.570        67
41.580        20
41.590        60
41.600        53
41.610        80
41.620        80
41.630        73
41.640        93
41.650       147
41.660       153
41.670       173
41.680       233
41.690       173
41.700       207
41.710       233
41.720       267
41.730       300
41.740       227
41.750       187
41.760       233
41.770       107
41.780       173
41.790       147
41.800       140
41.810       147
41.820       167
41.830       167
41.840       127
41.850       113
41.860       107
41.870        80
41.880        93
41.890        47
41.900        40
41.910        47
41.920        20
41.930        60
41.940         0
41.950        27
41.960        13
41.970         7
41.980        13
41.990        33
42.000        33
42.010        27
42.020        27
42.030        53
42.040        20
42.050        27
42.060        27
42.070        27
42.080         7
42.090         0
42.100        20
42.110         7
42.120        33
42.130        13
42.140        40
42.150        33
42.160        20
42.170        27
42.180         7
42.190        33
42.200        60
42.210        13
42.220        60
42.230        13
42.240        27
42.250        20
42.260         7
42.270        20
42.280        33
42.290        47
42.300        13
42.310        13
42.320         0
42.330        20
42.340        33
42.350         7
42.360         7
42.370        27
42.380         7
42.390        27
42.400         7
42.410        33
42.420        20
42.430        13
42.440        33
42.450         7
42.460        40
42.470        27
42.480        13
42.490        27
42.500        47
42.510        20
42.520        27
42.530        40
42.540        27
42.550        33
42.560         7
42.570        27
42.580        27
42.590        40
42.600        27
42.610        20
42.620        20
42.630        33
42.640        27
42.650        20
42.660        13
42.670        13
42.680        13
42.690        13
42.700        13
42.710        13
42.720        20
42.730        27
42.740        20
42.750        13
42.760        27
42.770         7
42.780        20
42.790        27
42.800        20
42.810        27
42.820        40
42.830         7
42.840        13
42.850         0
42.860        27
42.870        13
42.880        13
42.890        13
42.900        33
42.910        13
42.920        40
42.930        13
42.940        20
42.950         7
42.960        27
42.970        13
42.980        20
42.990        20
43.000         0
43.010        60
43.020        20
43.030        20
43.040        33
43.050        27
43.060        13
43.070        13
43.080        33
43.090        20
43.100         7
43.110        33
43.120        27
43.130        13
43.140        20
43.150        20
43.160        53
43.170        20
43.180        40
43.190        27
43.200         7
43.210        60
43.220        20
43.230        27
43.240        40
43.250        27
43.260        13
43.270        53
43.280        40
43.290        67
43.300        47
43.310        73
43.320       107
43.330       120
43.340       140
43.350       133
43.360       147
43.370       147
43.380       153
43.390       147
43.400       133
43.410       133
43.420        73
43.430        80
43.440        67
43.450       100
43.460        60
43.470        40
43.480        73
43.490       100
43.500        87
43.510        93
43.520        93
43.530        33
43.540        80
43.550        40
43.560        40
43.570        33
43.580        27
43.590        40
43.600        20
43.610        20
43.620        20
43.630        27
43.640        20
43.650        20
43.660        20
43.670        13
43.680        27
43.690        47
43.700        27
43.710        13
43.720        20
43.730        20
43.740        27
43.750        33
43.760        33
43.770        13
43.780        13
43.790        20
43.800         7
43.810        20
43.820        40
43.830        13
43.840        27
43.850        33
43.860         7
43.870        33
43.880        20
43.890         7
43.900        40
43.910        20
43.920        20
43.930        27
43.940        27
43.950        27
43.960        27
43.970         0
43.980        67
43.990        13
44.000        27
44.010        20
44.020        20
44.030        33
44.040        20
44.050         0
44.060        13
44.070        20
44.080        27
44.090        13
44.100        33
44.110        20
44.120        20
44.130         7
44.140        33
44.150        27
44.160        20
44.170        33
44.180        27
44.190        27
44.200        13
44.210        27
44.220         7
44.230        33
44.240        27
44.250        33
44.260        40
44.270        13
44.280        33
44.290        13
44.300        20
44.310        20
44.320         7
44.330        13
44.340        20
44.350        53
44.360        40
44.370        47
44.380        33
44.390        60
44.400        20
44.410         7
44.420        20
44.430        33
44.440        13
44.450        20
44.460        13
44.470        33
44.480        13
44.490        20
44.500        27
44.510         7
44.520        67
44.530        40
44.540        20
44.550        27
44.560         7
44.570        40
44.580        40
44.590        40
44.600        20
44.610        33
44.620        33
44.630        60
44.640        40
44.650        53
44.660        73
44.670        27
44.680        27
44.690        33
44.700        47
44.710        13
44.720        27
44.730        47
44.740        40
44.750        27
44.760        27
44.770        73
44.780        53
44.790       100
44.800        53
44.810        20
44.820        27
44.830         7
44.840        47
44.850        60
44.860        27
44.870        53
44.880        40
44.890        53
44.900        73
44.910        53
44.920        40
44.930        73
44.940        47
44.950        40
44.960        53
44.970        27
44.980        33
44.990        53
45.000        67
45.010        27
45.020        60
45.030        27
45.040        60
45.050        27
45.060        27
45.070        53
45.080        53
45.090        40
45.100        53
45.110        60
45.120        47
45.130        47
45.140        47
45.150        33
45.160        33
45.170        67
45.180        27
45.190        27
45.200        20
45.210        33
45.220        13
45.230        60
45.240        13
45.250        33
45.260        33
45.270        40
45.280        33
45.290        20
45.300        33
45.310        67
45.320        20
45.330        33
45.340        13
45.350        27
45.360        33
45.370        20
45.380        47
45.390        53
45.400        33
45.410        33
45.420        73
45.430        27
45.440        53
45.450        53
45.460        33
45.470        27
45.480        53
45.490        33
45.500        33
45.510        33
45.520        33
45.530        53
45.540        60
45.550        40
45.560        27
45.570         0
45.580        40
45.590        13
45.600        27
45.610        47
45.620        20
45.630        40
45.640        53
45.650        33
45.660        67
45.670        73
45.680        27
45.690        40
45.700        87
45.710        53
45.720        47
45.730        93
45.740        73
45.750        40
45.760        47
45.770        80
45.780        20
45.790        67
45.800        67
45.810        60
45.820        73
45.830        40
45.840        53
45.850        53
45.860        67
45.870        67
45.880        53
45.890        67
45.900        67
45.910        67
45.920        53
45.930        73
45.940       100
45.950        53
45.960        93
45.970        60
45.980        53
45.990        73
46.000        67
46.010        53
46.020        47
46.030        73
46.040        47
46.050        80
46.060        40
46.070        60
46.080        33
46.090        53
46.100        20
46.110        53
46.120        80
46.130        33
46.140        53
46.150        13
46.160        33
46.170        47
46.180        40
46.190        40
46.200        67
46.210        60
46.220        27
46.230        40
46.240        13
46.250        60
46.260        27
46.270        27
46.280        60
46.290        33
46.300        40
46.310        27
46.320        20
46.330        40
46.340        33
46.350        67
46.360        20
46.370        13
46.380        27
46.390        20
46.400        47
46.410        40
46.420        20
46.430        27
46.440        40
46.450        60
46.460        20
46.470        27
46.480         7
46.490        20
46.500        20
46.510         7
46.520        13
46.530        13
46.540        27
46.550        27
46.560        27
46.570        20
46.580        13
46.590        27
46.600        27
46.610        20
46.620        20
46.630        27
46.640        40
46.650        13
46.660         7
46.670         7
46.680        33
46.690        40
46.700        33
46.710        27
46.720        27
46.730         0
46.740         0
46.750         7
46.760        53
46.770         7
46.780        27
46.790        27
46.800        13
46.810        47
46.820         7
46.830        27
46.840        13
46.850        13
46.860        33
46.870         7
46.880        40
46.890        33
46.900        20
46.910        33
46.920        33
46.930        20
46.940        13
46.950         7
46.960        27
46.970        33
46.980         7
46.990        27
47.000        20
47.010         7
47.020         7
47.030        20
47.040         0
47.050        20
47.060        27
47.070        20
47.080        20
47.090         7
47.100        20
47.110        13
47.120        40
47.130        13
47.140         7
47.150         0
47.160        27
47.170         7
47.180        13
47.190        20
47.200         7
47.210        13
47.220        20
47.230         7
47.240        20
47.250        27
47.260        20
47.270        20
47.280        27
47.290         7
47.300         7
47.310        13
47.320        13
47.330        20
47.340         0
47.350        20
47.360        13
47.370        33
47.380        20
47.390         0
47.400        13
47.410        20
47.420         7
47.430        20
47.440        20
47.450        13
47.460        27
47.470        20
47.480        27
47.490        40
47.500        13
47.510        13
47.520         0
47.530        20
47.540        33
47.550         7
47.560         7
47.570        13
47.580         0
47.590        20
47.600        20
47.610        20
47.620        27
47.630        27
47.640        20
47.650        40
47.660         7
47.670         7
47.680        20
47.690         7
47.700        20
47.710         0
47.720        20
47.730         7
47.740         7
47.750        20
47.760        27
47.770        33
47.780         7
47.790        20
47.800         7
47.810        13
47.820        13
47.830        13
47.840        33
47.850         7
47.860        27
47.870         7
47.880        13
47.890         0
47.900        13
47.910         7
47.920        20
47.930        13
47.940        27
47.950        40
47.960        13
47.970        20
47.980         0
47.990        20
48.000        27
48.010        27
48.020        40
48.030         0
48.040         7
48.050        13
48.060        13
48.070         0
48.080        13
48.090        20
48.100        13
48.110        20
48.120        27
48.130        20
48.140        27
48.150         7
48.160        13
48.170         7
48.180         0
48.190         0
48.200        20
48.210         7
48.220        20
48.230         0
48.240         7
48.250         0
48.260        13
48.270        13
48.280        27
48.290         7
48.300         7
48.310         0
48.320        13
48.330        33
48.340        13
48.350        20
48.360        33
48.370        13
48.380        13
48.390        13
48.400        13
48.410         7
48.420        27
48.430         0
48.440        27
48.450        13
48.460        13
48.470        20
48.480         7
48.490         7
48.500        13
48.510        20
48.520         0
48.530         7
48.540        33
48.550         7
48.560        27
48.570         7
48.580        20
48.590         7
48.600        20
48.610        33
48.620        13
48.630         7
48.640         7
48.650         0
48.660        13
48.670        13
48.680        40
48.690        20
48.700        13
48.710        13
48.720        27
48.730        20
48.740        33
48.750        20
48.760         0
48.770        13
48.780        27
48.790        13
48.800        13
48.810         7
48.820        13
48.830        13
48.840        33
48.850        20
48.860        20
48.870        47
48.880        13
48.890        20
48.900        27
48.910        13
48.920        20
48.930         7
48.940         7
48.950         7
48.960        27
48.970        20
48.980         0
48.990        33
49.000        27
49.010        33
49.020         7
49.030         7
49.040        13
49.050        27
49.060        13
49.070        20
49.080         7
49.090        20
49.100        20
49.110        20
49.120        20
49.130        20
49.140        13
49.150        13
49.160        20
49.170        13
49.180        20
49.190         7
49.200        13
49.210         7
49.220         0
49.230        27
49.240        13
49.250        20
49.260        20
49.270        20
49.280        20
49.290        20
49.300        20
49.310         7
49.320        13
49.330        33
49.340        27
49.350        13
49.360        33
49.370        27
49.380         7
49.390        13
49.400        20
49.410        27
49.420        27
49.430        20
49.440         7
49.450        13
49.460        13
49.470         7
49.480         7
49.490        13
49.500        33
49.510        33
49.520        20
49.530         0
49.540        40
49.550        20
49.560        13
49.570        40
49.580        20
49.590        33
49.600        33
49.610        13
49.620         7
49.630        13
49.640        27
49.650        20
49.660        20
49.670        20
49.680         0
49.690         0
49.700         0
49.710         0
49.720         7
49.730        20
49.740        27
49.750        13
49.760        20
49.770        13
49.780         0
49.790         0
49.800        33
49.810         7
49.820        13
49.830        27
49.840         7
49.850        27
49.860        13
49.870        53
49.880        13
49.890        13
49.900         7
49.910        20
49.920        13
49.930        20
49.940        27
49.950         7
49.960        13
49.970        13
49.980        20
49.990        13
50.000        13
50.010        13
50.020        20
50.030        13
50.040        27
50.050        13
50.060        20
50.070         7
50.080        27
50.090        20
50.100         7
50.110         7
50.120        13
50.130        33
50.140        40
50.150        33
50.160        20
50.170        13
50.180         7
50.190        20
50.200        27
50.210         7
50.220        13
50.230        40
50.240         7
50.250        47
50.260        27
50.270        13
50.280         7
50.290        13
50.300        20
50.310         7
50.320        13
50.330        27
50.340         7
50.350         7
50.360        20
50.370         7
50.380         0
50.390        13
50.400         7
50.410        13
50.420         0
50.430         7
50.440         0
50.450         7
50.460        20
50.470        33
50.480         7
50.490        20
50.500         7
50.510        33
50.520        20
50.530        33
50.540         7
50.550        20
50.560         0
50.570        20
50.580        27
50.590         0
50.600        40
50.610        13
50.620        13
50.630        13
50.640        27
50.650        33
50.660        20
50.670        20
50.680        20
50.690        13
50.700        13
50.710        13
50.720        53
50.730        20
50.740        33
50.750         7
50.760        20
50.770        27
50.780         0
50.790        27
50.800        13
50.810         0
50.820        27
50.830        27
50.840        33
50.850         7
50.860        13
50.870        13
50.880         7
50.890        13
50.900        27
50.910        20
50.920        13
50.930        13
50.940         0
50.950        20
50.960        20
50.970        20
50.980         0
50.990        13
51.000        13
51.010        13
51.020        27
51.030         7
51.040        27
51.050        20
51.060        33
51.070         7
51.080        27
51.090         7
51.100        40
51.110         7
51.120        27
51.130         0
51.140        33
51.150        33
51.160         7
51.170        27
51.180         7
51.190        13
51.200         0
51.210         7
51.220         7
51.230         7
51.240        13
51.250         7
51.260        27
51.270        20
51.280        13
51.290        13
51.300        27
51.310         0
51.320        13
51.330        13
51.340         0
51.350        20
51.360        13
51.370         7
51.380         7
51.390        27
51.400         7
51.410         7
51.420        27
51.430        13
51.440        20
51.450         7
51.460         7
51.470        20
51.480        20
51.490         0
51.500        20
51.510        27
51.520        13
51.530        33
51.540        33
51.550        13
51.560        20
51.570        20
51.580        13
51.590        27
51.600        13
51.610        20
51.620        27
51.630        13
51.640         7
51.650        13
51.660        13
51.670        13
51.680        13
51.690        27
51.700        27
51.710         0
51.720         7
51.730        20
51.740        13
51.750        33
51.760        13
51.770        13
51.780        20
51.790        13
51.800         7
51.810        20
51.820        47
51.830        40
51.840        20
51.850        13
51.860        20
51.870         7
51.880        27
51.890        27
51.900        27
51.910        20
51.920        13
51.930        27
51.940        13
51.950        13
51.960        33
51.970        13
51.980        20
51.990        20
52.000         7
52.010         7
52.020        27
52.030        27
52.040         0
52.050         0
52.060        33
52.070        13
52.080        20
52.090        27
52.100         7
52.110         7
52.120        13
52.130        20
52.140        27
52.150        27
52.160         7
52.170        20
52.180         7
52.190         0
52.200         7
52.210        13
52.220         7
52.230        27
52.240         7
52.250        27
52.260        20
52.270         0
52.280        20
52.290        40
52.300        40
52.310        13
52.320        20
52.330         0
52.340        40
52.350        13
52.360        27
52.370        20
52.380        20
52.390        20
52.400        27
52.410        33
52.420        47
52.430        53
52.440        60
52.450        40
52.460        40
52.470        33
52.480        40
52.490        27
52.500        27
52.510        53
52.520        40
52.530        47
52.540         7
52.550        47
52.560        53
52.570         7
52.580        13
52.590        53
52.600        67
52.610        53
52.620        40
52.630        67
52.640         7
52.650        47
52.660        33
52.670         7
52.680        33
52.690        20
52.700        27
52.710        27
52.720        20
52.730        27
52.740        13
52.750        20
52.760        20
52.770        20
52.780        13
52.790        20
52.800         7
52.810         7
52.820        33
52.830        13
52.840         7
52.850         7
52.860        13
52.870         7
52.880        20
52.890        33
52.900         7
52.910        13
52.920        13
52.930         7
52.940        13
52.950        20
52.960        13
52.970         0
52.980        13
52.990        20
53.000        20
53.010        13
53.020         7
53.030         7
53.040         0
53.050         7
53.060        33
53.070        53
53.080        20
53.090        13
53.100        20
53.110         7
53.120         7
53.130         7
53.140        13
53.150        27
53.160        20
53.170        13
53.180        13
53.190        13
53.200         7
53.210        27
53.220        27
53.230        13
53.240        13
53.250         0
53.260        20
53.270        27
53.280        13
53.290        13
53.300        13
53.310         7
53.320        13
53.330        20
53.340        33
53.350         0
53.360        13
53.370        27
53.380        20
53.390        20
53.400        33
53.410         7
53.420         7
53.430        27
53.440        20
53.450        20
53.460        27
53.470        20
53.480        27
53.490        13
53.500        27
53.510        13
53.520        20
53.530        20
53.540        20
53.550        27
53.560        27
53.570         7
53.580         7
53.590        20
53.600         0
53.610        13
53.620         7
53.630         0
53.640         7
53.650         7
53.660         7
53.670        20
53.680         7
53.690         7
53.700        13
53.710        20
53.720        13
53.730        13
53.740         7
53.750        20
53.760         7
53.770        13
53.780         0
53.790        13
53.800        13
53.810        27
53.820         7
53.830         7
53.840        13
53.850        27
53.860         7
53.870        13
53.880        13
53.890         7
53.900        27
53.910        13
53.920        13
53.930        27
53.940        13
53.950        13
53.960         7
53.970        13
53.980         7
53.990        13
54.000        13
54.010        33
54.020        13
54.030        20
54.040        27
54.050         0
54.060         0
54.070        20
54.080         7
54.090         0
54.100         7
54.110        27
54.120         7
54.130        27
54.140         7
54.150        33
54.160        13
54.170        27
54.180        20
54.190         0
54.200        20
54.210        27
54.220         7
54.230        27
54.240        20
54.250        20
54.260        13
54.270        13
54.280         0
54.290         0
54.300        33
54.310         7
54.320        20
54.330        13
54.340         7
54.350        13
54.360        27
54.370        13
54.380        20
54.390         0
54.400        13
54.410         7
54.420        20
54.430        33
54.440        13
54.450        20
54.460        33
54.470         0
54.480         0
54.490        20
54.500         7
54.510        13
54.520        20
54.530        33
54.540         0
54.550         7
54.560         0
54.570        13
54.580        20
54.590        33
54.600        13
54.610         7
54.620         7
54.630        27
54.640        13
54.650        13
54.660         0
54.670        33
54.680        20
54.690        20
54.700         0
54.710        13
54.720         7
54.730         7
54.740        13
54.750        20
54.760        27
54.770        20
54.780         7
54.790        20
54.800        13
54.810        13
54.820        27
54.830        13
54.840        27
54.850         7
54.860        13
54.870        33
54.880        27
54.890        13
54.900        13
54.910         0
54.920         0
54.930        20
54.940         0
54.950        40
54.960        20
54.970         7
54.980        13
54.990        13
55.000        13
55.010        20
55.020         7
55.030         7
55.040         7
55.050        20
55.060         7
55.070        13
55.080        13
55.090        20
55.100        20
55.110        20
55.120        20
55.130        13
55.140         0
55.150        20
55.160        20
55.170        33
55.180        27
55.190        13
55.200        13
55.210        27
55.220         7
55.230        13
55.240        40
55.250         7
55.260         7
55.270        33
55.280        13
55.290        13
55.300        13
55.310        27
55.320        13
55.330        20
55.340        13
55.350        33
55.360         0
55.370        13
55.380        53
55.390         7
55.400        13
55.410        27
55.420        27
55.430        13
55.440         7
55.450        33
55.460        20
55.470        20
55.480         7
55.490        20
55.500         7
55.510        13
55.520        13
55.530        13
55.540         7
55.550         7
55.560        20
55.570        20
55.580         7
55.590        27
55.600        27
55.610        27
55.620         7
55.630        13
55.640         7
55.650        33
55.660        20
55.670        27
55.680        40
55.690        13
55.700        13
55.710         7
55.720        13
55.730        13
55.740        27
55.750        13
55.760        27
55.770         0
55.780        13
55.790        53
55.800        33
55.810        27
55.820         7
55.830        27
55.840        20
55.850        33
55.860        40
55.870        13
55.880        33
55.890        13
55.900         0
55.910        27
55.920        27
55.930        20
55.940        33
55.950        33
55.960        40
55.970        33
55.980        40
55.990        27
56.000        27
56.010        47
56.020        27
56.030        27
56.040        40
56.050        20
56.060        27
56.070        27
56.080         7
56.090         7
56.100        13
56.110        27
56.120        27
56.130        13
56.140        20
56.150        20
56.160        20
56.170        27
56.180        20
56.190        27
56.200        13
56.210        20
56.220        33
56.230        20
56.240        27
56.250        13
56.260        27
56.270        27
56.280        33
56.290        33
56.300        27
56.310        27
56.320        40
56.330        27
56.340         7
56.350        13
56.360        20
56.370        27
56.380        27
56.390        27
56.400        13
56.410        27
56.420        33
56.430         0
56.440        27
56.450        40
56.460        27
56.470        33
56.480        20
56.490         7
56.500        13
56.510        33
56.520        27
56.530        13
56.540        33
56.550        53
56.560        40
56.570        20
56.580        27
56.590         0
56.600        20
56.610        33
56.620        20
56.630        33
56.640        13
56.650        33
56.660        33
56.670        20
56.680         7
56.690         0
56.700        33
56.710        20
56.720        20
56.730         0
56.740        13
56.750        20
56.760        20
56.770        27
56.780        13
56.790        27
56.800         7
56.810        13
56.820        13
56.830        20
56.840        33
56.850         7
56.860        20
56.870         0
56.880         7
56.890        20
56.900        20
56.910         7
56.920         7
56.930        47
56.940        27
56.950        40
56.960        13
56.970        20
56.980        13
56.990        20
57.000        20
57.010        13
57.020        27
57.030        33
57.040        40
57.050        20
57.060        20
57.070        33
57.080         7
57.090        33
57.100        27
57.110        20
57.120        20
57.130        27
57.140         7
57.150        20
57.160        20
57.170        40
57.180        27
57.190        13
57.200        27
57.210        47
57.220        13
57.230        33
57.240        20
57.250         7
57.260        33
57.270        73
57.280        33
57.290        27
57.300        20
57.310        60
57.320        47
57.330        27
57.340        27
57.350        53
57.360        20
57.370        53
57.380        27
57.390        47
57.400        40
57.410        47
57.420        33
57.430        33
57.440         7
57.450        40
57.460       107
57.470       100
57.480       167
57.490       153
57.500       153
57.510       227
57.520       207
57.530       160
57.540       207
57.550       193
57.560       167
57.570       107
57.580       147
57.590        40
57.600       107
57.610        53
57.620        40
57.630        47
57.640        60
57.650        67
57.660       100
57.670       113
57.680       113
57.690        87
57.700       107
57.710        47
57.720        60
57.730        60
57.740        40
57.750        33
57.760        40
57.770        47
57.780        33
57.790         0
57.800         7
57.810         0
57.820        13
57.830        13
57.840        13
57.850        13
57.860        13
57.870        13
57.880         0
57.890         7
57.900        27
57.910         7
57.920        27
57.930         7
57.940        20
57.950        13
57.960         0
57.970        27
57.980        13
57.990        13
58.000        20
58.010        20
58.020         7
58.030        13
58.040         0
58.050        47
58.060        13
58.070         7
58.080         7
58.090        13
58.100         7
58.110        27
58.120         7
58.130         7
58.140        20
58.150        13
58.160        13
58.170        20
58.180         7
58.190         7
58.200         7
58.210        13
58.220         0
58.230        13
58.240        13
58.250        13
58.260        40
58.270         7
58.280         0
58.290        20
58.300        20
58.310         7
58.320        20
58.330        33
58.340        20
58.350        40
58.360        13
58.370        27
58.380        13
58.390         0
58.400         7
58.410         0
58.420        20
58.430         7
58.440        20
58.450         0
58.460         7
58.470        13
58.480        40
58.490        20
58.500        27
58.510        20
58.520         7
58.530         7
58.540        27
58.550        13
58.560         0
58.570        13
58.580        13
58.590         7
58.600        20
58.610         7
58.620        27
58.630        20
58.640        13
58.650         0
58.660        13
58.670         7
58.680        13
58.690        13
58.700        13
58.710        20
58.720         0
58.730        13
58.740        13
58.750         7
58.760         0
58.770         0
58.780        13
58.790         7
58.800        20
58.810        20
58.820        13
58.830         0
58.840        20
58.850        27
58.860        20
58.870         7
58.880        20
58.890        13
58.900        13
58.910        20
58.920         7
58.930         7
58.940         7
58.950         0
58.960        27
58.970         7
58.980         7
58.990        20
59.000         7
59.010        20
59.020         0
59.030        27
59.040         7
59.050        13
59.060        20
59.070         7
59.080         0
59.090        13
59.100         0
59.110        20
59.120        33
59.130         7
59.140        20
59.150         7
59.160        20
59.170        13
59.180         0
59.190        20
59.200         0
59.210         0
59.220        13
59.230        13
59.240        20
59.250        13
59.260        13
59.270         7
59.280         0
59.290         0
59.300        27
59.310         7
59.320        33
59.330        20
59.340        13
59.350        13
59.360        47
59.370        20
59.380         7
59.390         0
59.400         7
59.410         0
59.420        13
59.430         7
59.440        20
59.450        33
59.460        20
59.470        13
59.480         0
59.490         7
59.500        13
59.510        13
59.520        20
59.530         0
59.540        27
59.550        20
59.560        27
59.570        13
59.580        27
59.590        13
59.600        20
59.610        13
59.620        20
59.630        13
59.640        20
59.650        27
59.660         7
59.670         0
59.680         7
59.690         7
59.700        20
59.710         0
59.720         7
59.730         7
59.740         0
59.750        20
59.760         0
59.770        13
59.780        27
59.790         7
59.800        13
59.810        33
59.820        33
59.830        33
59.840        47
59.850        33
59.860        20
59.870        20
59.880        20
59.890         0
59.900        40
59.910        20
59.920        13
59.930        20
59.940         7
59.950        27
59.960        13
59.970        20
59.980        13
59.990        27
60.000        13
