20.000        40
20.010        60
20.020        73
20.030        47
20.040        33
20.050        47
20.060        47
20.070        60
20.080        53
20.090        33
20.100        67
20.110        87
20.120        20
20.130        13
20.140        67
20.150        47
20.160        33
20.170        53
20.180        47
20.190        27
20.200        33
20.210        27
20.220        33
20.230        60
20.240        60
20.250        33
20.260        67
20.270        20
20.280        20
20.290        20
20.300        13
20.310        27
20.320        73
20.330         7
20.340        60
20.350        73
20.360        40
20.370        60
20.380        47
20.390        47
20.400        27
20.410        40
20.420        33
20.430        53
20.440        47
20.450        60
20.460        40
20.470        53
20.480        53
20.490        60
20.500        33
20.510        47
20.520        53
20.530        47
20.540        60
20.550        60
20.560        20
20.570        60
20.580        47
20.590        53
20.600       113
20.610        47
20.620        53
20.630        20
20.640        40
20.650        60
20.660        33
20.670        87
20.680        40
20.690        87
20.700        40
20.710        67
20.720        53
20.730        40
20.740        67
20.750        60
20.760        53
20.770        40
20.780        40
20.790        20
20.800        67
20.810        33
20.820        20
20.830        33
20.840        53
20.850        33
20.860        20
20.870        40
20.880        47
20.890        47
20.900        27
20.910        47
20.920        33
20.930        73
20.940        80
20.950        60
20.960        47
20.970        33
20.980        27
20.990        67
21.000        27
21.010        60
21.020        47
21.030        53
21.040        47
21.050        33
21.060        47
21.070        60
21.080        40
21.090        40
21.100        60
21.110        27
21.120        20
21.130        87
21.140        53
21.150        20
21.160        27
21.170        13
21.180        27
21.190        53
21.200        80
21.210        47
21.220        53
21.230        80
21.240        27
21.250        47
21.260        60
21.270        40
21.280         7
21.290        40
21.300        33
21.310        27
21.320        53
21.330        47
21.340        53
21.350        73
21.360        47
21.370        40
21.380        20
21.390        33
21.400        33
21.410        40
21.420        33
21.430        53
21.440        40
21.450        13
21.460        27
21.470        33
21.480        47
21.490        33
21.500        53
21.510        40
21.520        80
21.530        20
21.540        33
21.550        40
21.560        20
21.570        93
21.580        67
21.590        53
21.600        53
21.610        60
21.620        67
21.630        47
21.640        53
21.650        40
21.660        33
21.670        47
21.680        60
21.690        33
21.700        33
21.710        47
21.720        60
21.730        40
21.740        27
21.750        40
21.760        13
21.770        73
21.780        47
21.790        67
21.800        60
21.810        80
21.820        33
21.830        60
21.840        53
21.850        20
21.860        20
21.870        67
21.880        13
21.890        60
21.900        20
21.910        67
21.920        40
21.930        13
21.940        53
21.950        87
21.960        80
21.970        53
21.980        13
21.990        87
22.000        47
22.010         7
22.020        27
22.030        27
22.040        40
22.050        33
22.060        60
22.070        40
22.080        20
22.090        87
22.100       100
22.110        27
22.120        60
22.130        40
22.140        67
22.150        33
22.160        33
22.170        27
22.180        80
22.190        53
22.200        40
22.210        60
22.220        27
22.230        73
22.240        47
22.250        40
22.260        87
22.270       100
22.280        93
22.290       100
22.300        93
22.310        53
22.320        47
22.330        93
22.340        80
22.350        87
22.360       100
22.370        47
22.380       100
22.390        67
22.400        67
22.410       113
22.420       100
22.430        47
22.440        80
22.450        47
22.460        80
22.470        47
22.480        53
22.490        53
22.500       100
22.510        47
22.520        47
22.530        60
22.540        80
22.550        47
22.560        60
22.570        73
22.580        73
22.590        53
22.600        60
22.610        33
22.620        47
22.630        53
22.640        60
22.650        53
22.660        60
22.670        40
22.680        47
22.690        67
22.700        67
22.710        53
22.720        33
22.730        40
22.740        60
22.750        40
22.760        33
22.770        40
22.780        27
22.790        60
22.800        27
22.810        47
22.820        40
22.830        67
22.840        47
22.850        47
22.860        53
22.870        13
22.880        80
22.890        20
22.900        20
22.910        53
22.920        40
22.930        27
22.940        40
22.950        27
22.960        40
22.970        27
22.980        27
22.990        67
23.000        40
23.010        47
23.020        40
23.030        60
23.040        60
23.050        47
23.060        40
23.070        47
23.080        33
23.090        27
23.100        33
23.110        40
23.120        13
23.130        20
23.140        53
23.150        53
23.160        27
23.170        27
23.180        60
23.190        60
23.200        40
23.210        33
23.220        40
23.230        40
23.240        40
23.250        40
23.260        20
23.270        27
23.280        33
23.290        40
23.300        53
23.310        27
23.320        20
23.330        27
23.340        27
23.350        13
23.360        27
23.370        47
23.380        53
23.390        20
23.400        60
23.410        33
23.420        47
23.430        53
23.440        67
23.450        27
23.460        67
23.470        47
23.480        33
23.490        47
23.500        93
23.510        47
23.520        13
23.530        20
23.540        20
23.550        60
23.560        27
23.570        60
23.580        27
23.590        33
23.600        47
23.610        53
23.620        47
23.630        33
23.640        40
23.650        47
23.660        27
23.670        27
23.680        47
23.690        80
23.700        20
23.710        60
23.720        47
23.730        40
23.740        13
23.750        33
23.760        53
23.770        20
23.780        47
23.790        33
23.800        27
23.810        33
23.820         0
23.830        40
23.840        40
23.850        13
23.860        60
23.870        53
23.880        20
23.890        47
23.900        20
23.910        20
23.920        60
23.930        40
23.940        40
23.950        40
23.960        40
23.970        20
23.980        53
23.990        67
24.000        27
24.010        33
24.020        53
24.030        13
24.040        53
24.050        33
24.060        20
24.070        53
24.080        53
24.090        53
24.100        60
24.110        47
24.120        20
24.130        47
24.140        40
24.150        67
24.160        73
24.170        53
24.180        27
24.190        47
24.200        33
24.210        60
24.220        13
24.230        47
24.240        33
24.250        60
24.260        20
24.270        53
24.280        27
24.290        27
24.300        20
24.310        33
24.320        13
24.330        33
24.340        53
24.350        73
24.360        40
24.370        47
24.380        20
24.390        40
24.400         7
24.410        27
24.420        40
24.430        20
24.440        20
24.450        40
24.460        73
24.470        33
24.480        27
24.490         7
24.500        20
24.510        20
24.520        40
24.530        13
24.540        33
24.550        27
24.560        53
24.570        40
24.580        13
24.590        20
24.600        47
24.610        53
24.620        13
24.630        27
24.640        33
24.650        20
24.660        33
24.670        53
24.680        27
24.690        27
24.700        27
24.710        33
24.720        27
24.730        73
24.740        47
24.750        27
24.760        53
24.770        27
24.780        40
24.790        27
24.800        53
24.810        33
24.820        40
24.830        40
24.840        60
24.850        73
24.860        40
24.870        13
24.880        20
24.890        27
24.900        53
24.910        33
24.920        33
24.930        13
24.940        20
24.950        20
24.960        20
24.970        13
24.980        27
24.990        13
25.000        33
25.010        27
25.020        40
25.030        27
25.040        27
25.050        27
25.060        60
25.070        27
25.080        20
25.090         0
25.100        27
25.110        20
25.120        27
25.130        33
25.140        27
25.150        53
25.160        53
25.170        27
25.180        33
25.190        40
25.200        27
25.210        20
25.220        60
25.230        33
25.240        13
25.250        47
25.260        60
25.270        47
25.280        47
25.290        20
25.300        13
25.310        40
25.320        47
25.330        73
25.340        53
25.350        20
25.360        53
25.370        73
25.380        27
25.390        27
25.400        33
25.410        40
25.420        13
25.430        20
25.440        13
25.450        33
25.460        47
25.470        60
25.480        40
25.490        20
25.500        47
25.510        33
25.520        40
25.530        67
25.540        80
25.550        40
25.560       133
25.570        67
25.580        67
25.590        73
25.600        67
25.610        73
25.620        73
25.630        93
25.640        53
25.650        53
25.660        53
25.670        53
25.680        47
25.690        47
25.700        47
25.710        33
25.720        13
25.730        53
25.740        40
25.750        40
25.760        27
25.770        13
25.780        33
25.790        33
25.800        40
25.810        13
25.820        20
25.830        20
25.840        87
25.850        73
25.860        27
25.870        13
25.880        53
25.890        40
25.900        80
25.910        20
25.920         7
25.930        47
25.940        60
25.950        47
25.960        27
25.970        20
25.980        13
25.990        33
26.000        47
26.010        27
26.020        40
26.030        33
26.040        33
26.050        33
26.060        27
26.070        47
26.080        13
26.090        73
26.100        33
26.110        20
26.120        53
26.130        40
26.140        33
26.150        20
26.160        20
26.170        67
26.180        40
26.190        40
26.200        33
26.210        27
26.220        27
26.230        20
26.240        27
26.250        33
26.260        27
26.270        13
26.280        13
26.290        27
26.300        27
26.310        40
26.320        53
26.330        47
26.340        33
26.350        40
26.360        20
26.370        40
26.380        47
26.390        27
26.400        33
26.410        53
26.420        13
26.430        40
26.440        27
26.450        53
26.460        33
26.470        20
26.480        40
26.490        53
26.500        33
26.510        40
26.520        27
26.530        13
26.540        40
26.550        33
26.560        13
26.570        33
26.580        47
26.590        60
26.600        20
26.610        27
26.620        20
26.630        20
26.640        40
26.650        40
26.660        47
26.670        20
26.680        60
26.690        47
26.700        20
26.710        27
26.720        20
26.730        33
26.740        13
26.750        47
26.760        27
26.770        40
26.780        27
26.790        33
26.800        33
26.810         7
26.820        40
26.830        27
26.840        33
26.850        27
26.860        27
26.870        73
26.880        60
26.890        47
26.900        33
26.910        33
26.920        20
26.930        47
26.940        40
26.950        47
26.960        53
26.970        33
26.980        40
26.990        33
27.000        40
27.010         7
27.020        53
27.030        33
27.040        27
27.050        53
27.060        33
27.070        27
27.080        20
27.090        27
27.100        27
27.110        13
27.120        27
27.130        20
27.140        53
27.150        53
27.160        47
27.170        60
27.180        13
27.190        20
27.200        60
27.210        27
27.220        40
27.230        27
27.240        27
27.250        47
27.260        20
27.270        20
27.280        33
27.290        53
27.300        40
27.310        33
27.320        40
27.330        27
27.340        40
27.350        60
27.360        27
27.370        53
27.380        13
27.390         7
27.400        47
27.410        27
27.420        40
27.430        20
27.440        27
27.450        20
27.460        20
27.470         0
27.480        27
27.490        27
27.500        27
27.510        33
27.520        53
27.530        40
27.540        33
27.550        40
27.560        40
27.570        27
27.580        33
27.590         7
27.600        40
27.610        20
27.620        47
27.630        60
27.640        40
27.650        53
27.660        33
27.670        40
27.680        27
27.690        40
27.700        47
27.710        20
27.720        33
27.730        27
27.740        33
27.750        80
27.760        27
27.770        13
27.780        47
27.790        27
27.800        53
27.810        47
27.820        33
27.830        27
27.840        27
27.850        20
27.860        40
27.870         7
27.880        27
27.890        47
27.900        40
27.910        47
27.920        40
27.930        33
27.940        53
27.950        27
27.960        40
27.970        27
27.980        40
27.990         7
28.000        27
28.010        33
28.020        40
28.030        13
28.040        13
28.050        53
28.060        47
28.070        47
28.080        53
28.090        47
28.100        33
28.110        13
28.120        20
28.130        20
28.140        33
28.150        20
28.160        27
28.170        27
28.180        20
28.190        13
28.200        20
28.210        13
28.220        13
28.230        53
28.240         7
28.250         7
28.260        40
28.270         7
28.280        47
28.290        20
28.300        13
28.310        33
28.320        20
28.330        27
28.340        60
28.350        13
28.360        13
28.370        33
28.380        33
28.390        27
28.400        47
28.410        27
28.420        40
28.430        33
28.440        40
28.450         7
28.460        60
28.470        20
28.480        33
28.490        20
28.500        47
28.510        13
28.520        33
28.530         0
28.540        40
28.550        33
28.560        27
28.570        40
28.580        53
28.590        40
28.600        53
28.610        33
28.620        47
28.630        87
28.640        33
28.650        40
28.660        40
28.670        40
28.680        20
28.690        33
28.700        27
28.710        13
28.720        60
28.730        20
28.740        27
28.750        40
28.760        47
28.770        27
28.780         7
28.790        13
28.800        33
28.810        13
28.820        13
28.830        27
28.840        27
28.850        47
28.860        33
28.870        33
28.880        47
28.890        13
28.900        20
28.910        20
28.920        60
28.930        20
28.940        27
28.950        27
28.960        40
28.970        47
28.980        33
28.990        27
29.000        27
29.010        27
29.020        33
29.030        27
29.040        47
29.050        33
29.060        20
29.070        33
29.080        20
29.090        33
29.100        53
29.110        73
29.120        33
29.130        53
29.140        20
29.150        27
29.160        20
29.170        13
29.180        27
29.190        27
29.200        40
29.210         0
29.220        27
29.230         7
29.240         7
29.250        13
29.260        33
29.270        13
29.280        33
29.290        47
29.300        20
29.310        33
29.320        47
29.330        27
29.340        20
29.350        60
29.360        40
29.370        40
29.380        20
29.390        47
29.400        20
29.410        40
29.420        20
29.430        67
29.440        53
29.450        40
29.460        13
29.470        53
29.480        33
29.490        33
29.500        40
29.510        40
29.520        60
29.530        33
29.540         7
29.550        60
29.560        47
29.570        27
29.580        40
29.590        40
29.600        47
29.610        47
29.620        40
29.630        53
29.640        27
29.650        27
29.660        20
29.670        40
29.680        33
29.690        33
29.700        40
29.710        47
29.720        27
29.730        40
29.740        33
29.750        27
29.760        20
29.770        33
29.780        33
29.790        47
29.800        27
29.810        27
29.820        20
29.830        67
29.840        20
29.850        13
29.860        20
29.870        33
29.880        33
29.890        20
29.900        27
29.910        13
29.920        27
29.930        53
29.940        33
29.950        27
29.960        27
29.970        40
29.980        53
29.990         7
30.000        13
30.010        27
30.020        47
30.030        27
30.040        27
30.050        40
30.060         7
30.070        33
30.080        27
30.090        33
30.100        40
30.110        20
30.120        20
30.130        27
30.140        13
30.150        53
30.160        27
30.170        27
30.180        33
30.190        47
30.200        40
30.210        60
30.220        33
30.230        67
30.240        27
30.250        87
30.260         7
30.270        27
30.280        40
30.290        20
30.300         7
30.310        20
30.320        20
30.330        33
30.340        13
30.350        33
30.360        13
30.370        47
30.380        27
30.390         0
30.400        27
30.410        40
30.420        20
30.430        27
30.440        27
30.450        20
30.460        27
30.470        40
30.480        27
30.490        27
30.500        33
30.510        27
30.520        40
30.530        20
30.540        33
30.550         0
30.560        53
30.570        20
30.580         7
30.590        13
30.600        40
30.610        40
30.620        33
30.630        27
30.640        27
30.650        47
30.660        27
30.670         7
30.680        20
30.690        27
30.700        40
30.710        20
30.720        13
30.730        27
30.740        40
30.750        20
30.760        47
30.770        20
30.780        13
30.790        13
30.800        53
30.810        20
30.820        47
30.830        67
30.840        27
30.850        27
30.860        27
30.870        40
30.880        40
30.890        33
30.900        13
30.910        27
30.920        27
30.930        47
30.940        20
30.950        20
30.960        33
30.970        20
30.980        13
30.990        40
31.000        40
31.010        20
31.020        40
31.030        67
31.040        33
31.050        13
31.060        20
31.070        13
31.080        20
31.090        20
31.100        47
31.110        40
31.120        40
31.130        53
31.140        33
31.150        20
31.160        33
31.170        40
31.180        40
31.190        33
31.200        33
31.210        27
31.220        27
31.230        33
31.240        20
31.250        27
31.260        40
31.270        60
31.280        53
31.290        40
31.300        53
31.310        20
31.320        33
31.330        33
31.340        67
31.350        67
31.360        80
31.370        47
31.380        13
31.390        47
31.400        60
31.410        27
31.420        47
31.430        20
31.440        33
31.450        40
31.460        53
31.470        73
31.480        67
31.490        40
31.500        80
31.510        40
31.520        33
31.530        67
31.540        47
31.550       107
31.560        73
31.570        60
31.580        93
31.590        33
31.600        87
31.610        67
31.620       147
31.630        93
31.640       120
31.650       120
31.660       113
31.670       107
31.680       127
31.690       100
31.700       100
31.710       113
31.720        87
31.730       133
31.740       133
31.750       167
31.760       100
31.770       200
31.780       140
31.790       133
31.800       160
31.810       160
31.820       233
31.830       187
31.840       180
31.850       220
31.860       180
31.870       160
31.880       247
31.890       260
31.900       233
31.910       140
31.920       187
31.930       187
31.940       220
31.950       233
31.960       207
31.970       147
31.980       193
31.990       173
32.000       147
32.010       127
32.020       100
32.030       140
32.040       133
32.050        60
32.060       107
32.070       100
32.080       153
32.090        60
32.100        60
32.110        67
32.120        53
32.130        93
32.140        33
32.150        73
32.160        53
32.170        60
32.180        40
32.190        47
32.200        27
32.210        53
32.220        40
32.230        47
32.240        27
32.250        47
32.260        33
32.270        53
32.280        20
32.290        33
32.300        47
32.310        47
32.320        27
32.330        40
32.340        53
32.350        20
32.360        47
32.370        53
32.380        47
32.390        27
32.400        27
32.410        80
32.420        40
32.430         7
32.440        13
32.450        13
32.460        33
32.470        40
32.480        13
32.490        33
32.500        33
32.510        40
32.520        20
32.530        47
32.540        40
32.550        20
32.560       100
32.570        13
32.580        47
32.590        40
32.600        20
32.610        33
32.620        47
32.630        27
32.640        47
32.650        60
32.660        27
32.670        40
32.680        27
32.690         7
32.700        13
32.710        33
32.720        33
32.730        40
32.740        20
32.750        53
32.760        33
32.770        13
32.780        47
32.790        20
32.800        20
32.810        33
32.820        33
32.830        33
32.840        40
32.850        13
32.860        33
32.870        20
32.880        33
32.890        33
32.900        20
32.910        53
32.920        33
32.930        27
32.940         7
32.950        40
32.960        20
32.970        33
32.980        33
32.990        40
33.000         7
33.010        33
33.020        20
33.030        20
33.040        20
33.050        27
33.060        13
33.070        20
33.080        27
33.090        13
33.100        13
33.110        40
33.120        27
33.130        27
33.140        73
33.150        33
33.160         7
33.170        53
33.180        20
33.190        33
33.200        20
33.210        13
33.220        53
33.230        47
33.240        40
33.250        33
33.260        20
33.270        27
33.280        40
33.290        53
33.300        13
33.310        13
33.320        27
33.330        40
33.340        13
33.350        33
33.360        20
33.370        13
33.380        27
33.390        20
33.400        40
33.410        47
33.420        27
33.430        40
33.440        27
33.450        33
33.460        40
33.470        27
33.480        20
33.490        27
33.500        33
33.510        60
33.520        53
33.530        27
33.540        33
33.550        40
33.560        53
33.570         7
33.580        13
33.590        53
33.600        20
33.610        27
33.620        33
33.630        20
33.640        47
33.650        27
33.660        27
33.670        20
33.680        33
33.690        13
33.700        47
33.710        47
33.720        20
33.730        33
33.740        13
33.750        40
33.760        20
33.770        27
33.780        20
33.790        13
33.800         0
33.810        20
33.820        27
33.830        13
33.840        27
33.850        53
33.860        47
33.870        33
33.880        13
33.890        13
33.900        33
33.910        47
33.920        20
33.930        53
33.940        27
33.950        20
33.960        60
33.970        20
33.980        33
33.990        27
34.000         0
34.010        40
34.020        33
34.030        20
34.040        20
34.050        80
34.060        20
34.070        20
34.080        20
34.090        13
34.100        40
34.110        27
34.120        27
34.130        27
34.140        27
34.150        27
34.160        20
34.170         7
34.180        20
34.190        20
34.200        13
34.210        13
34.220        27
34.230        40
34.240        47
34.250        20
34.260        20
34.270        20
34.280        27
34.290        20
34.300        13
34.310        27
34.320        27
34.330        33
34.340        27
34.350         7
34.360         0
34.370         0
34.380        33
34.390        13
34.400        13
34.410        27
34.420        27
34.430        33
34.440        33
34.450        33
34.460        33
34.470        40
34.480        40
34.490        27
34.500        20
34.510        13
34.520        47
34.530        13
34.540        33
34.550        20
34.560        27
34.570        33
34.580        13
34.590        40
34.600        40
34.610        27
34.620        20
34.630        40
34.640         0
34.650        27
34.660        27
34.670        33
34.680        20
34.690        27
34.700        27
34.710        33
34.720        40
34.730        40
34.740        27
34.750        47
34.760        33
34.770        33
34.780        40
34.790         7
34.800        53
34.810        20
34.820        27
34.830        33
34.840        20
34.850        27
34.860         7
34.870        53
34.880        33
34.890        27
34.900        33
34.910        33
34.920        60
34.930        40
34.940        53
34.950        33
34.960        13
34.970        60
34.980        20
34.990        20
35.000        27
35.010        53
35.020        47
35.030        40
35.040        87
35.050        60
35.060        33
35.070        47
35.080        93
35.090        87
35.100        60
35.110       167
35.120       187
35.130       160
35.140       260
35.150       267
35.160       260
35.170       153
35.180       160
35.190       147
35.200       120
35.210       140
35.220       193
35.230       140
35.240       113
35.250       153
35.260        93
35.270        60
35.280        67
35.290        93
35.300        33
35.310        20
35.320        27
35.330        60
35.340        47
35.350        47
35.360        20
35.370        67
35.380        80
35.390        40
35.400        40
35.410        27
35.420        20
35.430        27
35.440        27
35.450        33
35.460        53
35.470        13
35.480        33
35.490        20
35.500        13
35.510        33
35.520         7
35.530        33
35.540        27
35.550        53
35.560        60
35.570         0
35.580        20
35.590         7
35.600         0
35.610        27
35.620        13
35.630        33
35.640        33
35.650        33
35.660        13
35.670        47
35.680        40
35.690        40
35.700        13
35.710        27
35.720        13
35.730        13
35.740        20
35.750         7
35.760        33
35.770         7
35.780         7
35.790        13
35.800         7
35.810        47
35.820         7
35.830        33
35.840        20
35.850        40
35.860        47
35.870        20
35.880        20
35.890        33
35.900        13
35.910        13
35.920        20
35.930         7
35.940        73
35.950        33
35.960        13
35.970        27
35.980        13
35.990         7
36.000        47
36.010        20
36.020        20
36.030        27
36.040        33
36.050        40
36.060        53
36.070         0
36.080        13
36.090        33
36.100        27
36.110        13
36.120        13
36.130        33
36.140         7
36.150        67
36.160        47
36.170        20
36.180        27
36.190        27
36.200        13
36.210        33
36.220        13
36.230        67
36.240        13
36.250        27
36.260         0
36.270        47
36.280        47
36.290        20
36.300        13
36.310        13
36.320         7
36.330        33
36.340        33
36.350        33
36.360        33
36.370        47
36.380        20
36.390        27
36.400        27
36.410        40
36.420         7
36.430        53
36.440        40
36.450        27
36.460        27
36.470        27
36.480        20
36.490        20
36.500        13
36.510        20
36.520         7
36.530        20
36.540        60
36.550        47
36.560        13
36.570        27
36.580        33
36.590        27
36.600        20
36.610        27
36.620        13
36.630        27
36.640        13
36.650        33
36.660        33
36.670        20
36.680        40
36.690         0
36.700        13
36.710        40
36.720        27
36.730        27
36.740        40
36.750        20
36.760        20
36.770        40
36.780        40
36.790        40
36.800        20
36.810        67
36.820        13
36.830        20
36.840        27
36.850        33
36.860         7
36.870        33
36.880        13
36.890        33
36.900        20
36.910        20
36.920        33
36.930        53
36.940        40
36.950        40
36.960         0
36.970        27
36.980        27
36.990         7
37.000        33
37.010        27
37.020        27
37.030        20
37.040        27
37.050        40
37.060         0
37.070        13
37.080        40
37.090        40
37.100        33
37.110        40
37.120         0
37.130         7
37.140        27
37.150        33
37.160         7
37.170        27
37.180        40
37.190        20
37.200        33
37.210        13
37.220         7
37.230         7
37.240         7
37.250        40
37.260        13
37.270        27
37.280        13
37.290         0
37.300        33
37.310         7
37.320        20
37.330         7
37.340        33
37.350        40
37.360        47
37.370         0
37.380        53
37.390        27
37.400         7
37.410        40
37.420        20
37.430         7
37.440        27
37.450        47
37.460        20
37.470        40
37.480        60
37.490        27
37.500        33
37.510        13
37.520        27
37.530        40
37.540         0
37.550        40
37.560        47
37.570        20
37.580        40
37.590        27
37.600        33
37.610        33
37.620        53
37.630        33
37.640        40
37.650        27
37.660        20
37.670        53
37.680        13
37.690        33
37.700        53
37.710        33
37.720        40
37.730        53
37.740        60
37.750        40
37.760        80
37.770       113
37.780       167
37.790       207
37.800       253
37.810       220
37.820       147
37.830       127
37.840       180
37.850        47
37.860        60
37.870       147
37.880       127
37.890       107
37.900        87
37.910       140
37.920       100
37.930       120
37.940        60
37.950        60
37.960        60
37.970        13
37.980        20
37.990        20
38.000        13
38.010        27
38.020        40
38.030        33
38.040        20
38.050        27
38.060        27
38.070        40
38.080        27
38.090        27
38.100        27
38.110        33
38.120        33
38.130        20
38.140        27
38.150         0
38.160        13
38.170        20
38.180        33
38.190         0
38.200        33
38.210        27
38.220         7
38.230        60
38.240        33
38.250        20
38.260        13
38.270        13
38.280         7
38.290        13
38.300        20
38.310        20
38.320        27
38.330        33
38.340        20
38.350        27
38.360        33
38.370        33
38.380        27
38.390         7
38.400        27
38.410        20
38.420        13
38.430        27
38.440         7
38.450         0
38.460        33
38.470        20
38.480        13
38.490         7
38.500        20
38.510        13
38.520        27
38.530        40
38.540        33
38.550        27
38.560        27
38.570        20
38.580        27
38.590        13
38.600        33
38.610        27
38.620        27
38.630        13
38.640        20
38.650        13
38.660        27
38.670         7
38.680        20
38.690        27
38.700        73
38.710        20
38.720        27
38.730        20
38.740        27
38.750        40
38.760        27
38.770        13
38.780         7
38.790        27
38.800         7
38.810        27
38.820        53
38.830         7
38.840        13
38.850        40
38.860        47
38.870         0
38.880        53
38.890        40
38.900        33
38.910        20
38.920        13
38.930        33
38.940        27
38.950        13
38.960        13
38.970        53
38.980        27
38.990        13
39.000        27
39.010        60
39.020        20
39.030        47
39.040        33
39.050        33
39.060        40
39.070        40
39.080        33
39.090        40
39.100        27
39.110         7
39.120        20
39.130        20
39.140        60
39.150        27
39.160        33
39.170        47
39.180        27
39.190        33
39.200        20
39.210        20
39.220        47
39.230        20
39.240        33
39.250        53
39.260        73
39.270        80
39.280        40
39.290        73
39.300        87
39.310        80
39.320        80
39.330        87
39.340       100
39.350       113
39.360        87
39.370        93
39.380       133
39.390       207
39.400        93
39.410       127
39.420        93
39.430       107
39.440       133
39.450       107
39.460       133
39.470       147
39.480       107
39.490       113
39.500       133
39.510        80
39.520        53
39.530        93
39.540        33
39.550        60
39.560        73
39.570        47
39.580        67
39.590        73
39.600        47
39.610        53
39.620        47
39.630        33
39.640        73
39.650        40
39.660        27
39.670        53
39.680        33
39.690        20
39.700        33
39.710        27
39.720        33
39.730        53
39.740        27
39.750        20
39.760        27
39.770        13
39.780        13
39.790        13
39.800        20
39.810        20
39.820         7
39.830        27
39.840        27
39.850        47
39.860        60
39.870        53
39.880        27
39.890         7
39.900        27
39.910        33
39.920        20
39.930        47
39.940        13
39.950        27
39.960        20
39.970        40
39.980        53
39.990        13
40.000         7
40.010        20
40.020        53
40.030        33
40.040        20
40.050        27
40.060        40
40.070        33
40.080        13
40.090        33
40.100        27
40.110        20
40.120         7
40.130        33
40.140        27
40.150        20
40.160        20
40.170        20
40.180        13
40.190        13
40.200        27
40.210        33
40.220        33
40.230        20
40.240         0
40.250        20
40.260        20
40.270         0
40.280        27
40.290        20
40.300        13
40.310        27
40.320        13
40.330        20
40.340        13
40.350        27
40.360        27
40.370        53
40.380        47
40.390        13
40.400        33
40.410        20
40.420        13
40.430        27
40.440        33
40.450        20
40.460        20
40.470        13
40.480         7
40.490        27
40.500        33
40.510         7
40.520         7
40.530         7
40.540         7
40.550        27
40.560        33
40.570        47
40.580        27
40.590        40
40.600        13
40.610         7
40.620        33
40.630        13
40.640        20
40.650         7
40.660        73
40.670        33
40.680        40
40.690        20
40.700        27
40.710        33
40.720         7
40.730        33
40.740        33
40.750        20
40.760         0
40.770        20
40.780        20
40.790         0
40.800        13
40.810        20
40.820        47
40.830        13
40.840        13
40.850        20
40.860        20
40.870        13
40.880        20
40.890        33
40.900        33
40.910        33
40.920        27
40.930        13
40.940        20
40.950        20
40.960        13
40.970        27
40.980         7
40.990        33
41.000        47
41.010        33
41.020        20
41.030        20
41.040        13
41.050        33
41.060        20
41.070        27
41.080        40
41.090        40
41.100         7
41.110        13
41.120        13
41.130        13
41.140        13
41.150         7
41.160        40
41.170         0
41.180        27
41.190        27
41.200        20
41.210        13
41.220         0
41.230         7
41.240         0
41.250        20
41.260        20
41.270        40
41.280        20
41.290        33
41.300        13
41.310        27
41.320        20
41.330        13
41.340        20
41.350        13
41.360        33
41.370        33
41.380        33
41.390        27
41.400        13
41.410        27
41.420        27
41.430        47
41.440        47
41.450        33
41.460        60
41.470        27
41.480        47
41.490        20
41.500        27
41.510        20
41.520        20
41.530        40
41.540        27
41.550        53
41.560        73
41.570        53
41.580        40
41.590        40
41.600        60
41.610        87
41.620        87
41.630        93
41.640       107
41.650       180
41.660        93
41.670       127
41.680       193
41.690       233
41.700       267
41.710       147
41.720       133
41.730       140
41.740        87
41.750        87
41.760        93
41.770       147
41.780        87
41.790       100
41.800        73
41.810       107
41.820        80
41.830        60
41.840        53
41.850        27
41.860        80
41.870        33
41.880        33
41.890        20
41.900         7
41.910        60
41.920        27
41.930        33
41.940         7
41.950        20
41.960        27
41.970        20
41.980         7
41.990        27
42.000        20
42.010        13
42.020        27
42.030        20
42.040        20
42.050        13
42.060         7
42.070        13
42.080        20
42.090        13
42.100        27
42.110         7
42.120        33
42.130        27
42.140        20
42.150        33
42.160        20
42.170        20
42.180        53
42.190        33
42.200        20
42.210        20
42.220        33
42.230        13
42.240        33
42.250         7
42.260        33
42.270        33
42.280        40
42.290        47
42.300        27
42.310        27
42.320        27
42.330        20
42.340        20
42.350        27
42.360        13
42.370        20
42.380        40
42.390        27
42.400        40
42.410         0
42.420        33
42.430        27
42.440        27
42.450        20
42.460        27
42.470        27
42.480        13
42.490        53
42.500        20
42.510        13
42.520        13
42.530         7
42.540        20
42.550        20
42.560        13
42.570        20
42.580        33
42.590         7
42.600         7
42.610        20
42.620        20
42.630        53
42.640        73
42.650        40
42.660        27
42.670        20
42.680        40
42.690        13
42.700        33
42.710        33
42.720         7
42.730        27
42.740        20
42.750         7
42.760        20
42.770        47
42.780        13
42.790         7
42.800        27
42.810         7
42.820        33
42.830        33
42.840        20
42.850        40
42.860        13
42.870        20
42.880        20
42.890        20
42.900        13
42.910         7
42.920        40
42.930        20
42.940        40
42.950         0
42.960         7
42.970        33
42.980        13
42.990        20
43.000        13
43.010         7
43.020        20
43.030        20
43.040        33
43.050        13
43.060        20
43.070        13
43.080        33
43.090        40
43.100        40
43.110        40
43.120        27
43.130        53
43.140         7
43.150        53
43.160        47
43.170        53
43.180        40
43.190        33
43.200        33
43.210        87
43.220        20
43.230        33
43.240        27
43.250        60
43.260        53
43.270        13
43.280        67
43.290        60
43.300        53
43.310        27
43.320        67
43.330       127
43.340        87
43.350        60
43.360        80
43.370        93
43.380        87
43.390        73
43.400       120
43.410        67
43.420        60
43.430        20
43.440        27
43.450        47
43.460        33
43.470        53
43.480        27
43.490        53
43.500        53
43.510        27
43.520        40
43.530        27
43.540         7
43.550        47
43.560        13
43.570        33
43.580        27
43.590         7
43.600        47
43.610        33
43.620        33
43.630        33
43.640        20
43.650        13
43.660        27
43.670        20
43.680        20
43.690        13
43.700         0
43.710        40
43.720        20
43.730         0
43.740        33
43.750        27
43.760        27
43.770        13
43.780        27
43.790         7
43.800        40
43.810        13
43.820        13
43.830        13
43.840        13
43.850        27
43.860        13
43.870        27
43.880        13
43.890        20
43.900         7
43.910        13
43.920        47
43.930        33
43.940         7
43.950        33
43.960        27
43.970        13
43.980        20
43.990         7
44.000         7
44.010        20
44.020         0
44.030        27
44.040        53
44.050        13
44.060         7
44.070         0
44.080        27
44.090        53
44.100        20
44.110         0
44.120        20
44.130        20
44.140        27
44.150         0
44.160        33
44.170        27
44.180        20
44.190        33
44.200        40
44.210        33
44.220        20
44.230        20
44.240        27
44.250        13
44.260        27
44.270        13
44.280        20
44.290        27
44.300        20
44.310        13
44.320        20
44.330         7
44.340         0
44.350        33
44.360        13
44.370        13
44.380        33
44.390        13
44.400         7
44.410        40
44.420         0
44.430        33
44.440         7
44.450        27
44.460        13
44.470         7
44.480        13
44.490         0
44.500        47
44.510        20
44.520        13
44.530        13
44.540        20
44.550        27
44.560        20
44.570        20
44.580        27
44.590        27
44.600        20
44.610        13
44.620        27
44.630         7
44.640        40
44.650        20
44.660        27
44.670        33
44.680        20
44.690        33
44.700         7
44.710        20
44.720        27
44.730        13
44.740         0
44.750        27
44.760        20
44.770         7
44.780        27
44.790        27
44.800         0
44.810        27
44.820        20
44.830        27
44.840        40
44.850        27
44.860        33
44.870        13
44.880        27
44.890        47
44.900        40
44.910        47
44.920         7
44.930         7
44.940        13
44.950         0
44.960        47
44.970        20
44.980        13
44.990        13
45.000        40
45.010        20
45.020        20
45.030        20
45.040         7
45.050        27
45.060        13
45.070        13
45.080        20
45.090        33
45.100        33
45.110        13
45.120        13
45.130        20
45.140         7
45.150        20
45.160        33
45.170        33
45.180        13
45.190        20
45.200        20
45.210        33
45.220         0
45.230        53
45.240        20
45.250        20
45.260        47
45.270        33
45.280        40
45.290        40
45.300        67
45.310        20
45.320         7
45.330        33
45.340        40
45.350        47
45.360        20
45.370        33
45.380        27
45.390        60
45.400        27
45.410        73
45.420        40
45.430        53
45.440        47
45.450        73
45.460        80
45.470        53
45.480        47
45.490        47
45.500        60
45.510        87
45.520        40
45.530        33
45.540        60
45.550        67
45.560        93
45.570        47
45.580        53
45.590        87
45.600       100
45.610        67
45.620        93
45.630       127
45.640       100
45.650        80
45.660       107
45.670        60
45.680       120
45.690       100
45.700        93
45.710        73
45.720        87
45.730        73
45.740        93
45.750       107
45.760        80
45.770        73
45.780        53
45.790       100
45.800        67
45.810       133
45.820        67
45.830        73
45.840        87
45.850       100
45.860        67
45.870       100
45.880        87
45.890        40
45.900        27
45.910        67
45.920        53
45.930        53
45.940        80
45.950        60
45.960        40
45.970        67
45.980        20
45.990        40
46.000        73
46.010        27
46.020        27
46.030        13
46.040        47
46.050        67
46.060        33
46.070        27
46.080        33
46.090        53
46.100        47
46.110         7
46.120        27
46.130        40
46.140        20
46.150        53
46.160        27
46.170        33
46.180        33
46.190        47
46.200        27
46.210        20
46.220        47
46.230        20
46.240        33
46.250        13
46.260        13
46.270        40
46.280        20
46.290        20
46.300        20
46.310        33
46.320         0
46.330        27
46.340        27
46.350        27
46.360        20
46.370        47
46.380         7
46.390        13
46.400         7
46.410        20
46.420        33
46.430        20
46.440        27
46.450        20
46.460        27
46.470        27
46.480        27
46.490         7
46.500        27
46.510        20
46.520        27
46.530        20
46.540         0
46.550        20
46.560        13
46.570        13
46.580         0
46.590        13
46.600        13
46.610         7
46.620        13
46.630        47
46.640         7
46.650        20
46.660        33
46.670        33
46.680        27
46.690        13
46.700        27
46.710        13
46.720        13
46.730        20
46.740        13
46.750        20
46.760        27
46.770         7
46.780        13
46.790        33
46.800        27
46.810        33
46.820        27
46.830        13
46.840        13
46.850        33
46.860        13
46.870        20
46.880        20
46.890         7
46.900        27
46.910        20
46.920        13
46.930         0
46.940        20
46.950         7
46.960        40
46.970        20
46.980        20
46.990        27
47.000         7
47.010         7
47.020        40
47.030        13
47.040        27
47.050        13
47.060        20
47.070        13
47.080        27
47.090        13
47.100        20
47.110         7
47.120        20
47.130        20
47.140         7
47.150        13
47.160        40
47.170         7
47.180        27
47.190        27
47.200        13
47.210        20
47.220        20
47.230        13
47.240        33
47.250        13
47.260        47
47.270        13
47.280        20
47.290        13
47.300        47
47.310        20
47.320         7
47.330        47
47.340        33
47.350        27
47.360        20
47.370        27
47.380        13
47.390         7
47.400        27
47.410        40
47.420        13
47.430        27
47.440        13
47.450         0
47.460         7
47.470         7
47.480        20
47.490         7
47.500         7
47.510        33
47.520         7
47.530         7
47.540        13
47.550        20
47.560        33
47.570         7
47.580        13
47.590         0
47.600        20
47.610        33
47.620         7
47.630        13
47.640        20
47.650        13
47.660        13
47.670        20
47.680         7
47.690        33
47.700        33
47.710        33
47.720        20
47.730         0
47.740        40
47.750        20
47.760        20
47.770         0
47.780        27
47.790        13
47.800        40
47.810        20
47.820        20
47.830        20
47.840        13
47.850        20
47.860        13
47.870        13
47.880        13
47.890         7
47.900        27
47.910        33
47.920        13
47.930        13
47.940        27
47.950        27
47.960        27
47.970        13
47.980        27
47.990         7
48.000        40
48.010         7
48.020        27
48.030        13
48.040        13
48.050        13
48.060        20
48.070         7
48.080        13
48.090         7
48.100         7
48.110         0
48.120        20
48.130        20
48.140         7
48.150        40
48.160        13
48.170        53
48.180        47
48.190         0
48.200        13
48.210        20
48.220         7
48.230        47
48.240        13
48.250        27
48.260        27
48.270        20
48.280        33
48.290        27
48.300        27
48.310         7
48.320        73
48.330        20
48.340        13
48.350        13
48.360        20
48.370        27
48.380         0
48.390        13
48.400        27
48.410        13
48.420        13
48.430        40
48.440        27
48.450         0
48.460         7
48.470        13
48.480        13
48.490        27
48.500         7
48.510        13
48.520        27
48.530        13
48.540        20
48.550        13
48.560        20
48.570        20
48.580        27
48.590        13
48.600        13
48.610         0
48.620         0
48.630        13
48.640        20
48.650        20
48.660        20
48.670         7
48.680         0
48.690        13
48.700        27
48.710        13
48.720         0
48.730        27
48.740        27
48.750        40
48.760        13
48.770        13
48.780        13
48.790        13
48.800         7
48.810         0
48.820        13
48.830        20
48.840        20
48.850        13
48.860         7
48.870        13
48.880        27
48.890        13
48.900        27
48.910         7
48.920        20
48.930        20
48.940         7
48.950        27
48.960        20
48.970        20
48.980         0
48.990        20
49.000         0
49.010        13
49.020        20
49.030         7
49.040        27
49.050        13
49.060        27
49.070        20
49.080        20
49.090        33
49.100        27
49.110        27
49.120        20
49.130        20
49.140         7
49.150        27
49.160        13
49.170         7
49.180        13
49.190        33
49.200         7
49.210        27
49.220         7
49.230        27
49.240        27
49.250        47
49.260        20
49.270        13
49.280        27
49.290        27
49.300        20
49.310        20
49.320        13
49.330         7
49.340         7
49.350        13
49.360        20
49.370         0
49.380        20
49.390        13
49.400        27
49.410         7
49.420        33
49.430        13
49.440        20
49.450         0
49.460        13
49.470         7
49.480        20
49.490        13
49.500        13
49.510        27
49.520        33
49.530        27
49.540        13
49.550        27
49.560        13
49.570        27
49.580        13
49.590         0
49.600        33
49.610         7
49.620        20
49.630         0
49.640        20
49.650        20
49.660        13
49.670         7
49.680        13
49.690        27
49.700        20
49.710        27
49.720        27
49.730        20
49.740        13
49.750        27
49.760        20
49.770        13
49.780        13
49.790        13
49.800        27
49.810        13
49.820         7
49.830        20
49.840        13
49.850        27
49.860        20
49.870        20
49.880        20
49.890        20
49.900        20
49.910        33
49.920        13
49.930         7
49.940        13
49.950        33
49.960        13
49.970         7
49.980        27
49.990        20
50.000        20
50.010         0
50.020        33
50.030        20
50.040        13
50.050        13
50.060         7
50.070         7
50.080        20
50.090         7
50.100        13
50.110         7
50.120        20
50.130        27
50.140         0
50.150        20
50.160         7
50.170        13
50.180        13
50.190         7
50.200         7
50.210        40
50.220         0
50.230        27
50.240        40
50.250        13
50.260        40
50.270         0
50.280        13
50.290        13
50.300         7
50.310        20
50.320         7
50.330        20
50.340        13
50.350        13
50.360        33
50.370         0
50.380        13
50.390        13
50.400        27
50.410         7
50.420        20
50.430        13
50.440        20
50.450        27
50.460         0
50.470         0
50.480        40
50.490        27
50.500         7
50.510        20
50.520        20
50.530        13
50.540        27
50.550        13
50.560        13
50.570        40
50.580        13
50.590        13
50.600        13
50.610        13
50.620        13
50.630        20
50.640        13
50.650        20
50.660        20
50.670        13
50.680        20
50.690        33
50.700         7
50.710        13
50.720         7
50.730        13
50.740        27
50.750        33
50.760        27
50.770        13
50.780        20
50.790        13
50.800        20
50.810        27
50.820        20
50.830         7
50.840        20
50.850        20
50.860        13
50.870        13
50.880        13
50.890         7
50.900        13
50.910        20
50.920        40
50.930         7
50.940        20
50.950         0
50.960         7
50.970        33
50.980         0
50.990        13
51.000        13
51.010        40
51.020        33
51.030        20
51.040        53
51.050        27
51.060        13
51.070        27
51.080        13
51.090         0
51.100         7
51.110        20
51.120        13
51.130        20
51.140        13
51.150         0
51.160        27
51.170         0
51.180        13
51.190        33
51.200        20
51.210        20
51.220         7
51.230         7
51.240        13
51.250        27
51.260        33
51.270        40
51.280        20
51.290        13
51.300         7
51.310        13
51.320        20
51.330        20
51.340        27
51.350         0
51.360        13
51.370         0
51.380        13
51.390        20
51.400        13
51.410        13
51.420         0
51.430        27
51.440        13
51.450        13
51.460         7
51.470        33
51.480        13
51.490        20
51.500        13
51.510        33
51.520        47
51.530         7
51.540        13
51.550        27
51.560         7
51.570        13
51.580        40
51.590         7
51.600         7
51.610        13
51.620         7
51.630         7
51.640        33
51.650        20
51.660        13
51.670        13
51.680        13
51.690         0
51.700        40
51.710        33
51.720         7
51.730         7
51.740        20
51.750         0
51.760         7
51.770        33
51.780        20
51.790        20
51.800        20
51.810        20
51.820        27
51.830        13
51.840         0
51.850        20
51.860        27
51.870        13
51.880        20
51.890        13
51.900        40
51.910        13
51.920        20
51.930        13
51.940        20
51.950         0
51.960        27
51.970        33
51.980        13
51.990        27
52.000        33
52.010         0
52.020        40
52.030        13
52.040        20
52.050        20
52.060        27
52.070        13
52.080        13
52.090        27
52.100        20
52.110         0
52.120        13
52.130        13
52.140         7
52.150        33
52.160         7
52.170        20
52.180         7
52.190         7
52.200        27
52.210        40
52.220         7
52.230        20
52.240         7
52.250        13
52.260        13
52.270        40
52.280        27
52.290        33
52.300        13
52.310        20
52.320        33
52.330        20
52.340         7
52.350         7
52.360        13
52.370        33
52.380         7
52.390        13
52.400        13
52.410        20
52.420        13
52.430        13
52.440        13
52.450        20
52.460        13
52.470        27
52.480        20
52.490        27
52.500        47
52.510        13
52.520        40
52.530        53
52.540        33
52.550        27
52.560        47
52.570        80
52.580        27
52.590        33
52.600        47
52.610        27
52.620        60
52.630        40
52.640        13
52.650        33
52.660        20
52.670         7
52.680        33
52.690         7
52.700        27
52.710        27
52.720        13
52.730        67
52.740        27
52.750        20
52.760        27
52.770        20
52.780         7
52.790        33
52.800        20
52.810        33
52.820        20
52.830         7
52.840        47
52.850         7
52.860         0
52.870        13
52.880        13
52.890        27
52.900         7
52.910        27
52.920        33
52.930        27
52.940         0
52.950        40
52.960        20
52.970        13
52.980         0
52.990        13
53.000        33
53.010         0
53.020        13
53.030         7
53.040        20
53.050         7
53.060         7
53.070        27
53.080         0
53.090        13
53.100         0
53.110        13
53.120        20
53.130         0
53.140        13
53.150         7
53.160         7
53.170         0
53.180        20
53.190        27
53.200        13
53.210        27
53.220        13
53.230        27
53.240         7
53.250        20
53.260         0
53.270         0
53.280         7
53.290        20
53.300        20
53.310         7
53.320         7
53.330        20
53.340        27
53.350        13
53.360         7
53.370        40
53.380        47
53.390         0
53.400        40
53.410        20
53.420        13
53.430         7
53.440         7
53.450        20
53.460        27
53.470        20
53.480         0
53.490         7
53.500        33
53.510         7
53.520         7
53.530         7
53.540         0
53.550         7
53.560         7
53.570        13
53.580         7
53.590        27
53.600         7
53.610        27
53.620         0
53.630         7
53.640         7
53.650        13
53.660        20
53.670        27
53.680        13
53.690        20
53.700        13
53.710        40
53.720        13
53.730         7
53.740        20
53.750         7
53.760        27
53.770        13
53.780        13
53.790        13
53.800        13
53.810         7
53.820         7
53.830         7
53.840        13
53.850        20
53.860        27
53.870        20
53.880        27
53.890        40
53.900        13
53.910        20
53.920         7
53.930        27
53.940         7
53.950         7
53.960        13
53.970        27
53.980         7
53.990        20
54.000         0
54.010         7
54.020        20
54.030         0
54.040        13
54.050        13
54.060         0
54.070        13
54.080        13
54.090        13
54.100        20
54.110        13
54.120        20
54.130         7
54.140        20
54.150        20
54.160         7
54.170        40
54.180        20
54.190        13
54.200        13
54.210         0
54.220         7
54.230         7
54.240        20
54.250         0
54.260         7
54.270         7
54.280        20
54.290         7
54.300         0
54.310        27
54.320        20
54.330        13
54.340        20
54.350        20
54.360         0
54.370         7
54.380         7
54.390         0
54.400         7
54.410         7
54.420        20
54.430        13
54.440        20
54.450        13
54.460        40
54.470        27
54.480         7
54.490        13
54.500         7
54.510        13
54.520        13
54.530         7
54.540        20
54.550        13
54.560        13
54.570         7
54.580        33
54.590         0
54.600        20
54.610        27
54.620        13
54.630        20
54.640         7
54.650        13
54.660         7
54.670        20
54.680         7
54.690        13
54.700         0
54.710        13
54.720        47
54.730        20
54.740        13
54.750         7
54.760        13
54.770        33
54.780        20
54.790        20
54.800        13
54.810        27
54.820        13
54.830        13
54.840        13
54.850        13
54.860        20
54.870        13
54.880         7
54.890         7
54.900        20
54.910         7
54.920        13
54.930         7
54.940        33
54.950         7
54.960         0
54.970        20
54.980        20
54.990         0
55.000         7
55.010         7
55.020         7
55.030        13
55.040        13
55.050        20
55.060        13
55.070        27
55.080        13
55.090         0
55.100        20
55.110        33
55.120        20
55.130         0
55.140        20
55.150        13
55.160        13
55.170        13
55.180        27
55.190        20
55.200         7
55.210        20
55.220        13
55.230        20
55.240        27
55.250        13
55.260        20
55.270        13
55.280        27
55.290         7
55.300        13
55.310        27
55.320         7
55.330        20
55.340         7
55.350         7
55.360        20
55.370        27
55.380        13
55.390        27
55.400        13
55.410        13
55.420        13
55.430         0
55.440         0
55.450        27
55.460        13
55.470         0
55.480        13
55.490        20
55.500        13
55.510         7
55.520        40
55.530         7
55.540        13
55.550        13
55.560        20
55.570        13
55.580        20
55.590        13
55.600         7
55.610        13
55.620        27
55.630        20
55.640        27
55.650        20
55.660         7
55.670        13
55.680         7
55.690        20
55.700         7
55.710         7
55.720        20
55.730        13
55.740        20
55.750        13
55.760        40
55.770        40
55.780        47
55.790         0
55.800        33
55.810        20
55.820        20
55.830        13
55.840        33
55.850        13
55.860         7
55.870        13
55.880         7
55.890         7
55.900         7
55.910        33
55.920         7
55.930        40
55.940        53
55.950         7
55.960        20
55.970        13
55.980         7
55.990        27
56.000        13
56.010        13
56.020        40
56.030        13
56.040         0
56.050        20
56.060        20
56.070        20
56.080        27
56.090        27
56.100        13
56.110        33
56.120         7
56.130         7
56.140        33
56.150        13
56.160        13
56.170        20
56.180        27
56.190        53
56.200        13
56.210        13
56.220        13
56.230        20
56.240        20
56.250         7
56.260         0
56.270         0
56.280        13
56.290         7
56.300        13
56.310        20
56.320        13
56.330         0
56.340        20
56.350        27
56.360        33
56.370        33
56.380        27
56.390        20
56.400        47
56.410        33
56.420        20
56.430        40
56.440        27
56.450        13
56.460        20
56.470        20
56.480        33
56.490        40
56.500         7
56.510        60
56.520        27
56.530        27
56.540        27
56.550        53
56.560        27
56.570        27
56.580        53
56.590        33
56.600        60
56.610        60
56.620        53
56.630        40
56.640        33
56.650        60
56.660        40
56.670       127
56.680        80
56.690        47
56.700        73
56.710       120
56.720        93
56.730       147
56.740       140
56.750       133
56.760        73
56.770       193
56.780       220
56.790       160
56.800       220
56.810       173
56.820       147
56.830       173
56.840       133
56.850       153
56.860       200
56.870       147
56.880       173
56.890       160
56.900       160
56.910       187
56.920       167
56.930       107
56.940       160
56.950       173
56.960       160
56.970       173
56.980       113
56.990       180
57.000        93
57.010       140
57.020       120
57.030       107
57.040       127
57.050        80
57.060       107
57.070        47
57.080       107
57.090       107
57.100        60
57.110        67
57.120        93
57.130        53
57.140       100
57.150        40
57.160        73
57.170        40
57.180        47
57.190        60
57.200        47
57.210        27
57.220        27
57.230        40
57.240        47
57.250        47
57.260        33
57.270        27
57.280        33
57.290        27
57.300        53
57.310        67
57.320        27
57.330        47
57.340        60
57.350        47
57.360        60
57.370        60
57.380        27
57.390        47
57.400        60
57.410        80
57.420        67
57.430        80
57.440       107
57.450        93
57.460       160
57.470       227
57.480       247
57.490       247
57.500       347
57.510       453
57.520       307
57.530       333
57.540       333
57.550       300
57.560       193
57.570       160
57.580        60
57.590       153
57.600       133
57.610       107
57.620        80
57.630       113
57.640       167
57.650       160
57.660       167
57.670       167
57.680       173
57.690       173
57.700       153
57.710       153
57.720        67
57.730        60
57.740        53
57.750        27
57.760        33
57.770        27
57.780         7
57.790        27
57.800        47
57.810        33
57.820        13
57.830        13
57.840        27
57.850        20
57.860        20
57.870        20
57.880        27
57.890        27
57.900        20
57.910        20
57.920        13
57.930        40
57.940        33
57.950        13
57.960        13
57.970        33
57.980        20
57.990         0
58.000        27
58.010        13
58.020        20
58.030        20
58.040        27
58.050         7
58.060        20
58.070        13
58.080         7
58.090        33
58.100         7
58.110        20
58.120         0
58.130        20
58.140         7
58.150        40
58.160        13
58.170         7
58.180        13
58.190         0
58.200        27
58.210        13
58.220         7
58.230        13
58.240        20
58.250        20
58.260        20
58.270        20
58.280        20
58.290         7
58.300        33
58.310        20
58.320        20
58.330         7
58.340        13
58.350        20
58.360        33
58.370         7
58.380        27
58.390         0
58.400        40
58.410        13
58.420        33
58.430        13
58.440        13
58.450        27
58.460         0
58.470        13
58.480        27
58.490        13
58.500         7
58.510        13
58.520        13
58.530        13
58.540         7
58.550        20
58.560         7
58.570         7
58.580        27
58.590        27
58.600        13
58.610        20
58.620        27
58.630         7
58.640         7
58.650        13
58.660         0
58.670         0
58.680         7
58.690        13
58.700        20
58.710         0
58.720         7
58.730        13
58.740         0
58.750        13
58.760         0
58.770        13
58.780        27
58.790        20
58.800        20
58.810         0
58.820        13
58.830        13
58.840        53
58.850        13
58.860        33
58.870        20
58.880        13
58.890        13
58.900        20
58.910         7
58.920         0
58.930         7
58.940         7
58.950        27
58.960        20
58.970        20
58.980        27
58.990        13
59.000         7
59.010        20
59.020         7
59.030        13
59.040        13
59.050         7
59.060         7
59.070         7
59.080         7
59.090        20
59.100        13
59.110         7
59.120        27
59.130        27
59.140        13
59.150        40
59.160        13
59.170        20
59.180         7
59.190         7
59.200        20
59.210        27
59.220        13
59.230         7
59.240         7
59.250        20
59.260         7
59.270         7
59.280        27
59.290        13
59.300        27
59.310        13
59.320        33
59.330         0
59.340         7
59.350        20
59.360        27
59.370        27
59.380        20
59.390        33
59.400        27
59.410        20
59.420        13
59.430        27
59.440        13
59.450        27
59.460        20
59.470        20
59.480         7
59.490        27
59.500         0
59.510        20
59.520        13
59.530        33
59.540        33
59.550        13
59.560        27
59.570        13
59.580        13
59.590        13
59.600        33
59.610        13
59.620        33
59.630         0
59.640         7
59.650         0
59.660        20
59.670        13
59.680        47
59.690         0
59.700        33
59.710        33
59.720         7
59.730         7
59.740        27
59.750        20
59.760        13
59.770        33
59.780        20
59.790        20
59.800        33
59.810         7
59.820        27
59.830        13
59.840        20
59.850         7
59.860        33
59.870        13
59.880        20
59.890         0
59.900        27
59.910        20
59.920         7
59.930        27
59.940        20
59.950        20
59.960        27
59.970         7
59.980        13
59.990         0
60.000         0
