20.000        40
20.010        40
20.020        47
20.030        47
20.040        67
20.050        67
20.060        60
20.070        73
20.080        47
20.090        60
20.100        47
20.110        33
20.120        13
20.130        40
20.140        53
20.150        27
20.160        53
20.170        13
20.180        40
20.190        60
20.200        47
20.210        53
20.220        27
20.230        33
20.240        33
20.250        33
20.260        40
20.270        33
20.280        40
20.290        47
20.300        40
20.310        53
20.320        67
20.330        33
20.340        53
20.350        40
20.360        53
20.370        40
20.380        53
20.390        73
20.400        27
20.410        20
20.420        47
20.430        40
20.440        33
20.450        40
20.460        47
20.470        60
20.480        47
20.490        53
20.500        40
20.510        53
20.520        40
20.530       100
20.540        53
20.550        20
20.560        53
20.570        47
20.580        27
20.590        47
20.600        47
20.610        27
20.620        47
20.630        33
20.640        27
20.650        13
20.660        47
20.670        13
20.680        60
20.690        73
20.700        67
20.710        40
20.720        40
20.730        53
20.740        27
20.750        27
20.760        33
20.770        73
20.780        27
20.790        33
20.800        40
20.810        67
20.820        67
20.830        20
20.840        40
20.850        47
20.860        13
20.870        60
20.880        27
20.890        67
20.900        33
20.910        20
20.920        47
20.930        47
20.940        40
20.950        73
20.960        33
20.970        47
20.980        53
20.990        33
21.000        40
21.010        27
21.020        27
21.030        40
21.040        60
21.050        67
21.060        40
21.070        67
21.080        53
21.090        27
21.100        60
21.110        20
21.120        40
21.130        53
21.140        40
21.150        73
21.160        33
21.170        53
21.180        33
21.190        60
21.200        67
21.210        47
21.220        20
21.230        20
21.240        53
21.250        33
21.260        53
21.270        33
21.280        80
21.290        40
21.300        47
21.310        47
21.320        53
21.330        33
21.340        47
21.350        47
21.360        33
21.370        33
21.380        53
21.390        53
21.400        47
21.410        53
21.420        80
21.430        40
21.440        40
21.450        33
21.460        40
21.470        40
21.480        73
21.490        20
21.500        40
21.510        20
21.520        60
21.530        53
21.540        60
21.550        80
21.560        60
21.570        40
21.580        33
21.590        60
21.600        40
21.610        67
21.620        73
21.630        33
21.640        40
21.650        33
21.660        67
21.670        80
21.680        40
21.690        67
21.700        47
21.710        60
21.720        53
21.730        27
21.740        53
21.750        40
21.760        27
21.770        53
21.780        47
21.790        33
21.800        60
21.810        33
21.820        27
21.830        27
21.840        60
21.850        47
21.860        20
21.870        47
21.880        40
21.890        67
21.900        47
21.910        67
21.920        33
21.930        73
21.940        33
21.950        80
21.960        40
21.970        40
21.980        53
21.990        40
22.000        27
22.010        27
22.020        40
22.030        47
22.040        40
22.050        67
22.060        87
22.070        60
22.080        47
22.090        60
22.100        33
22.110        40
22.120        67
22.130        60
22.140        87
22.150        80
22.160        33
22.170        33
22.180        60
22.190        87
22.200        40
22.210        53
22.220        80
22.230        87
22.240        80
22.250        67
22.260        67
22.270        80
22.280        67
22.290        80
22.300        93
22.310        53
22.320        60
22.330        80
22.340        73
22.350       107
22.360        73
22.370       127
22.380        73
22.390       133
22.400       187
22.410       193
22.420       180
22.430       220
22.440       187
22.450       213
22.460       160
22.470       180
22.480       227
22.490       233
22.500       240
22.510       160
22.520       187
22.530       173
22.540       140
22.550       113
22.560       167
22.570       160
22.580        93
22.590       133
22.600       120
22.610        87
22.620        87
22.630        73
22.640        73
22.650        33
22.660        53
22.670        47
22.680        27
22.690        53
22.700        47
22.710        53
22.720        60
22.730        40
22.740        27
22.750        20
22.760        60
22.770        67
22.780        27
22.790        27
22.800        53
22.810        33
22.820        27
22.830        47
22.840        27
22.850        27
22.860        60
22.870        13
22.880        53
22.890        67
22.900        33
22.910        60
22.920        73
22.930        47
22.940        27
22.950        33
22.960        47
22.970        40
22.980        47
22.990        33
23.000        60
23.010        87
23.020        47
23.030        40
23.040        33
23.050        60
23.060        20
23.070        47
23.080        53
23.090        40
23.100        47
23.110        33
23.120        20
23.130        40
23.140        27
23.150        33
23.160        73
23.170        47
23.180        47
23.190        60
23.200        67
23.210        60
23.220        47
23.230        40
23.240        40
23.250        33
23.260        60
23.270        60
23.280        53
23.290        40
23.300        13
23.310        60
23.320        53
23.330        47
23.340        33
23.350        33
23.360        20
23.370        53
23.380        40
23.390        47
23.400         7
23.410        60
23.420        60
23.430        53
23.440        13
23.450        47
23.460        33
23.470        33
23.480        47
23.490        27
23.500        53
23.510        27
23.520        20
23.530        20
23.540        40
23.550        13
23.560        20
23.570        40
23.580        47
23.590        27
23.600        40
23.610        40
23.620        73
23.630        40
23.640        27
23.650        27
23.660        40
23.670        53
23.680        53
23.690        27
23.700        33
23.710        60
23.720        27
23.730        27
23.740        40
23.750        33
23.760        47
23.770        13
23.780        27
23.790        40
23.800        47
23.810         7
23.820        47
23.830        47
23.840        20
23.850        33
23.860        47
23.870        13
23.880        40
23.890        27
23.900        47
23.910        60
23.920        40
23.930        27
23.940        53
23.950        60
23.960        47
23.970        60
23.980        47
23.990        33
24.000        60
24.010        27
24.020        73
24.030        53
24.040        40
24.050        33
24.060        53
24.070        47
24.080        33
24.090        20
24.100        27
24.110        27
24.120        13
24.130        47
24.140        27
24.150        33
24.160        67
24.170        13
24.180        53
24.190        53
24.200        53
24.210        47
24.220        27
24.230        27
24.240        40
24.250        20
24.260        33
24.270        27
24.280        47
24.290        47
24.300         7
24.310        20
24.320        33
24.330        20
24.340        27
24.350        33
24.360        33
24.370        60
24.380        27
24.390        27
24.400        27
24.410        47
24.420        40
24.430        47
24.440        27
24.450        33
24.460        47
24.470        53
24.480        40
24.490        33
24.500        40
24.510        47
24.520        47
24.530        53
24.540        27
24.550        53
24.560        47
24.570        40
24.580        33
24.590        33
24.600        33
24.610        40
24.620        67
24.630        27
24.640        40
24.650        60
24.660        47
24.670        33
24.680        60
24.690        13
24.700        60
24.710        27
24.720        67
24.730        20
24.740        40
24.750        67
24.760        47
24.770        27
24.780        40
24.790        27
24.800        20
24.810        47
24.820        27
24.830        20
24.840        13
24.850        47
24.860        27
24.870        73
24.880        47
24.890        73
24.900         7
24.910        13
24.920        53
24.930         7
24.940        33
24.950        40
24.960         7
24.970        27
24.980        47
24.990        47
25.000        27
25.010        33
25.020        53
25.030        47
25.040        33
25.050        40
25.060        47
25.070        40
25.080        33
25.090        53
25.100        40
25.110        27
25.120        40
25.130        47
25.140        20
25.150        40
25.160        87
25.170        27
25.180        53
25.190        13
25.200        27
25.210        47
25.220        60
25.230         7
25.240        40
25.250        27
25.260        13
25.270        13
25.280        40
25.290        40
25.300        27
25.310        13
25.320        27
25.330        20
25.340        60
25.350        27
25.360        60
25.370        27
25.380        27
25.390        27
25.400        47
25.410        20
25.420        33
25.430        47
25.440        60
25.450        60
25.460        13
25.470        53
25.480        27
25.490        20
25.500        20
25.510        40
25.520        27
25.530        27
25.540        60
25.550        47
25.560        53
25.570        93
25.580       147
25.590       147
25.600        87
25.610       120
25.620       127
25.630       147
25.640       120
25.650       100
25.660       127
25.670        73
25.680        73
25.690        53
25.700        53
25.710        73
25.720        40
25.730        40
25.740        13
25.750        40
25.760        27
25.770        40
25.780        20
25.790        20
25.800        33
25.810        40
25.820        60
25.830        40
25.840        47
25.850        47
25.860        40
25.870        40
25.880        67
25.890        20
25.900        33
25.910        40
25.920        33
25.930        20
25.940        33
25.950        27
25.960        33
25.970        47
25.980        47
25.990        33
26.000        40
26.010        27
26.020        27
26.030        20
26.040        27
26.050        53
26.060        27
26.070        40
26.080        40
26.090        40
26.100        33
26.110        33
26.120        20
26.130        27
26.140        40
26.150        20
26.160        33
26.170        20
26.180        13
26.190        33
26.200        33
26.210        27
26.220        13
26.230        47
26.240        20
26.250        53
26.260        27
26.270        13
26.280         0
26.290        20
26.300        20
26.310        33
26.320        47
26.330         7
26.340        33
26.350        20
26.360        27
26.370        20
26.380        20
26.390        33
26.400        27
26.410        13
26.420        27
26.430        20
26.440        20
26.450        33
26.460        20
26.470        20
26.480        13
26.490        20
26.500        20
26.510        27
26.520        47
26.530        33
26.540        13
26.550        33
26.560        13
26.570        27
26.580        27
26.590        40
26.600         7
26.610        40
26.620         7
26.630        33
26.640        53
26.650         7
26.660        40
26.670        27
26.680        27
26.690        13
26.700        33
26.710        27
26.720        13
26.730        33
26.740        33
26.750        27
26.760        27
26.770        40
26.780        33
26.790        20
26.800        40
26.810         7
26.820        20
26.830        47
26.840        27
26.850        40
26.860        47
26.870        13
26.880        27
26.890        27
26.900        27
26.910        40
26.920        33
26.930        33
26.940        40
26.950         7
26.960        27
26.970        33
26.980        27
26.990        27
27.000        40
27.010        13
27.020        27
27.030        27
27.040         7
27.050        20
27.060        47
27.070        27
27.080        60
27.090        80
27.100        47
27.110        47
27.120        33
27.130        33
27.140        13
27.150        33
27.160        60
27.170        40
27.180        67
27.190        27
27.200         7
27.210        40
27.220        47
27.230        13
27.240        20
27.250        47
27.260        20
27.270         7
27.280        20
27.290        13
27.300        33
27.310        33
27.320        20
27.330        20
27.340        47
27.350        40
27.360        40
27.370        40
27.380       100
27.390        40
27.400        20
27.410        27
27.420        40
27.430        40
27.440        33
27.450        27
27.460        20
27.470        33
27.480        60
27.490        20
27.500        53
27.510        53
27.520        13
27.530        33
27.540        33
27.550        93
27.560        20
27.570        40
27.580        20
27.590        47
27.600        20
27.610        33
27.620         7
27.630        40
27.640        40
27.650        40
27.660        20
27.670        40
27.680        20
27.690        13
27.700        53
27.710         7
27.720        47
27.730         7
27.740        47
27.750        40
27.760        40
27.770        27
27.780        27
27.790        27
27.800        27
27.810        27
27.820        33
27.830        33
27.840        20
27.850        40
27.860        20
27.870        40
27.880        20
27.890        27
27.900        33
27.910        33
27.920        53
27.930        53
27.940        60
27.950         7
27.960        27
27.970         7
27.980        20
27.990         7
28.000        33
28.010        47
28.020        13
28.030        20
28.040         7
28.050        20
28.060        60
28.070        53
28.080        20
28.090        40
28.100        20
28.110         7
28.120        27
28.130        27
28.140        53
28.150        47
28.160        40
28.170        27
28.180        53
28.190        53
28.200        40
28.210        33
28.220        27
28.230        47
28.240        20
28.250        53
28.260        40
28.270        47
28.280        27
28.290        33
28.300        20
28.310        40
28.320         7
28.330         7
28.340        20
28.350        33
28.360        67
28.370        13
28.380        40
28.390        33
28.400        67
28.410        33
28.420        40
28.430         7
28.440        13
28.450        20
28.460        27
28.470        20
28.480        13
28.490        27
28.500        20
28.510        20
28.520        33
28.530        33
28.540        60
28.550        13
28.560        67
28.570        53
28.580        20
28.590        27
28.600        27
28.610        27
28.620        20
28.630        33
28.640        20
28.650        20
28.660        73
28.670        27
28.680        13
28.690        13
28.700        33
28.710        47
28.720        27
28.730        33
28.740        40
28.750        40
28.760        33
28.770        40
28.780        40
28.790        40
28.800         7
28.810        40
28.820        27
28.830        27
28.840        27
28.850        47
28.860        33
28.870        13
28.880        33
28.890        27
28.900        27
28.910        33
28.920        27
28.930        27
28.940        20
28.950        20
28.960        33
28.970        20
28.980        33
28.990        33
29.000        53
29.010        27
29.020        40
29.030        33
29.040        60
29.050        33
29.060        27
29.070        40
29.080        20
29.090        33
29.100        60
29.110        27
29.120        20
29.130        27
29.140        27
29.150        33
29.160        47
29.170        33
29.180        27
29.190        60
29.200        20
29.210        27
29.220        27
29.230        40
29.240        27
29.250        13
29.260        27
29.270        27
29.280        47
29.290        40
29.300        20
29.310         7
29.320        13
29.330        27
29.340        47
29.350        40
29.360        27
29.370        13
29.380        53
29.390        13
29.400        20
29.410         7
29.420        47
29.430        27
29.440        20
29.450        27
29.460        20
29.470         7
29.480        33
29.490        40
29.500        13
29.510        27
29.520        40
29.530        33
29.540        20
29.550        40
29.560        33
29.570        33
29.580        33
29.590        33
29.600        20
29.610        33
29.620        13
29.630        40
29.640        33
29.650        33
29.660        53
29.670        53
29.680        40
29.690         7
29.700        27
29.710        60
29.720        47
29.730        20
29.740        40
29.750        20
29.760        20
29.770        47
29.780        20
29.790         7
29.800        33
29.810        27
29.820        27
29.830        27
29.840        27
29.850        40
29.860        67
29.870        47
29.880        33
29.890        20
29.900        27
29.910        20
29.920        20
29.930        40
29.940        40
29.950        40
29.960        27
29.970        33
29.980        20
29.990        27
30.000        20
30.010        47
30.020         7
30.030        33
30.040        20
30.050        47
30.060         7
30.070        40
30.080        33
30.090        33
30.100        20
30.110        13
30.120        27
30.130        27
30.140        27
30.150        33
30.160        47
30.170        27
30.180        20
30.190        27
30.200        13
30.210        40
30.220        33
30.230        33
30.240        27
30.250        27
30.260        53
30.270        53
30.280        33
30.290        13
30.300        20
30.310        40
30.320        20
30.330        13
30.340        40
30.350        27
30.360        27
30.370        40
30.380        20
30.390        27
30.400         7
30.410        33
30.420        27
30.430         7
30.440        33
30.450        27
30.460         7
30.470        33
30.480        27
30.490        33
30.500        47
30.510        20
30.520        27
30.530        33
30.540        33
30.550         0
30.560        27
30.570        47
30.580        40
30.590        33
30.600        20
30.610        27
30.620        53
30.630        40
30.640        40
30.650         7
30.660        67
30.670        20
30.680        13
30.690        13
30.700        40
30.710        13
30.720        33
30.730        13
30.740        13
30.750        20
30.760        13
30.770         7
30.780        20
30.790        33
30.800        20
30.810        20
30.820        33
30.830        13
30.840        33
30.850        20
30.860        60
30.870        33
30.880        47
30.890        20
30.900        40
30.910        20
30.920        20
30.930        47
30.940        27
30.950        33
30.960        33
30.970        13
30.980        40
30.990        20
31.000        20
31.010        20
31.020        40
31.030        20
31.040        40
31.050        40
31.060        53
31.070        20
31.080        40
31.090        27
31.100        20
31.110        33
31.120        33
31.130         7
31.140        60
31.150        20
31.160        27
31.170        13
31.180        27
31.190        20
31.200         7
31.210        47
31.220        47
31.230        33
31.240        40
31.250        20
31.260        40
31.270        20
31.280        20
31.290        33
31.300        27
31.310        40
31.320        53
31.330        47
31.340        40
31.350        13
31.360        33
31.370        33
31.380        33
31.390        20
31.400        47
31.410        40
31.420        13
31.430        27
31.440        40
31.450        20
31.460        40
31.470        20
31.480        40
31.490        40
31.500        33
31.510        53
31.520        40
31.530        27
31.540        40
31.550        53
31.560        33
31.570        13
31.580        13
31.590        27
31.600        27
31.610        40
31.620        47
31.630        80
31.640        47
31.650        73
31.660        40
31.670       100
31.680        80
31.690        73
31.700        80
31.710       127
31.720        80
31.730        60
31.740       100
31.750       107
31.760       113
31.770       100
31.780        67
31.790       133
31.800       113
31.810        93
31.820       160
31.830       167
31.840       167
31.850       167
31.860       180
31.870       213
31.880       253
31.890       160
31.900       253
31.910       247
31.920       247
31.930       267
31.940       267
31.950       260
31.960       407
31.970       260
31.980       393
31.990       373
32.000       333
32.010       293
32.020       280
32.030       353
32.040       253
32.050       333
32.060       307
32.070       227
32.080       187
32.090       233
32.100       233
32.110       213
32.120       153
32.130       193
32.140       140
32.150       140
32.160       113
32.170       120
32.180       127
32.190        87
32.200       100
32.210        87
32.220        53
32.230        73
32.240        67
32.250        67
32.260        80
32.270       100
32.280        40
32.290        80
32.300        40
32.310        40
32.320        20
32.330        40
32.340        47
32.350        87
32.360        33
32.370        33
32.380        20
32.390        67
32.400        53
32.410        53
32.420        47
32.430        40
32.440        40
32.450        13
32.460        27
32.470        53
32.480        93
32.490        60
32.500        13
32.510        27
32.520        13
32.530        47
32.540        33
32.550        20
32.560        40
32.570        47
32.580        27
32.590        33
32.600        20
32.610         7
32.620        60
32.630        27
32.640         7
32.650        27
32.660        27
32.670        27
32.680        13
32.690        40
32.700        47
32.710        47
32.720        20
32.730        53
32.740        33
32.750        27
32.760        33
32.770         7
32.780        33
32.790        20
32.800        47
32.810        20
32.820        27
32.830        20
32.840        40
32.850        33
32.860         7
32.870        13
32.880         7
32.890        27
32.900        33
32.910        47
32.920        20
32.930        27
32.940        33
32.950        33
32.960        47
32.970        33
32.980        67
32.990        20
33.000        13
33.010        47
33.020        20
33.030         7
33.040        47
33.050        53
33.060        20
33.070        33
33.080        27
33.090        13
33.100        40
33.110        20
33.120        47
33.130        20
33.140        13
33.150        20
33.160        20
33.170         0
33.180         0
33.190        33
33.200        27
33.210        27
33.220        20
33.230        53
33.240        27
33.250        33
33.260        27
33.270        40
33.280        33
33.290        27
33.300        33
33.310        27
33.320        20
33.330        20
33.340        33
33.350        20
33.360        20
33.370        27
33.380        60
33.390        40
33.400        53
33.410        13
33.420        20
33.430        47
33.440        13
33.450        27
33.460        20
33.470        60
33.480        53
33.490        27
33.500        33
33.510        27
33.520        33
33.530        20
33.540        20
33.550        20
33.560        27
33.570        33
33.580        40
33.590        20
33.600        27
33.610        20
33.620        27
33.630        27
33.640        53
33.650        13
33.660        33
33.670        20
33.680        27
33.690        27
33.700        13
33.710        20
33.720        27
33.730        47
33.740        27
33.750        20
33.760        13
33.770         7
33.780        27
33.790        13
33.800        27
33.810        20
33.820        53
33.830        20
33.840        40
33.850        27
33.860        27
33.870        27
33.880        27
33.890        40
33.900        27
33.910        40
33.920        20
33.930        40
33.940        33
33.950        33
33.960         0
33.970        33
33.980        33
33.990        27
34.000        33
34.010        33
34.020        33
34.030        33
34.040        20
34.050        20
34.060        33
34.070        13
34.080        27
34.090        27
34.100        33
34.110        33
34.120        47
34.130        33
34.140        27
34.150        33
34.160        27
34.170        27
34.180         7
34.190        20
34.200        27
34.210        27
34.220        33
34.230        53
34.240        27
34.250        40
34.260        40
34.270        20
34.280        40
34.290        27
34.300        20
34.310         7
34.320        33
34.330        33
34.340        27
34.350        33
34.360        40
34.370        20
34.380        40
34.390        27
34.400        20
34.410        20
34.420        67
34.430        27
34.440        13
34.450        20
34.460        33
34.470        27
34.480         7
34.490        13
34.500        33
34.510        27
34.520        20
34.530        13
34.540        13
34.550        13
34.560        20
34.570        20
34.580         7
34.590        20
34.600        27
34.610        33
34.620        33
34.630        13
34.640        27
34.650        40
34.660        27
34.670        53
34.680        33
34.690        20
34.700        33
34.710        13
34.720        20
34.730        40
34.740        20
34.750        13
34.760        20
34.770        40
34.780        33
34.790        40
34.800         0
34.810        33
34.820        13
34.830        13
34.840        33
34.850        40
34.860        27
34.870        13
34.880        27
34.890        33
34.900        40
34.910        33
34.920        20
34.930        47
34.940        33
34.950        40
34.960        67
34.970        40
34.980        67
34.990        73
35.000        53
35.010        53
35.020        33
35.030        27
35.040        33
35.050        93
35.060        67
35.070       120
35.080       133
35.090       240
35.100       227
35.110       267
35.120       293
35.130       393
35.140       520
35.150       500
35.160       680
35.170       706
35.180       606
35.190       446
35.200       486
35.210       307
35.220       227
35.230       360
35.240       360
35.250       333
35.260       280
35.270       260
35.280       273
35.290       173
35.300       140
35.310        67
35.320        87
35.330        13
35.340        47
35.350        47
35.360        47
35.370         7
35.380        33
35.390        40
35.400        53
35.410        20
35.420        33
35.430        60
35.440        33
35.450        13
35.460        20
35.470        20
35.480        13
35.490        20
35.500        53
35.510        27
35.520        27
35.530        53
35.540        40
35.550        33
35.560         7
35.570        33
35.580        40
35.590        27
35.600        13
35.610        27
35.620        33
35.630        47
35.640        27
35.650        13
35.660        40
35.670        40
35.680        20
35.690        27
35.700        40
35.710         7
35.720        13
35.730         7
35.740        20
35.750        27
35.760        20
35.770        13
35.780        40
35.790        27
35.800        27
35.810        33
35.820        20
35.830        33
35.840         7
35.850        40
35.860        13
35.870        40
35.880        27
35.890         7
35.900        20
35.910        47
35.920        33
35.930        33
35.940        53
35.950        27
35.960        33
35.970        47
35.980        27
35.990        33
36.000         7
36.010        27
36.020        20
36.030        27
36.040        47
36.050        33
36.060        27
36.070        40
36.080        33
36.090        13
36.100        13
36.110        27
36.120        13
36.130        27
36.140        13
36.150        27
36.160        27
36.170        33
36.180         7
36.190        13
36.200         7
36.210        27
36.220        27
36.230        27
36.240        27
36.250         7
36.260        27
36.270        20
36.280        20
36.290        27
36.300         7
36.310        33
36.320         7
36.330         0
36.340        13
36.350        47
36.360        13
36.370        27
36.380        20
36.390        20
36.400        13
36.410        27
36.420        27
36.430        13
36.440        33
36.450        20
36.460        27
36.470        33
36.480        27
36.490        27
36.500         0
36.510        27
36.520        27
36.530        13
36.540        13
36.550        20
36.560        47
36.570        47
36.580        27
36.590        27
36.600        20
36.610        27
36.620        13
36.630        20
36.640        13
36.650        27
36.660        27
36.670        20
36.680        20
36.690        13
36.700        20
36.710        33
36.720        33
36.730        27
36.740        33
36.750        27
36.760        27
36.770         0
36.780        13
36.790        33
36.800         7
36.810         0
36.820        20
36.830        27
36.840        27
36.850        13
36.860         7
36.870        40
36.880        27
36.890        20
36.900        40
36.910        27
36.920        40
36.930         7
36.940        13
36.950        40
36.960        13
36.970        40
36.980         0
36.990        67
37.000        47
37.010         7
37.020        27
37.030        20
37.040        20
37.050        40
37.060        33
37.070        20
37.080        33
37.090        27
37.100        20
37.110        27
37.120        13
37.130         7
37.140        27
37.150         7
37.160         7
37.170        20
37.180        20
37.190        13
37.200        33
37.210        20
37.220        33
37.230        27
37.240        40
37.250        47
37.260        13
37.270        47
37.280        47
37.290        40
37.300        40
37.310        20
37.320        27
37.330        53
37.340        13
37.350        33
37.360        20
37.370        20
37.380        20
37.390        13
37.400         7
37.410        33
37.420        53
37.430        20
37.440        60
37.450        27
37.460        20
37.470        40
37.480        27
37.490        33
37.500        40
37.510        40
37.520        40
37.530        27
37.540        27
37.550        33
37.560        27
37.570        13
37.580         7
37.590        27
37.600        33
37.610        40
37.620        27
37.630        27
37.640        27
37.650        20
37.660        20
37.670         7
37.680        40
37.690        33
37.700        20
37.710        53
37.720        27
37.730        27
37.740        53
37.750        33
37.760        47
37.770        93
37.780        80
37.790        53
37.800        73
37.810        80
37.820        47
37.830       100
37.840        27
37.850        80
37.860        13
37.870        40
37.880        33
37.890        40
37.900        47
37.910        87
37.920        60
37.930        33
37.940        20
37.950        13
37.960        27
37.970        40
37.980         0
37.990        13
38.000         7
38.010        40
38.020        27
38.030        40
38.040        20
38.050        13
38.060        20
38.070        47
38.080        53
38.090        33
38.100        47
38.110         0
38.120        13
38.130        27
38.140        20
38.150        20
38.160        33
38.170        20
38.180        20
38.190         0
38.200        20
38.210         7
38.220         7
38.230        33
38.240         7
38.250        20
38.260        60
38.270        27
38.280        27
38.290        27
38.300        13
38.310        53
38.320        20
38.330        13
38.340        20
38.350        33
38.360        13
38.370        33
38.380        33
38.390         7
38.400        20
38.410        27
38.420         7
38.430        13
38.440        20
38.450        40
38.460        13
38.470        53
38.480        40
38.490        27
38.500        13
38.510        20
38.520        33
38.530         7
38.540        20
38.550        47
38.560        40
38.570        20
38.580        13
38.590        27
38.600        40
38.610        27
38.620        33
38.630        20
38.640        33
38.650        40
38.660         0
38.670        20
38.680        40
38.690         7
38.700        20
38.710        33
38.720        20
38.730        33
38.740        27
38.750        20
38.760        27
38.770        40
38.780        13
38.790        13
38.800         7
38.810        13
38.820        27
38.830        20
38.840        20
38.850        33
38.860        33
38.870        13
38.880        27
38.890        27
38.900        33
38.910         0
38.920         7
38.930        13
38.940        20
38.950        20
38.960        33
38.970        20
38.980         7
38.990        13
39.000        13
39.010        27
39.020        20
39.030        40
39.040         7
39.050        33
39.060        47
39.070        33
39.080        40
39.090        40
39.100        13
39.110        27
39.120        60
39.130        33
39.140        13
39.150        33
39.160        40
39.170        27
39.180        20
39.190        27
39.200        40
39.210        40
39.220        13
39.230        20
39.240        33
39.250        33
39.260        33
39.270        53
39.280        27
39.290        47
39.300        13
39.310        40
39.320        53
39.330        33
39.340        60
39.350        60
39.360        87
39.370        53
39.380        60
39.390        40
39.400        73
39.410        73
39.420        60
39.430        67
39.440        80
39.450        73
39.460       100
39.470       100
39.480       113
39.490       120
39.500       107
39.510        87
39.520       167
39.530        87
39.540        67
39.550       173
39.560        60
39.570       100
39.580       107
39.590       120
39.600       107
39.610        80
39.620       120
39.630       113
39.640        40
39.650        80
39.660        73
39.670        67
39.680        53
39.690        67
39.700        47
39.710        47
39.720        47
39.730        33
39.740        27
39.750        27
39.760        33
39.770        33
39.780        27
39.790        27
39.800        33
39.810        33
39.820        47
39.830        60
39.840        27
39.850         7
39.860         7
39.870        13
39.880        13
39.890        20
39.900        20
39.910        20
39.920        33
39.930        33
39.940         7
39.950        13
39.960        20
39.970        27
39.980        33
39.990        33
40.000        47
40.010        27
40.020         7
40.030        20
40.040        47
40.050        13
40.060        53
40.070        13
40.080        20
40.090        20
40.100        27
40.110        33
40.120        13
40.130        27
40.140        20
40.150        27
40.160        33
40.170        20
40.180        13
40.190        33
40.200         7
40.210        20
40.220        20
40.230        27
40.240        13
40.250        33
40.260         7
40.270        27
40.280        20
40.290        20
40.300         7
40.310        33
40.320        53
40.330        27
40.340        33
40.350        20
40.360        40
40.370         7
40.380        27
40.390         7
40.400        40
40.410        40
40.420        33
40.430        33
40.440        20
40.450        40
40.460        13
40.470        27
40.480        13
40.490        13
40.500        67
40.510        60
40.520        13
40.530        20
40.540        20
40.550        27
40.560        33
40.570        13
40.580         7
40.590        13
40.600        47
40.610        13
40.620        33
40.630        33
40.640         7
40.650        20
40.660         7
40.670         0
40.680        40
40.690        33
40.700        13
40.710        20
40.720        40
40.730        33
40.740        20
40.750        13
40.760        27
40.770        27
40.780        20
40.790        27
40.800        20
40.810        47
40.820        40
40.830        20
40.840        40
40.850        20
40.860        27
40.870        27
40.880        20
40.890        13
40.900        20
40.910        33
40.920         7
40.930        20
40.940        20
40.950        27
40.960        13
40.970        33
40.980        13
40.990        20
41.000        33
41.010        27
41.020        27
41.030        13
41.040        27
41.050        27
41.060        33
41.070        27
41.080         7
41.090        27
41.100        40
41.110        33
41.120        40
41.130        13
41.140         7
41.150        13
41.160        13
41.170        27
41.180        20
41.190        40
41.200        33
41.210        13
41.220        13
41.230        47
41.240        33
41.250        13
41.260        27
41.270         0
41.280        33
41.290        13
41.300        20
41.310        13
41.320        33
41.330        20
41.340        40
41.350        13
41.360         7
41.370        20
41.380        27
41.390        27
41.400        33
41.410        27
41.420        27
41.430        27
41.440        40
41.450        40
41.460        27
41.470        27
41.480        20
41.490        47
41.500        60
41.510        60
41.520        33
41.530        13
41.540        73
41.550        60
41.560        60
41.570       113
41.580        80
41.590        73
41.600        73
41.610        87
41.620       147
41.630       113
41.640        87
41.650       167
41.660       167
41.670       193
41.680       247
41.690       247
41.700       247
41.710       247
41.720       193
41.730       213
41.740       200
41.750       160
41.760       147
41.770       113
41.780       113
41.790       133
41.800       193
41.810       107
41.820       200
41.830       113
41.840       140
41.850        60
41.860        53
41.870        40
41.880        33
41.890        13
41.900        33
41.910        47
41.920        33
41.930         7
41.940        20
41.950        33
41.960        20
41.970        47
41.980        20
41.990         0
42.000        33
42.010        53
42.020         0
42.030        40
42.040        13
42.050        13
42.060        20
42.070        20
42.080        27
42.090        27
42.100        27
42.110        27
42.120        13
42.130         7
42.140        27
42.150        20
42.160        33
42.170        20
42.180        33
42.190        33
42.200        27
42.210        20
42.220         7
42.230         7
42.240        33
42.250        20
42.260        13
42.270        20
42.280        40
42.290        33
42.300        20
42.310        53
42.320        13
42.330        33
42.340        27
42.350         7
42.360        33
42.370        13
42.380        20
42.390        47
42.400         7
42.410        27
42.420        20
42.430        20
42.440        27
42.450         7
42.460        20
42.470        13
42.480        20
42.490         0
42.500        20
42.510        67
42.520        27
42.530        20
42.540        20
42.550        13
42.560         0
42.570        20
42.580        33
42.590        73
42.600        13
42.610        13
42.620        13
42.630        13
42.640        20
42.650        13
42.660        20
42.670        27
42.680        40
42.690        33
42.700        33
42.710        60
42.720        33
42.730         0
42.740        27
42.750        27
42.760         0
42.770        27
42.780        33
42.790        27
42.800        27
42.810        20
42.820        20
42.830        27
42.840        27
42.850        27
42.860        33
42.870        13
42.880        13
42.890        33
42.900        13
42.910        20
42.920        20
42.930        13
42.940        33
42.950        33
42.960        13
42.970        33
42.980        13
42.990        53
43.000        33
43.010        33
43.020        27
43.030        13
43.040         7
43.050         7
43.060        13
43.070        13
43.080        27
43.090        13
43.100        13
43.110        13
43.120        33
43.130        20
43.140         7
43.150        33
43.160        20
43.170         0
43.180        13
43.190        13
43.200        27
43.210        40
43.220        13
43.230        53
43.240        53
43.250        33
43.260        20
43.270        40
43.280        27
43.290        27
43.300        20
43.310        60
43.320        67
43.330        47
43.340        80
43.350        87
43.360        33
43.370        40
43.380        27
43.390        40
43.400        93
43.410        47
43.420        67
43.430        87
43.440        40
43.450        20
43.460        60
43.470        27
43.480        33
43.490        60
43.500        33
43.510        27
43.520        33
43.530        33
43.540        33
43.550        13
43.560        33
43.570        13
43.580        33
43.590        13
43.600        33
43.610        13
43.620        27
43.630        20
43.640        20
43.650         7
43.660         7
43.670        33
43.680        20
43.690        40
43.700        13
43.710         7
43.720        33
43.730        20
43.740        20
43.750        27
43.760         7
43.770        13
43.780        27
43.790        13
43.800        27
43.810        13
43.820        33
43.830        20
43.840        33
43.850        20
43.860        33
43.870        20
43.880        33
43.890        13
43.900        27
43.910        27
43.920        27
43.930        20
43.940        27
43.950        20
43.960        27
43.970         7
43.980         0
43.990        13
44.000        33
44.010        13
44.020        20
44.030        13
44.040         0
44.050         7
44.060        53
44.070        20
44.080        20
44.090        20
44.100         7
44.110        20
44.120        20
44.130        33
44.140        20
44.150        53
44.160        20
44.170        13
44.180        20
44.190        20
44.200         7
44.210        20
44.220        33
44.230         7
44.240         7
44.250        20
44.260        20
44.270        33
44.280        27
44.290        13
44.300         0
44.310        13
44.320        13
44.330        20
44.340        27
44.350        27
44.360        27
44.370        20
44.380        13
44.390        33
44.400        20
44.410        33
44.420        13
44.430        27
44.440        53
44.450        13
44.460         7
44.470        27
44.480        27
44.490         0
44.500        40
44.510        27
44.520         7
44.530        20
44.540        20
44.550        13
44.560        13
44.570        27
44.580        20
44.590        27
44.600        47
44.610         7
44.620        40
44.630        27
44.640        13
44.650        33
44.660         7
44.670        20
44.680        33
44.690        47
44.700        20
44.710         0
44.720        40
44.730         7
44.740        13
44.750        20
44.760        33
44.770         7
44.780        40
44.790        33
44.800         7
44.810         7
44.820        33
44.830        20
44.840        60
44.850        20
44.860         7
44.870        40
44.880        33
44.890        20
44.900        20
44.910         7
44.920        27
44.930        20
44.940        20
44.950        27
44.960        13
44.970        33
44.980        47
44.990        13
45.000        27
45.010        27
45.020        47
45.030         7
45.040        27
45.050        27
45.060        20
45.070        13
45.080        53
45.090        20
45.100        60
45.110        27
45.120        20
45.130         7
45.140        33
45.150         7
45.160         7
45.170        40
45.180        20
45.190        27
45.200        13
45.210         7
45.220        47
45.230        20
45.240        33
45.250        13
45.260        13
45.270        13
45.280        40
45.290        20
45.300        47
45.310        27
45.320        13
45.330        47
45.340        33
45.350        60
45.360        40
45.370        27
45.380        27
45.390        33
45.400        27
45.410        53
45.420        33
45.430        40
45.440        73
45.450        47
45.460        40
45.470        47
45.480        13
45.490        40
45.500        60
45.510        60
45.520        53
45.530        67
45.540        53
45.550       100
45.560        87
45.570       127
45.580        73
45.590        87
45.600        93
45.610        93
45.620        73
45.630        67
45.640       120
45.650       107
45.660       127
45.670       127
45.680       133
45.690       100
45.700       160
45.710       207
45.720       127
45.730       160
45.740       220
45.750       280
45.760       247
45.770       227
45.780       200
45.790       273
45.800       280
45.810       260
45.820       287
45.830       280
45.840       273
45.850       367
45.860       213
45.870       387
45.880       353
45.890       280
45.900       260
45.910       307
45.920       260
45.930       347
45.940       307
45.950       353
45.960       300
45.970       293
45.980       327
45.990       240
46.000       267
46.010       200
46.020       227
46.030       200
46.040       180
46.050       167
46.060       193
46.070       100
46.080       280
46.090       160
46.100       200
46.110       180
46.120       160
46.130        93
46.140       120
46.150       133
46.160        80
46.170        60
46.180        93
46.190        47
46.200        60
46.210        67
46.220        27
46.230        33
46.240        27
46.250        53
46.260        40
46.270        67
46.280        80
46.290        47
46.300        60
46.310        73
46.320        47
46.330        40
46.340        33
46.350        47
46.360        87
46.370        53
46.380        20
46.390        13
46.400        53
46.410        40
46.420        13
46.430        33
46.440        60
46.450        47
46.460        47
46.470        53
46.480        33
46.490        33
46.500        33
46.510        13
46.520        20
46.530        47
46.540        27
46.550        20
46.560        33
46.570        20
46.580        20
46.590        27
46.600        47
46.610         0
46.620        13
46.630        20
46.640        13
46.650        33
46.660        20
46.670        13
46.680        47
46.690        40
46.700        27
46.710        40
46.720        40
46.730        33
46.740        27
46.750        33
46.760         7
46.770        20
46.780        47
46.790        27
46.800        47
46.810        40
46.820        20
46.830        27
46.840        27
46.850        20
46.860        13
46.870        20
46.880        13
46.890        13
46.900        27
46.910        20
46.920         7
46.930        13
46.940         7
46.950        27
46.960        40
46.970        13
46.980        20
46.990         0
47.000        13
47.010         0
47.020        20
47.030         7
47.040        13
47.050        27
47.060        27
47.070        27
47.080        40
47.090        20
47.100        47
47.110        27
47.120        20
47.130         0
47.140         0
47.150        20
47.160        27
47.170        20
47.180        33
47.190        13
47.200        13
47.210        20
47.220        27
47.230        13
47.240        33
47.250        20
47.260        13
47.270        27
47.280        27
47.290        27
47.300        13
47.310        27
47.320        13
47.330        27
47.340        13
47.350        20
47.360        20
47.370        20
47.380        13
47.390         7
47.400        33
47.410        13
47.420        13
47.430        13
47.440        33
47.450        33
47.460        20
47.470        13
47.480        13
47.490        13
47.500         7
47.510        27
47.520        33
47.530        47
47.540        27
47.550        13
47.560        13
47.570         0
47.580        13
47.590        20
47.600         0
47.610        20
47.620        13
47.630         0
47.640        13
47.650        33
47.660         7
47.670        27
47.680        13
47.690        40
47.700        40
47.710         7
47.720         7
47.730        20
47.740        40
47.750         7
47.760        20
47.770         0
47.780        13
47.790        27
47.800        27
47.810        20
47.820         7
47.830        13
47.840        13
47.850        13
47.860        13
47.870         7
47.880        40
47.890         0
47.900        20
47.910        33
47.920        33
47.930        33
47.940         0
47.950         7
47.960        13
47.970         0
47.980        33
47.990        27
48.000        27
48.010        13
48.020         7
48.030        13
48.040        20
48.050         7
48.060        20
48.070         0
48.080        33
48.090        13
48.100        20
48.110        33
48.120         7
48.130        20
48.140         7
48.150        20
48.160        27
48.170         0
48.180        13
48.190        27
48.200        20
48.210        27
48.220        33
48.230        27
48.240        13
48.250        20
48.260        20
48.270        27
48.280         0
48.290         0
48.300        20
48.310         7
48.320        27
48.330        33
48.340        20
48.350        20
48.360        13
48.370        53
48.380        13
48.390        20
48.400         7
48.410        33
48.420        20
48.430        27
48.440        27
48.450        20
48.460        47
48.470        13
48.480        13
48.490         7
48.500        13
48.510        13
48.520        40
48.530         0
48.540        27
48.550        33
48.560        20
48.570        27
48.580        33
48.590        13
48.600        13
48.610         0
48.620         7
48.630        53
48.640        13
48.650        33
48.660         7
48.670        20
48.680        20
48.690        33
48.700        27
48.710        20
48.720        13
48.730        13
48.740        13
48.750         7
48.760        27
48.770        13
48.780         7
48.790        47
48.800        40
48.810         7
48.820        27
48.830        27
48.840        20
48.850         7
48.860        13
48.870         0
48.880        27
48.890        13
48.900        20
48.910        13
48.920        13
48.930        27
48.940        20
48.950        47
48.960        20
48.970        20
48.980         7
48.990         7
49.000        13
49.010        60
49.020        27
49.030        27
49.040         7
49.050        20
49.060        40
49.070        20
49.080        13
49.090        13
49.100        20
49.110        33
49.120         7
49.130        27
49.140         7
49.150         0
49.160        20
49.170        47
49.180        27
49.190        27
49.200         7
49.210        40
49.220        13
49.230        27
49.240        27
49.250        27
49.260        20
49.270        20
49.280        27
49.290         7
49.300        13
49.310        33
49.320        27
49.330        13
49.340        13
49.350         7
49.360        13
49.370        20
49.380        33
49.390        13
49.400         7
49.410        20
49.420        27
49.430        20
49.440        27
49.450         7
49.460         0
49.470        13
49.480        13
49.490        33
49.500        33
49.510         7
49.520        13
49.530        13
49.540         7
49.550        20
49.560        13
49.570         0
49.580         7
49.590        20
49.600        20
49.610        20
49.620        33
49.630        13
49.640        13
49.650        13
49.660        13
49.670        13
49.680        27
49.690         7
49.700        47
49.710        13
49.720        13
49.730        33
49.740        27
49.750         0
49.760        27
49.770        20
49.780         7
49.790         7
49.800        40
49.810        13
49.820        27
49.830        20
49.840        20
49.850        33
49.860        20
49.870        20
49.880        20
49.890         7
49.900        33
49.910        33
49.920        20
49.930         7
49.940         0
49.950        20
49.960         0
49.970        13
49.980         7
49.990        13
50.000        27
50.010         7
50.020        20
50.030        20
50.040        40
50.050        27
50.060        13
50.070         7
50.080         0
50.090        40
50.100        20
50.110         7
50.120        13
50.130        33
50.140        27
50.150        13
50.160        27
50.170        27
50.180         0
50.190         7
50.200        13
50.210         7
50.220        40
50.230         7
50.240         7
50.250        13
50.260        20
50.270         7
50.280        20
50.290        13
50.300        13
50.310        33
50.320         0
50.330        27
50.340        13
50.350        27
50.360        20
50.370        20
50.380         0
50.390        13
50.400        13
50.410        33
50.420        27
50.430        13
50.440        13
50.450        27
50.460        13
50.470        33
50.480        27
50.490         0
50.500        20
50.510         7
50.520        27
50.530         7
50.540        27
50.550        13
50.560        20
50.570        13
50.580        13
50.590        27
50.600        20
50.610        33
50.620        20
50.630        20
50.640         7
50.650        13
50.660         0
50.670        13
50.680        27
50.690        20
50.700        20
50.710        33
50.720        27
50.730         7
50.740         0
50.750        27
50.760        13
50.770        20
50.780        20
50.790        20
50.800        40
50.810        20
50.820        20
50.830         7
50.840        27
50.850        13
50.860        20
50.870        20
50.880        20
50.890        13
50.900        20
50.910        27
50.920        13
50.930         7
50.940        60
50.950         7
50.960        13
50.970         7
50.980        20
50.990        20
51.000        13
51.010         0
51.020        20
51.030        53
51.040         0
51.050        13
51.060        13
51.070        13
51.080        13
51.090        27
51.100         7
51.110        13
51.120        53
51.130        20
51.140        40
51.150        13
51.160         0
51.170        20
51.180        13
51.190        13
51.200        20
51.210        20
51.220         0
51.230        20
51.240        20
51.250        13
51.260        13
51.270        13
51.280        27
51.290        20
51.300         7
51.310         0
51.320        33
51.330         7
51.340        27
51.350        13
51.360        27
51.370        13
51.380         0
51.390        13
51.400        33
51.410        13
51.420         7
51.430        20
51.440        20
51.450        13
51.460         7
51.470        13
51.480         7
51.490        20
51.500        27
51.510        20
51.520        27
51.530        13
51.540        27
51.550        20
51.560        33
51.570        27
51.580        13
51.590        13
51.600        27
51.610        47
51.620        33
51.630        13
51.640        20
51.650        20
51.660        13
51.670        33
51.680        20
51.690         0
51.700        27
51.710        20
51.720        13
51.730        40
51.740        40
51.750        33
51.760        13
51.770        33
51.780        33
51.790         7
51.800         0
51.810        33
51.820        33
51.830        27
51.840        33
51.850        33
51.860        33
51.870        13
51.880        33
51.890        20
51.900        20
51.910        13
51.920        27
51.930        20
51.940        27
51.950        33
51.960        20
51.970        13
51.980         7
51.990        47
52.000        13
52.010        40
52.020        13
52.030        27
52.040        13
52.050         7
52.060        27
52.070        13
52.080        20
52.090        13
52.100        40
52.110        33
52.120        20
52.130         7
52.140        33
52.150         0
52.160         7
52.170        13
52.180        13
52.190        20
52.200         7
52.210        20
52.220        13
52.230        20
52.240        13
52.250        33
52.260        27
52.270         0
52.280        27
52.290        13
52.300        40
52.310        20
52.320        13
52.330        53
52.340        13
52.350        20
52.360         0
52.370         7
52.380         7
52.390        33
52.400        27
52.410         0
52.420        27
52.430        13
52.440        20
52.450        13
52.460        33
52.470        27
52.480        20
52.490        40
52.500        13
52.510        20
52.520        27
52.530        33
52.540        40
52.550         7
52.560        33
52.570        27
52.580        93
52.590        27
52.600        27
52.610        40
52.620        13
52.630        13
52.640        40
52.650        13
52.660        13
52.670        13
52.680         7
52.690        27
52.700        13
52.710        13
52.720        53
52.730        20
52.740        27
52.750        40
52.760        13
52.770        20
52.780        13
52.790        13
52.800         7
52.810        13
52.820         7
52.830         7
52.840         0
52.850         7
52.860         7
52.870        13
52.880        33
52.890        13
52.900        13
52.910         7
52.920        20
52.930        13
52.940        20
52.950        27
52.960         7
52.970         7
52.980        27
52.990        27
53.000         0
53.010         7
53.020         7
53.030        20
53.040        13
53.050         7
53.060        27
53.070        27
53.080        47
53.090        20
53.100         7
53.110        27
53.120         7
53.130         7
53.140        20
53.150        40
53.160         0
53.170        27
53.180        20
53.190        13
53.200        20
53.210        47
53.220        33
53.230        27
53.240        27
53.250        13
53.260        27
53.270        13
53.280         0
53.290         0
53.300        27
53.310        13
53.320        20
53.330         7
53.340         0
53.350         0
53.360        13
53.370        20
53.380        20
53.390        27
53.400        13
53.410         7
53.420        27
53.430        20
53.440        20
53.450         0
53.460         7
53.470         0
53.480        20
53.490        13
53.500        13
53.510        20
53.520        20
53.530        33
53.540         7
53.550         7
53.560        13
53.570         0
53.580        13
53.590         7
53.600        20
53.610         7
53.620         7
53.630         7
53.640        33
53.650         7
53.660        13
53.670        13
53.680        20
53.690         7
53.700        27
53.710         7
53.720        13
53.730        13
53.740        13
53.750         7
53.760        13
53.770        27
53.780        20
53.790        13
53.800        27
53.810         7
53.820        20
53.830         7
53.840        20
53.850        13
53.860        20
53.870         7
53.880        20
53.890         7
53.900        40
53.910         7
53.920        20
53.930         7
53.940        13
53.950        40
53.960        13
53.970        13
53.980        27
53.990         7
54.000        33
54.010         7
54.020         7
54.030        13
54.040         0
54.050         0
54.060         7
54.070         7
54.080        27
54.090        13
54.100        27
54.110        13
54.120        13
54.130        27
54.140         7
54.150         7
54.160         7
54.170        13
54.180         7
54.190        13
54.200         0
54.210        13
54.220        27
54.230        20
54.240        13
54.250         7
54.260        20
54.270        20
54.280         7
54.290         7
54.300        13
54.310        13
54.320         7
54.330        13
54.340        47
54.350         7
54.360        20
54.370        13
54.380         7
54.390        13
54.400        13
54.410         7
54.420         0
54.430        20
54.440        20
54.450         7
54.460         7
54.470        13
54.480         0
54.490        20
54.500         0
54.510        27
54.520        20
54.530         0
54.540        13
54.550         7
54.560         7
54.570         7
54.580        27
54.590        13
54.600        20
54.610        27
54.620         7
54.630         0
54.640         7
54.650        13
54.660         7
54.670        13
54.680        40
54.690         7
54.700        13
54.710         7
54.720         7
54.730        13
54.740         0
54.750        27
54.760        20
54.770        13
54.780         7
54.790         0
54.800         0
54.810        13
54.820        13
54.830        27
54.840        33
54.850        33
54.860        13
54.870        20
54.880        20
54.890         7
54.900         7
54.910         7
54.920        13
54.930        27
54.940         0
54.950        13
54.960        13
54.970        20
54.980        13
54.990        13
55.000        13
55.010         7
55.020         0
55.030         7
55.040         0
55.050        20
55.060         7
55.070        33
55.080         7
55.090         0
55.100         7
55.110         7
55.120         7
55.130        27
55.140        27
55.150        40
55.160         0
55.170        13
55.180        27
55.190        20
55.200         0
55.210         7
55.220        40
55.230         7
55.240        27
55.250        13
55.260        13
55.270        20
55.280        40
55.290        20
55.300         7
55.310        27
55.320        20
55.330        20
55.340        20
55.350        20
55.360         7
55.370         7
55.380        13
55.390        13
55.400         7
55.410        13
55.420        20
55.430         0
55.440         7
55.450         0
55.460         7
55.470        20
55.480        13
55.490        20
55.500        20
55.510         7
55.520        33
55.530        20
55.540         7
55.550        13
55.560        20
55.570        20
55.580        40
55.590         7
55.600         0
55.610         7
55.620        20
55.630         0
55.640        20
55.650         0
55.660        13
55.670        20
55.680         0
55.690         0
55.700        33
55.710        13
55.720        13
55.730        20
55.740        20
55.750         7
55.760        27
55.770         0
55.780        40
55.790         7
55.800        27
55.810        27
55.820        27
55.830         7
55.840        13
55.850        33
55.860        13
55.870         7
55.880         7
55.890         7
55.900        33
55.910        13
55.920        40
55.930        13
55.940         7
55.950        13
55.960        20
55.970        20
55.980        13
55.990        13
56.000        20
56.010        33
56.020        27
56.030        13
56.040        13
56.050        13
56.060        27
56.070        20
56.080         0
56.090        13
56.100        33
56.110        13
56.120        20
56.130         0
56.140        20
56.150         0
56.160        13
56.170        20
56.180        13
56.190        13
56.200        20
56.210        13
56.220        13
56.230        13
56.240         0
56.250        20
56.260        27
56.270         7
56.280        20
56.290        13
56.300        13
56.310        40
56.320         7
56.330        20
56.340        20
56.350        27
56.360        33
56.370        20
56.380        20
56.390        13
56.400        40
56.410         7
56.420         7
56.430        20
56.440        20
56.450         0
56.460         0
56.470        20
56.480        20
56.490         0
56.500        13
56.510        13
56.520        13
56.530        13
56.540        27
56.550        20
56.560        20
56.570         0
56.580        13
56.590        13
56.600        20
56.610        13
56.620        13
56.630        20
56.640        27
56.650        27
56.660         0
56.670        13
56.680        20
56.690        20
56.700        13
56.710        13
56.720        20
56.730        27
56.740        27
56.750        27
56.760        40
56.770        13
56.780        27
56.790        27
56.800        53
56.810        53
56.820        33
56.830        20
56.840        27
56.850        13
56.860        47
56.870        53
56.880        67
56.890        40
56.900        60
56.910       100
56.920        47
56.930        73
56.940        73
56.950        67
56.960        53
56.970        93
56.980        60
56.990       113
57.000        87
57.010        73
57.020        87
57.030        93
57.040       153
57.050       180
57.060        93
57.070       147
57.080        80
57.090       153
57.100        93
57.110       107
57.120       140
57.130       133
57.140       127
57.150       113
57.160       127
57.170       140
57.180       100
57.190        93
57.200       127
57.210        47
57.220       133
57.230        93
57.240       100
57.250       100
57.260        73
57.270        93
57.280        53
57.290        80
57.300        53
57.310        53
57.320        80
57.330        47
57.340        80
57.350        47
57.360        67
57.370        53
57.380        60
57.390        47
57.400        87
57.410        93
57.420        67
57.430        53
57.440        60
57.450        60
57.460        53
57.470       113
57.480       133
57.490       133
57.500       133
57.510       127
57.520       187
57.530       173
57.540       140
57.550       273
57.560       253
57.570       260
57.580       193
57.590       100
57.600       113
57.610        40
57.620        53
57.630       107
57.640        67
57.650       100
57.660        80
57.670        47
57.680       133
57.690       133
57.700       100
57.710       100
57.720        93
57.730        87
57.740       113
57.750        47
57.760        93
57.770        40
57.780        33
57.790        13
57.800        27
57.810         7
57.820        40
57.830        13
57.840         7
57.850        20
57.860        20
57.870        13
57.880        13
57.890         7
57.900        20
57.910        27
57.920        13
57.930         7
57.940        13
57.950        13
57.960        13
57.970         7
57.980        13
57.990        20
58.000        27
58.010        13
58.020        33
58.030        20
58.040        20
58.050        33
58.060         7
58.070        27
58.080         7
58.090        27
58.100         0
58.110         7
58.120        27
58.130        33
58.140        27
58.150        13
58.160        13
58.170        27
58.180        13
58.190         7
58.200         0
58.210        27
58.220         7
58.230        20
58.240        20
58.250        13
58.260        33
58.270        27
58.280        13
58.290        13
58.300        13
58.310        13
58.320        27
58.330         7
58.340         0
58.350        20
58.360         0
58.370         7
58.380        13
58.390        20
58.400         7
58.410         7
58.420        27
58.430        13
58.440        20
58.450        13
58.460         0
58.470        13
58.480         0
58.490         7
58.500        13
58.510        13
58.520        13
58.530        13
58.540        27
58.550        13
58.560         7
58.570         7
58.580        20
58.590        20
58.600        20
58.610        13
58.620         0
58.630         7
58.640         7
58.650         0
58.660         7
58.670         0
58.680        33
58.690        13
58.700        13
58.710        20
58.720         7
58.730        27
58.740        20
58.750         0
58.760        13
58.770        13
58.780         0
58.790         7
58.800        27
58.810        20
58.820        20
58.830         7
58.840         0
58.850         7
58.860        13
58.870         7
58.880        27
58.890        13
58.900         7
58.910        13
58.920         0
58.930        20
58.940        40
58.950        13
58.960        13
58.970        20
58.980        13
58.990        13
59.000         0
59.010        27
59.020         7
59.030         7
59.040        20
59.050         7
59.060         7
59.070         7
59.080        13
59.090        13
59.100        13
59.110         7
59.120         7
59.130        33
59.140         7
59.150         7
59.160         7
59.170        20
59.180         7
59.190         7
59.200        13
59.210        13
59.220        13
59.230         7
59.240        13
59.250        13
59.260         7
59.270        13
59.280        20
59.290        20
59.300         7
59.310        13
59.320         7
59.330         0
59.340        13
59.350        20
59.360        27
59.370        13
59.380        20
59.390        20
59.400         0
59.410        13
59.420        13
59.430        20
59.440        13
59.450        27
59.460        13
59.470        20
59.480         0
59.490        20
59.500         0
59.510        20
59.520        20
59.530        20
59.540        13
59.550        20
59.560        27
59.570        33
59.580        27
59.590        33
59.600        13
59.610         7
59.620         0
59.630        13
59.640        27
59.650         7
59.660        47
59.670        20
59.680        47
59.690        20
59.700        33
59.710        20
59.720         7
59.730        20
59.740         7
59.750        20
59.760        20
59.770        13
59.780        33
59.790        20
59.800        27
59.810        27
59.820        20
59.830         7
59.840         0
59.850         7
59.860        13
59.870        13
59.880        27
59.890        20
59.900         0
59.910        20
59.920        13
59.930         7
59.940        13
59.950        20
59.960         0
59.970         7
59.980        13
59.990        13
60.000        20
