20.000       160
20.010       100
20.020       120
20.030       100
20.040       113
20.050        73
20.060       100
20.070       173
20.080       133
20.090       153
20.100       127
20.110       147
20.120       153
20.130        93
20.140       120
20.150       160
20.160       140
20.170       160
20.180       107
20.190       133
20.200       107
20.210       187
20.220       127
20.230       180
20.240       160
20.250       133
20.260       207
20.270       173
20.280       213
20.290       160
20.300       207
20.310       147
20.320       200
20.330       133
20.340       227
20.350       180
20.360       147
20.370       147
20.380       193
20.390       120
20.400       167
20.410       200
20.420       127
20.430       160
20.440       173
20.450       140
20.460       227
20.470       147
20.480       233
20.490       173
20.500       173
20.510       160
20.520       153
20.530       193
20.540       127
20.550       213
20.560       160
20.570       133
20.580       153
20.590       180
20.600       153
20.610       200
20.620       147
20.630       153
20.640       213
20.650       167
20.660       160
20.670       200
20.680       167
20.690       213
20.700       220
20.710       153
20.720       180
20.730       267
20.740       200
20.750       153
20.760       173
20.770       160
20.780       140
20.790       220
20.800       253
20.810       167
20.820       220
20.830       207
20.840       120
20.850       213
20.860       173
20.870       253
20.880       167
20.890       173
20.900       213
20.910       207
20.920       187
20.930       187
20.940       200
20.950       220
20.960       200
20.970       200
20.980       167
20.990       193
21.000       293
21.010       173
21.020       253
21.030       240
21.040       273
21.050       227
21.060       413
21.070       280
21.080       380
21.090       253
21.100       320
21.110       187
21.120       293
21.130       267
21.140       273
21.150       273
21.160       333
21.170       440
21.180       626
21.190       726
21.200       933
21.210      1206
21.220      1339
21.230      1259
21.240      1306
21.250       973
21.260       780
21.270       506
21.280       380
21.290       433
21.300       373
21.310       333
21.320       320
21.330       267
21.340       273
21.350       207
21.360       260
21.370       287
21.380       273
21.390       213
21.400       260
21.410       200
21.420       280
21.430       240
21.440       213
21.450       300
21.460       253
21.470       340
21.480       227
21.490       207
21.500       260
21.510       280
21.520       220
21.530       287
21.540       247
21.550       267
21.560       187
21.570       253
21.580       267
21.590       187
21.600       260
21.610       207
21.620       300
21.630       267
21.640       287
21.650       220
21.660       167
21.670       300
21.680       240
21.690       253
21.700       260
21.710       373
21.720       253
21.730       247
21.740       233
21.750       273
21.760       300
21.770       213
21.780       313
21.790       327
21.800       300
21.810       333
21.820       253
21.830       207
21.840       280
21.850       333
21.860       220
21.870       307
21.880       340
21.890       187
21.900       333
21.910       287
21.920       320
21.930       293
21.940       267
21.950       287
21.960       300
21.970       347
21.980       287
21.990       267
22.000       287
22.010       273
22.020       367
22.030       360
22.040       293
22.050       313
22.060       287
22.070       267
22.080       273
22.090       293
22.100       320
22.110       433
22.120       300
22.130       360
22.140       293
22.150       393
22.160       420
22.170       433
22.180       340
22.190       367
22.200       380
22.210       407
22.220       426
22.230       407
22.240       480
22.250       433
22.260       460
22.270       473
22.280       633
22.290       706
22.300       746
22.310       706
22.320       973
22.330       840
22.340      1113
22.350      1286
22.360      1399
22.370      1633
22.380      1859
22.390      2152
22.400      2419
22.410      2572
22.420      2599
22.430      2792
22.440      3065
22.450      3312
22.460      3005
22.470      3252
22.480      3532
22.490      3599
22.500      3645
22.510      3592
22.520      3692
22.530      3665
22.540      3472
22.550      3279
22.560      2706
22.570      2512
22.580      2252
22.590      2146
22.600      1899
22.610      1459
22.620      1266
22.630      1173
22.640       933
22.650       926
22.660       900
22.670       820
22.680       760
22.690       780
22.700       766
22.710       840
22.720       700
22.730       940
22.740       953
22.750       940
22.760       913
22.770       933
22.780      1000
22.790       933
22.800       880
22.810       880
22.820       826
22.830       786
22.840       760
22.850       860
22.860       773
22.870       913
22.880       953
22.890       833
22.900       766
22.910       833
22.920       833
22.930       826
22.940       786
22.950       873
22.960       853
22.970       860
22.980       773
22.990       833
23.000       886
23.010       893
23.020      1000
23.030       966
23.040       840
23.050       913
23.060      1020
23.070       953
23.080       926
23.090       873
23.100       820
23.110       880
23.120      1020
23.130       960
23.140       973
23.150      1213
23.160      1126
23.170      1066
23.180      1200
23.190      1126
23.200      1120
23.210      1106
23.220      1233
23.230      1506
23.240      1759
23.250      1859
23.260      2246
23.270      2619
23.280      3152
23.290      4165
23.300      4525
23.310      5471
23.320      6218
23.330      7224
23.340      8170
23.350      8257
23.360      9056
23.370     10882
23.380     11589
23.390     12075
23.400     12382
23.410     13748
23.420     14694
23.430     17093
23.440     22658
23.450     32554
23.460     51726
23.470     73764
23.480     95089
23.490    113208
23.500    129695
23.510    142290
23.520    149447
23.530    145255
23.540    127029
23.550    104711
23.560     90337
23.570     87438
23.580     82047
23.590     70578
23.600     52866
23.610     32933
23.620     18526
23.630     11849
23.640      8310
23.650      6384
23.660      5045
23.670      4545
23.680      3845
23.690      3419
23.700      2985
23.710      2439
23.720      2159
23.730      2159
23.740      1786
23.750      1926
23.760      1659
23.770      1386
23.780      1699
23.790      1433
23.800      1506
23.810      1433
23.820      1339
23.830      1259
23.840      1133
23.850      1153
23.860      1160
23.870      1033
23.880      1120
23.890      1100
23.900      1126
23.910       946
23.920       993
23.930      1113
23.940      1173
23.950       953
23.960       860
23.970       960
23.980      1006
23.990       973
24.000       933
24.010      1046
24.020       960
24.030       973
24.040      1040
24.050       940
24.060       973
24.070       980
24.080       846
24.090       980
24.100      1040
24.110       960
24.120      1093
24.130       806
24.140       940
24.150       853
24.160       893
24.170       840
24.180      1146
24.190       946
24.200       806
24.210       826
24.220       773
24.230       860
24.240       946
24.250      1000
24.260       886
24.270       780
24.280      1033
24.290       813
24.300       813
24.310       713
24.320       806
24.330       853
24.340      1000
24.350       920
24.360       833
24.370       880
24.380       626
24.390       966
24.400       760
24.410       846
24.420       866
24.430       680
24.440       760
24.450       740
24.460       900
24.470       826
24.480       753
24.490       786
24.500       733
24.510       680
24.520       806
24.530       826
24.540       740
24.550       773
24.560       766
24.570       786
24.580       846
24.590       726
24.600       766
24.610       780
24.620       900
24.630       760
24.640       600
24.650       853
24.660       780
24.670       800
24.680       813
24.690       766
24.700       713
24.710       873
24.720       693
24.730       800
24.740       746
24.750       620
24.760       840
24.770       800
24.780       746
24.790       693
24.800       686
24.810       840
24.820       660
24.830       626
24.840       633
24.850       800
24.860       753
24.870       773
24.880       660
24.890       706
24.900       753
24.910       666
24.920       680
24.930       633
24.940       766
24.950       760
24.960       646
24.970       713
24.980       673
24.990       686
25.000       713
25.010       800
25.020       700
25.030       646
25.040       760
25.050       720
25.060       713
25.070       786
25.080       606
25.090       706
25.100       726
25.110       786
25.120       640
25.130       660
25.140       740
25.150       600
25.160       713
25.170       733
25.180       833
25.190       733
25.200       740
25.210       593
25.220       606
25.230       593
25.240       766
25.250       700
25.260       620
25.270       666
25.280       613
25.290       766
25.300       646
25.310       553
25.320       653
25.330       553
25.340       673
25.350       713
25.360       680
25.370       733
25.380       693
25.390       740
25.400       666
25.410       600
25.420       600
25.430       640
25.440       680
25.450       660
25.460       626
25.470       700
25.480       720
25.490       673
25.500       640
25.510       600
25.520       626
25.530       613
25.540       713
25.550       526
25.560       780
25.570       700
25.580       546
25.590       640
25.600       620
25.610       646
25.620       520
25.630       633
25.640       706
25.650       546
25.660       666
25.670       586
25.680       606
25.690       653
25.700       666
25.710       633
25.720       580
25.730       733
25.740       706
25.750       613
25.760       566
25.770       720
25.780       540
25.790       680
25.800       646
25.810       766
25.820       786
25.830       786
25.840       653
25.850       646
25.860       593
25.870       573
25.880       553
25.890       600
25.900       600
25.910       773
25.920       513
25.930       586
25.940       586
25.950       613
25.960       586
25.970       620
25.980       646
25.990       560
26.000       506
26.010       560
26.020       546
26.030       773
26.040       673
26.050       606
26.060       640
26.070       573
26.080       746
26.090       600
26.100       740
26.110       720
26.120       706
26.130       746
26.140       793
26.150       580
26.160       713
26.170       626
26.180       693
26.190       593
26.200       526
26.210       680
26.220       660
26.230       560
26.240       673
26.250       520
26.260       613
26.270       546
26.280       646
26.290       533
26.300       713
26.310       533
26.320       746
26.330       720
26.340       713
26.350       660
26.360       640
26.370       673
26.380       660
26.390       733
26.400       526
26.410       593
26.420       540
26.430       626
26.440       673
26.450       573
26.460       766
26.470       580
26.480       613
26.490       526
26.500       653
26.510       653
26.520       626
26.530       520
26.540       553
26.550       680
26.560       493
26.570       680
26.580       673
26.590       640
26.600       580
26.610       753
26.620       686
26.630       486
26.640       580
26.650       646
26.660       560
26.670       673
26.680       653
26.690       573
26.700       653
26.710       640
26.720       620
26.730       486
26.740       673
26.750       653
26.760       593
26.770       600
26.780       573
26.790       626
26.800       646
26.810       446
26.820       553
26.830       613
26.840       660
26.850       586
26.860       520
26.870       633
26.880       540
26.890       673
26.900       573
26.910       573
26.920       540
26.930       640
26.940       693
26.950       606
26.960       540
26.970       600
26.980       573
26.990       533
27.000       526
27.010       553
27.020       493
27.030       673
27.040       620
27.050       526
27.060       593
27.070       626
27.080       646
27.090       580
27.100       660
27.110       486
27.120       586
27.130       653
27.140       593
27.150       513
27.160       633
27.170       733
27.180       500
27.190       593
27.200       600
27.210       573
27.220       653
27.230       593
27.240       566
27.250       533
27.260       553
27.270       566
27.280       606
27.290       573
27.300       553
27.310       546
27.320       500
27.330       673
27.340       700
27.350       580
27.360       553
27.370       566
27.380       546
27.390       500
27.400       566
27.410       660
27.420       646
27.430       513
27.440       540
27.450       593
27.460       600
27.470       580
27.480       573
27.490       573
27.500       546
27.510       480
27.520       500
27.530       646
27.540       700
27.550       573
27.560       560
27.570       560
27.580       660
27.590       473
27.600       500
27.610       553
27.620       593
27.630       473
27.640       633
27.650       546
27.660       553
27.670       553
27.680       546
27.690       606
27.700       446
27.710       500
27.720       586
27.730       540
27.740       513
27.750       520
27.760       480
27.770       540
27.780       486
27.790       733
27.800       586
27.810       660
27.820       453
27.830       526
27.840       560
27.850       573
27.860       493
27.870       566
27.880       540
27.890       560
27.900       646
27.910       613
27.920       473
27.930       500
27.940       466
27.950       540
27.960       540
27.970       466
27.980       626
27.990       486
28.000       613
28.010       620
28.020       453
28.030       473
28.040       493
28.050       573
28.060       513
28.070       520
28.080       506
28.090       513
28.100       500
28.110       586
28.120       613
28.130       540
28.140       533
28.150       513
28.160       573
28.170       533
28.180       546
28.190       600
28.200       633
28.210       553
28.220       546
28.230       520
28.240       546
28.250       546
28.260       600
28.270       533
28.280       566
28.290       553
28.300       533
28.310       613
28.320       580
28.330       426
28.340       486
28.350       480
28.360       560
28.370       513
28.380       493
28.390       486
28.400       546
28.410       546
28.420       593
28.430       500
28.440       426
28.450       493
28.460       453
28.470       540
28.480       526
28.490       560
28.500       493
28.510       560
28.520       493
28.530       486
28.540       480
28.550       426
28.560       466
28.570       446
28.580       560
28.590       480
28.600       600
28.610       493
28.620       540
28.630       466
28.640       433
28.650       506
28.660       486
28.670       466
28.680       486
28.690       420
28.700       433
28.710       526
28.720       387
28.730       566
28.740       426
28.750       566
28.760       407
28.770       493
28.780       313
28.790       546
28.800       526
28.810       373
28.820       347
28.830       340
28.840       433
28.850       400
28.860       493
28.870       546
28.880       520
28.890       413
28.900       440
28.910       400
28.920       433
28.930       407
28.940       453
28.950       500
28.960       360
28.970       473
28.980       540
28.990       493
29.000       373
29.010       460
29.020       486
29.030       347
29.040       373
29.050       400
29.060       426
29.070       407
29.080       433
29.090       380
29.100       393
29.110       500
29.120       420
29.130       393
29.140       387
29.150       340
29.160       393
29.170       387
29.180       440
29.190       380
29.200       393
29.210       353
29.220       506
29.230       540
29.240       540
29.250       380
29.260       433
29.270       420
29.280       453
29.290       387
29.300       486
29.310       473
29.320       473
29.330       400
29.340       433
29.350       446
29.360       533
29.370       387
29.380       426
29.390       480
29.400       413
29.410       413
29.420       413
29.430       513
29.440       393
29.450       400
29.460       373
29.470       413
29.480       393
29.490       367
29.500       426
29.510       420
29.520       420
29.530       500
29.540       387
29.550       460
29.560       433
29.570       453
29.580       446
29.590       333
29.600       380
29.610       393
29.620       426
29.630       413
29.640       426
29.650       360
29.660       433
29.670       407
29.680       380
29.690       360
29.700       407
29.710       420
29.720       473
29.730       373
29.740       393
29.750       300
29.760       367
29.770       367
29.780       340
29.790       400
29.800       413
29.810       460
29.820       420
29.830       440
29.840       407
29.850       340
29.860       440
29.870       360
29.880       307
29.890       420
29.900       367
29.910       387
29.920       373
29.930       367
29.940       373
29.950       320
29.960       407
29.970       340
29.980       373
29.990       380
30.000       273
30.010       407
30.020       360
30.030       380
30.040       327
30.050       440
30.060       500
30.070       340
30.080       340
30.090       426
30.100       320
30.110       440
30.120       280
30.130       353
30.140       333
30.150       300
30.160       373
30.170       393
30.180       413
30.190       400
30.200       393
30.210       353
30.220       433
30.230       473
30.240       426
30.250       473
30.260       400
30.270       360
30.280       373
30.290       407
30.300       387
30.310       393
30.320       300
30.330       393
30.340       433
30.350       313
30.360       387
30.370       353
30.380       353
30.390       280
30.400       367
30.410       360
30.420       287
30.430       293
30.440       380
30.450       293
30.460       333
30.470       353
30.480       353
30.490       387
30.500       426
30.510       320
30.520       367
30.530       373
30.540       347
30.550       233
30.560       340
30.570       340
30.580       333
30.590       393
30.600       360
30.610       380
30.620       380
30.630       327
30.640       333
30.650       367
30.660       446
30.670       400
30.680       387
30.690       340
30.700       267
30.710       353
30.720       446
30.730       367
30.740       247
30.750       253
30.760       426
30.770       320
30.780       387
30.790       426
30.800       293
30.810       347
30.820       373
30.830       327
30.840       333
30.850       307
30.860       300
30.870       320
30.880       466
30.890       347
30.900       367
30.910       413
30.920       380
30.930       387
30.940       387
30.950       340
30.960       426
30.970       280
30.980       320
30.990       280
31.000       373
31.010       287
31.020       387
31.030       380
31.040       400
31.050       280
31.060       333
31.070       260
31.080       287
31.090       413
31.100       293
31.110       353
31.120       280
31.130       426
31.140       426
31.150       327
31.160       300
31.170       340
31.180       313
31.190       267
31.200       407
31.210       233
31.220       313
31.230       287
31.240       280
31.250       300
31.260       313
31.270       293
31.280       300
31.290       340
31.300       333
31.310       380
31.320       300
31.330       187
31.340       280
31.350       367
31.360       360
31.370       413
31.380       207
31.390       253
31.400       287
31.410       280
31.420       333
31.430       313
31.440       320
31.450       307
31.460       267
31.470       393
31.480       280
31.490       300
31.500       273
31.510       233
31.520       307
31.530       327
31.540       300
31.550       333
31.560       287
31.570       373
31.580       233
31.590       300
31.600       353
31.610       313
31.620       327
31.630       320
31.640       280
31.650       327
31.660       287
31.670       300
31.680       273
31.690       260
31.700       247
31.710       367
31.720       260
31.730       426
31.740       327
31.750       293
31.760       327
31.770       273
31.780       293
31.790       287
31.800       247
31.810       333
31.820       233
31.830       227
31.840       227
31.850       340
31.860       280
31.870       307
31.880       240
31.890       227
31.900       313
31.910       233
31.920       347
31.930       293
31.940       387
31.950       307
31.960       320
31.970       280
31.980       353
31.990       313
32.000       333
32.010       480
32.020       307
32.030       380
32.040       333
32.050       253
32.060       307
32.070       380
32.080       347
32.090       300
32.100       353
32.110       307
32.120       220
32.130       347
32.140       293
32.150       220
32.160       327
32.170       280
32.180       360
32.190       380
32.200       240
32.210       267
32.220       293
32.230       313
32.240       227
32.250       280
32.260       287
32.270       300
32.280       267
32.290       293
32.300       200
32.310       233
32.320       287
32.330       233
32.340       233
32.350       213
32.360       260
32.370       307
32.380       340
32.390       240
32.400       187
32.410       260
32.420       213
32.430       260
32.440       227
32.450       267
32.460       347
32.470       280
32.480       247
32.490       267
32.500       307
32.510       287
32.520       300
32.530       240
32.540       327
32.550       280
32.560       273
32.570       293
32.580       287
32.590       267
32.600       273
32.610       300
32.620       307
32.630       333
32.640       267
32.650       167
32.660       287
32.670       313
32.680       260
32.690       207
32.700       287
32.710       280
32.720       220
32.730       307
32.740       273
32.750       200
32.760       233
32.770       247
32.780       293
32.790       227
32.800       260
32.810       193
32.820       260
32.830       280
32.840       200
32.850       260
32.860       207
32.870       260
32.880       247
32.890       267
32.900       247
32.910       293
32.920       213
32.930       353
32.940       287
32.950       313
32.960       313
32.970       300
32.980       233
32.990       247
33.000       187
33.010       300
33.020       187
33.030       207
33.040       327
33.050       267
33.060       333
33.070       273
33.080       213
33.090       287
33.100       260
33.110       193
33.120       240
33.130       160
33.140       200
33.150       207
33.160       240
33.170       287
33.180       240
33.190       267
33.200       187
33.210       227
33.220       233
33.230       233
33.240       327
33.250       300
33.260       287
33.270       253
33.280       220
33.290       227
33.300       233
33.310       267
33.320       160
33.330       227
33.340       193
33.350       260
33.360       233
33.370       220
33.380       207
33.390       273
33.400       240
33.410       267
33.420       193
33.430       180
33.440       180
33.450       253
33.460       280
33.470       253
33.480       167
33.490       233
33.500       260
33.510       193
33.520       220
33.530       233
33.540       220
33.550       273
33.560       267
33.570       233
33.580       233
33.590       260
33.600       247
33.610       213
33.620       187
33.630       267
33.640       213
33.650       193
33.660       140
33.670       187
33.680       147
33.690       220
33.700       260
33.710       320
33.720       260
33.730       287
33.740       233
33.750       220
33.760       153
33.770       153
33.780       233
33.790       220
33.800       167
33.810       160
33.820       180
33.830       173
33.840       260
33.850       220
33.860       247
33.870       160
33.880       160
33.890       187
33.900       200
33.910       200
33.920       247
33.930       233
33.940       193
33.950       127
33.960       213
33.970       207
33.980       220
33.990       133
34.000       287
34.010       187
34.020       233
34.030       207
34.040       227
34.050       213
34.060       193
34.070       227
34.080       220
34.090        93
34.100       207
34.110       247
34.120       220
34.130       213
34.140       213
34.150       147
34.160       200
34.170       147
34.180       140
34.190       220
34.200       260
34.210       193
34.220       220
34.230       173
34.240       133
34.250       213
34.260       220
34.270       207
34.280       140
34.290       293
34.300       227
34.310       180
34.320       220
34.330       193
34.340       193
34.350       260
34.360       160
34.370       133
34.380       220
34.390       187
34.400       200
34.410       200
34.420       187
34.430       233
34.440       180
34.450       187
34.460       173
34.470       160
34.480       207
34.490       113
34.500       187
34.510       160
34.520       207
34.530       193
34.540       213
34.550       140
34.560       193
34.570       193
34.580       233
34.590       213
34.600       160
34.610       153
34.620       120
34.630       187
34.640       167
34.650       167
34.660       187
34.670       167
34.680       173
34.690       187
34.700       213
34.710       133
34.720       153
34.730       207
34.740       220
34.750       120
34.760       213
34.770       180
34.780       140
34.790       240
34.800       213
34.810       167
34.820       107
34.830       153
34.840       180
34.850       253
34.860       173
34.870       213
34.880       147
34.890       133
34.900       107
34.910       227
34.920       153
34.930       100
34.940       147
34.950       153
34.960       167
34.970       120
34.980       160
34.990       160
35.000       153
35.010       180
35.020       227
35.030       220
35.040       200
35.050       187
35.060       140
35.070       120
35.080       180
35.090       140
35.100       193
35.110       187
35.120       167
35.130       140
35.140       153
35.150       147
35.160       140
35.170       120
35.180       193
35.190       100
35.200       153
35.210       140
35.220       147
35.230       153
35.240       173
35.250       147
35.260       180
35.270       173
35.280       147
35.290       267
35.300       153
35.310       127
35.320       153
35.330       153
35.340       213
35.350       207
35.360       147
35.370       173
35.380       147
35.390       160
35.400        93
35.410       153
35.420       120
35.430        87
35.440       107
35.450       173
35.460       267
35.470       140
35.480       207
35.490       227
35.500       153
35.510       173
35.520       187
35.530       153
35.540       140
35.550       127
35.560       193
35.570       187
35.580       127
35.590       160
35.600       107
35.610       140
35.620       227
35.630       153
35.640       167
35.650       100
35.660       160
35.670       147
35.680       160
35.690       167
35.700       167
35.710       120
35.720       173
35.730       140
35.740        87
35.750       133
35.760       173
35.770       180
35.780       153
35.790       180
35.800       187
35.810       160
35.820       173
35.830       113
35.840       120
35.850       107
35.860       100
35.870       133
35.880       180
35.890       133
35.900       167
35.910       127
35.920       180
35.930       120
35.940       133
35.950       247
35.960       200
35.970       167
35.980       193
35.990       120
36.000        87
36.010       147
36.020       200
36.030       187
36.040       113
36.050       187
36.060       140
36.070       113
36.080       113
36.090       227
36.100       160
36.110       147
36.120       173
36.130       147
36.140       147
36.150       187
36.160       207
36.170       140
36.180       113
36.190       107
36.200       153
36.210       113
36.220       133
36.230       153
36.240       140
36.250       133
36.260       120
36.270       133
36.280       193
36.290       133
36.300       207
36.310       167
36.320       167
36.330       153
36.340       100
36.350       180
36.360       147
36.370       153
36.380       113
36.390       147
36.400       147
36.410       147
36.420       187
36.430       140
36.440       133
36.450       140
36.460       127
36.470       200
36.480        87
36.490       147
36.500       187
36.510       140
36.520       133
36.530       193
36.540       147
36.550       160
36.560       127
36.570       167
36.580       173
36.590       127
36.600       113
36.610       120
36.620       140
36.630       140
36.640       167
36.650       113
36.660       167
36.670       140
36.680       133
36.690       200
36.700       213
36.710       167
36.720       213
36.730       133
36.740       140
36.750       107
36.760       133
36.770       127
36.780       113
36.790        87
36.800       133
36.810       133
36.820       133
36.830       127
36.840       127
36.850       120
36.860       173
36.870       133
36.880       133
36.890       120
36.900        80
36.910       180
36.920       120
36.930       120
36.940        80
36.950        93
36.960       107
36.970       147
36.980       107
36.990       113
37.000        73
37.010       100
37.020       120
37.030       147
37.040       120
37.050       153
37.060        87
37.070       113
37.080       153
37.090       193
37.100       127
37.110       147
37.120        93
37.130       113
37.140       187
37.150       133
37.160       100
37.170       107
37.180       120
37.190        93
37.200       100
37.210       113
37.220       147
37.230       120
37.240        80
37.250       140
37.260       127
37.270       120
37.280       120
37.290       100
37.300       107
37.310       133
37.320        73
37.330       100
37.340       127
37.350       127
37.360       173
37.370       113
37.380       107
37.390       147
37.400       153
37.410       120
37.420       100
37.430       147
37.440       120
37.450       160
37.460       140
37.470       167
37.480       113
37.490       113
37.500       127
37.510       113
37.520        93
37.530       173
37.540       120
37.550       133
37.560       127
37.570       113
37.580       100
37.590       113
37.600        67
37.610       120
37.620       120
37.630       167
37.640       127
37.650       113
37.660       100
37.670       173
37.680       147
37.690       107
37.700       160
37.710       147
37.720       147
37.730       133
37.740       113
37.750       107
37.760       113
37.770       107
37.780       120
37.790       147
37.800       173
37.810        93
37.820       120
37.830       127
37.840        73
37.850       140
37.860       153
37.870       107
37.880        80
37.890        93
37.900        93
37.910       107
37.920       153
37.930       107
37.940       167
37.950       133
37.960       173
37.970       140
37.980        93
37.990       160
38.000       113
38.010       147
38.020        93
38.030       120
38.040       147
38.050       167
38.060       133
38.070        87
38.080       133
38.090       147
38.100        80
38.110       120
38.120       127
38.130       133
38.140       113
38.150       173
38.160       140
38.170        93
38.180       100
38.190        80
38.200       153
38.210       167
38.220       107
38.230       127
38.240        87
38.250       107
38.260       127
38.270       153
38.280       147
38.290        93
38.300       120
38.310        93
38.320        73
38.330        60
38.340        87
38.350       113
38.360       100
38.370        93
38.380       107
38.390       100
38.400       113
38.410       160
38.420       120
38.430       127
38.440       133
38.450       100
38.460        87
38.470        80
38.480       100
38.490       173
38.500       140
38.510        93
38.520       153
38.530       127
38.540       113
38.550       113
38.560       133
38.570       127
38.580       113
38.590        87
38.600       173
38.610       113
38.620       133
38.630       113
38.640       127
38.650        67
38.660       153
38.670       120
38.680       173
38.690        80
38.700       140
38.710       113
38.720       147
38.730       120
38.740       140
38.750       107
38.760       100
38.770       100
38.780        93
38.790       107
38.800        40
38.810       153
38.820       120
38.830       153
38.840       107
38.850       107
38.860       100
38.870       167
38.880        67
38.890       107
38.900       120
38.910       113
38.920       107
38.930       140
38.940        93
38.950       107
38.960       133
38.970        93
38.980       147
38.990       133
39.000       127
39.010        73
39.020       120
39.030       147
39.040        93
39.050       107
39.060       107
39.070        87
39.080       100
39.090       100
39.100        93
39.110       113
39.120        60
39.130       107
39.140       120
39.150        93
39.160        87
39.170       113
39.180       147
39.190       100
39.200       113
39.210       113
39.220        53
39.230       127
39.240       167
39.250        93
39.260       113
39.270        73
39.280       127
39.290       100
39.300        80
39.310       173
39.320        80
39.330       113
39.340        67
39.350        93
39.360        53
39.370       153
39.380       107
39.390       113
39.400        87
39.410       107
39.420       100
39.430        80
39.440       140
39.450       153
39.460        87
39.470       133
39.480       120
39.490       113
39.500       140
39.510       127
39.520       220
39.530       133
39.540       100
39.550       180
39.560       133
39.570       173
39.580       187
39.590       227
39.600       180
39.610       133
39.620       147
39.630       167
39.640       173
39.650       147
39.660       133
39.670       140
39.680       140
39.690       127
39.700       193
39.710       167
39.720       147
39.730       147
39.740       133
39.750       120
39.760       173
39.770       160
39.780       120
39.790       127
39.800       133
39.810       113
39.820       127
39.830        87
39.840       133
39.850       100
39.860       127
39.870       107
39.880       107
39.890        87
39.900       107
39.910        87
39.920       113
39.930        80
39.940       107
39.950        60
39.960       100
39.970        93
39.980       113
39.990        80
40.000       113
40.010       107
40.020       160
40.030        60
40.040       120
40.050       167
40.060       100
40.070        87
40.080       113
40.090       120
40.100       127
40.110       107
40.120        93
40.130        67
40.140       100
40.150        80
40.160        80
40.170       100
40.180       113
40.190       100
40.200        73
40.210        13
40.220        93
40.230        80
40.240       127
40.250       147
40.260       127
40.270       113
40.280        93
40.290       100
40.300       107
40.310        40
40.320       100
40.330        60
40.340        73
40.350        93
40.360       100
40.370       127
40.380       160
40.390        80
40.400       153
40.410        73
40.420       107
40.430        33
40.440        87
40.450        80
40.460       133
40.470       107
40.480       147
40.490       120
40.500        93
40.510        27
40.520        53
40.530       120
40.540       120
40.550       127
40.560        93
40.570        87
40.580        87
40.590       127
40.600       127
40.610       140
40.620        73
40.630       133
40.640       107
40.650       100
40.660       107
40.670       100
40.680       113
40.690        53
40.700       133
40.710       100
40.720       107
40.730       113
40.740       120
40.750        80
40.760       120
40.770       133
40.780        80
40.790        73
40.800        67
40.810       113
40.820        93
40.830        67
40.840       100
40.850        80
40.860       133
40.870       147
40.880       113
40.890       140
40.900       107
40.910       127
40.920       120
40.930       100
40.940        87
40.950        93
40.960       120
40.970       120
40.980       147
40.990       173
41.000       107
41.010       200
41.020       153
41.030        73
41.040       160
41.050       173
41.060       240
41.070       167
41.080       227
41.090       200
41.100       147
41.110       133
41.120       167
41.130       207
41.140       173
41.150       180
41.160       173
41.170       207
41.180       167
41.190       213
41.200       187
41.210       267
41.220       220
41.230       153
41.240       227
41.250       213
41.260       233
41.270       173
41.280       213
41.290       140
41.300       193
41.310       160
41.320       167
41.330       160
41.340       167
41.350       133
41.360       187
41.370       113
41.380       167
41.390       100
41.400        93
41.410       140
41.420       193
41.430        93
41.440       160
41.450       153
41.460        93
41.470       193
41.480       127
41.490       113
41.500       160
41.510        80
41.520       180
41.530       127
41.540       167
41.550       127
41.560        67
41.570        67
41.580       140
41.590       100
41.600        53
41.610       107
41.620       133
41.630        80
41.640        87
41.650       167
41.660        87
41.670       107
41.680       100
41.690        60
41.700        87
41.710       113
41.720       107
41.730       133
41.740       153
41.750       160
41.760       113
41.770       153
41.780        93
41.790       107
41.800        80
41.810        60
41.820       113
41.830        53
41.840        93
41.850        93
41.860       140
41.870       140
41.880        80
41.890       107
41.900       140
41.910        93
41.920       100
41.930        73
41.940        87
41.950       133
41.960       120
41.970       120
41.980        67
41.990        73
42.000       100
42.010       153
42.020       127
42.030       107
42.040       100
42.050       113
42.060       100
42.070        73
42.080       133
42.090       127
42.100        60
42.110        73
42.120       133
42.130        80
42.140       113
42.150       100
42.160        73
42.170       107
42.180       113
42.190        73
42.200        67
42.210        87
42.220        53
42.230        60
42.240        73
42.250       113
42.260        73
42.270       127
42.280        93
42.290        73
42.300        73
42.310       113
42.320        87
42.330       133
42.340        80
42.350        53
42.360        67
42.370       140
42.380       153
42.390        80
42.400        87
42.410       100
42.420       140
42.430        80
42.440        67
42.450       100
42.460        67
42.470       120
42.480        67
42.490        80
42.500        67
42.510       113
42.520        80
42.530       100
42.540        53
42.550        80
42.560       127
42.570        87
42.580       107
42.590       147
42.600        73
42.610       107
42.620       100
42.630       107
42.640       107
42.650       113
42.660        80
42.670        73
42.680        60
42.690       147
42.700       140
42.710       153
42.720       100
42.730       133
42.740       173
42.750       153
42.760       140
42.770       147
42.780       193
42.790       187
42.800       133
42.810       153
42.820       113
42.830       193
42.840       133
42.850       120
42.860       173
42.870       160
42.880       213
42.890       153
42.900       187
42.910       193
42.920       147
42.930       220
42.940       173
42.950       200
42.960       293
42.970       227
42.980       220
42.990       280
43.000       193
43.010       247
43.020       260
43.030       333
43.040       367
43.050       413
43.060       420
43.070       620
43.080       686
43.090       920
43.100      1299
43.110      1573
43.120      2499
43.130      2719
43.140      3099
43.150      2925
43.160      3172
43.170      2719
43.180      2299
43.190      1726
43.200      1459
43.210       980
43.220       826
43.230       626
43.240       453
43.250       473
43.260       486
43.270       373
43.280       473
43.290       267
43.300       233
43.310       313
43.320       227
43.330       313
43.340       193
43.350       187
43.360       193
43.370       187
43.380       200
43.390       153
43.400       207
43.410       160
43.420       173
43.430       180
43.440       240
43.450       173
43.460       153
43.470       227
43.480       213
43.490       180
43.500       167
43.510       173
43.520       187
43.530       147
43.540       107
43.550       200
43.560       107
43.570       193
43.580       207
43.590       107
43.600       133
43.610       107
43.620       173
43.630       140
43.640       153
43.650       200
43.660       133
43.670       153
43.680       120
43.690       153
43.700       200
43.710       113
43.720       127
43.730       120
43.740       153
43.750       187
43.760        87
43.770       167
43.780       140
43.790       160
43.800       187
43.810       167
43.820       127
43.830       160
43.840       167
43.850       113
43.860       107
43.870        87
43.880       107
43.890       160
43.900       140
43.910       180
43.920       113
43.930       113
43.940       120
43.950       153
43.960       113
43.970       120
43.980       133
43.990       133
44.000       107
44.010       180
44.020       113
44.030       193
44.040       167
44.050       187
44.060       187
44.070       247
44.080       193
44.090       113
44.100       133
44.110        60
44.120       180
44.130       160
44.140       140
44.150       200
44.160       273
44.170       193
44.180       187
44.190       233
44.200       193
44.210       187
44.220       227
44.230       180
44.240       213
44.250       233
44.260       227
44.270       207
44.280       147
44.290       193
44.300       267
44.310       240
44.320       140
44.330       233
44.340       240
44.350       227
44.360       200
44.370       267
44.380       260
44.390       300
44.400       213
44.410       247
44.420       200
44.430       273
44.440       187
44.450       267
44.460       220
44.470       247
44.480       240
44.490       227
44.500       167
44.510       293
44.520       173
44.530       313
44.540       193
44.550       173
44.560       253
44.570       220
44.580       233
44.590       267
44.600       207
44.610       220
44.620       293
44.630       200
44.640       220
44.650       280
44.660       293
44.670       293
44.680       220
44.690       253
44.700       280
44.710       373
44.720       213
44.730       273
44.740       213
44.750       200
44.760       260
44.770       287
44.780       260
44.790       260
44.800       320
44.810       293
44.820       253
44.830       300
44.840       200
44.850       253
44.860       313
44.870       287
44.880       260
44.890       193
44.900       247
44.910       213
44.920       273
44.930       233
44.940       300
44.950       280
44.960       327
44.970       353
44.980       253
44.990       200
45.000       360
45.010       280
45.020       320
45.030       293
45.040       240
45.050       387
45.060       280
45.070       320
45.080       327
45.090       400
45.100       320
45.110       327
45.120       307
45.130       420
45.140       387
45.150       400
45.160       353
45.170       393
45.180       407
45.190       446
45.200       566
45.210       500
45.220       453
45.230       526
45.240       540
45.250       546
45.260       560
45.270       573
45.280       526
45.290       580
45.300       593
45.310       820
45.320       766
45.330       693
45.340       866
45.350       953
45.360      1040
45.370      1113
45.380      1306
45.390      1359
45.400      1513
45.410      1799
45.420      1613
45.430      1893
45.440      2306
45.450      2152
45.460      2406
45.470      2586
45.480      2812
45.490      3245
45.500      3492
45.510      3925
45.520      4072
45.530      4678
45.540      5185
45.550      5558
45.560      6078
45.570      6451
45.580      7164
45.590      8037
45.600      8257
45.610      9056
45.620      9070
45.630     10123
45.640     10549
45.650     11076
45.660     11702
45.670     12522
45.680     12328
45.690     13288
45.700     13368
45.710     14747
45.720     14694
45.730     15101
45.740     14974
45.750     15760
45.760     15967
45.770     16253
45.780     16167
45.790     16493
45.800     16767
45.810     17506
45.820     17946
45.830     17753
45.840     18379
45.850     18339
45.860     18573
45.870     19192
45.880     19039
45.890     19499
45.900     18806
45.910     18886
45.920     18832
45.930     17666
45.940     18093
45.950     17240
45.960     16487
45.970     16220
45.980     14687
45.990     14761
46.000     13328
46.010     12768
46.020     12162
46.030     11076
46.040     10836
46.050     10349
46.060      9310
46.070      9103
46.080      7710
46.090      7650
46.100      6504
46.110      6171
46.120      5698
46.130      5491
46.140      4745
46.150      4078
46.160      3785
46.170      3785
46.180      3032
46.190      2712
46.200      2572
46.210      2359
46.220      2226
46.230      1966
46.240      1793
46.250      1839
46.260      1919
46.270      1793
46.280      1666
46.290      1899
46.300      1646
46.310      1786
46.320      1979
46.330      1773
46.340      1626
46.350      1606
46.360      1599
46.370      1699
46.380      1559
46.390      1766
46.400      1659
46.410      1666
46.420      1253
46.430      1499
46.440      1339
46.450      1466
46.460      1493
46.470      1493
46.480      1499
46.490      1286
46.500      1253
46.510      1366
46.520      1213
46.530      1313
46.540      1200
46.550      1173
46.560      1160
46.570      1146
46.580      1313
46.590      1093
46.600      1253
46.610      1399
46.620      1173
46.630      1206
46.640      1093
46.650      1100
46.660      1206
46.670      1259
46.680      1140
46.690      1093
46.700      1000
46.710      1140
46.720      1259
46.730      1093
46.740      1140
46.750      1126
46.760      1126
46.770      1066
46.780      1140
46.790      1066
46.800      1060
46.810      1206
46.820      1133
46.830       926
46.840      1153
46.850      1020
46.860      1146
46.870       926
46.880      1033
46.890       966
46.900      1040
46.910      1053
46.920      1113
46.930      1046
46.940      1000
46.950      1046
46.960      1306
46.970      1053
46.980      1106
46.990      1053
47.000       966
47.010      1046
47.020       946
47.030      1000
47.040       973
47.050      1053
47.060      1080
47.070      1006
47.080       993
47.090       953
47.100      1020
47.110       993
47.120      1006
47.130      1146
47.140       933
47.150      1106
47.160       986
47.170      1066
47.180      1046
47.190       960
47.200      1053
47.210       860
47.220      1193
47.230      1146
47.240      1040
47.250      1046
47.260      1040
47.270       940
47.280      1006
47.290       966
47.300      1046
47.310      1046
47.320      1206
47.330      1193
47.340      1273
47.350      1146
47.360      1086
47.370      1026
47.380      1273
47.390      1166
47.400      1100
47.410      1040
47.420      1160
47.430      1206
47.440      1126
47.450      1313
47.460      1146
47.470      1299
47.480      1266
47.490      1053
47.500      1226
47.510      1406
47.520      1346
47.530      1359
47.540      1419
47.550      1486
47.560      1559
47.570      1633
47.580      1686
47.590      1453
47.600      1673
47.610      1766
47.620      1719
47.630      1713
47.640      1946
47.650      1766
47.660      2212
47.670      2386
47.680      2466
47.690      2686
47.700      2792
47.710      3005
47.720      3605
47.730      3845
47.740      4465
47.750      5091
47.760      5771
47.770      6784
47.780      7930
47.790      9070
47.800     10436
47.810     12222
47.820     12815
47.830     14241
47.840     14894
47.850     16000
47.860     17193
47.870     18359
47.880     19625
47.890     21805
47.900     25130
47.910     28169
47.920     34786
47.930     41150
47.940     54625
47.950     70085
47.960     97734
47.970    131781
47.980    172578
47.990    206084
48.000    225323
48.010    234973
48.020    239031
48.030    234013
48.040    226023
48.050    197901
48.060    167007
48.070    133613
48.080    113015
48.090    105431
48.100    112948
48.110    126643
48.120    141417
48.130    151799
48.140    155618
48.150    156764
48.160    148974
48.170    135772
48.180    114074
48.190     88071
48.200     65161
48.210     47055
48.220     35286
48.230     27529
48.240     22571
48.250     18086
48.260     15414
48.270     13481
48.280     11049
48.290      9636
48.300      8157
48.310      6871
48.320      6011
48.330      5551
48.340      4605
48.350      3978
48.360      3798
48.370      3219
48.380      3005
48.390      2979
48.400      2619
48.410      2706
48.420      2579
48.430      2566
48.440      2292
48.450      2312
48.460      2059
48.470      2139
48.480      1993
48.490      1886
48.500      1746
48.510      1846
48.520      1726
48.530      1839
48.540      1653
48.550      1593
48.560      1593
48.570      1479
48.580      1633
48.590      1453
48.600      1373
48.610      1453
48.620      1433
48.630      1399
48.640      1459
48.650      1419
48.660      1346
48.670      1259
48.680      1113
48.690      1279
48.700      1220
48.710      1253
48.720      1200
48.730      1186
48.740      1213
48.750      1133
48.760      1113
48.770      1033
48.780      1206
48.790      1046
48.800       980
48.810       946
48.820      1093
48.830      1086
48.840      1026
48.850       880
48.860       920
48.870       933
48.880       926
48.890       860
48.900       953
48.910       846
48.920      1026
48.930      1060
48.940       986
48.950       946
48.960       946
48.970       920
48.980       753
48.990       966
49.000       846
49.010       893
49.020       840
49.030       840
49.040       720
49.050       806
49.060       880
49.070       933
49.080       733
49.090       813
49.100       800
49.110       713
49.120       633
49.130       860
49.140       960
49.150       840
49.160       760
49.170       846
49.180       900
49.190       766
49.200       726
49.210       813
49.220       726
49.230       806
49.240       793
49.250       753
49.260       720
49.270       606
49.280       800
49.290       780
49.300       653
49.310       666
49.320       720
49.330       773
49.340       726
49.350       586
49.360       713
49.370       546
49.380       780
49.390       586
49.400       720
49.410       833
49.420       666
49.430       666
49.440       733
49.450       706
49.460       686
49.470       600
49.480       760
49.490       726
49.500       713
49.510       726
49.520       700
49.530       653
49.540       666
49.550       653
49.560       653
49.570       706
49.580       593
49.590       573
49.600       700
49.610       693
49.620       713
49.630       793
49.640       660
49.650       666
49.660       653
49.670       620
49.680       640
49.690       660
49.700       753
49.710       640
49.720       626
49.730       573
49.740       546
49.750       640
49.760       806
49.770       746
49.780       680
49.790       720
49.800       580
49.810       713
49.820       593
49.830       560
49.840       600
49.850       580
49.860       520
49.870       613
49.880       606
49.890       706
49.900       713
49.910       720
49.920       580
49.930       493
49.940       480
49.950       433
49.960       446
49.970       520
49.980       520
49.990       586
50.000       526
50.010       573
50.020       693
50.030       540
50.040       466
50.050       533
50.060       620
50.070       666
50.080       500
50.090       573
50.100       680
50.110       606
50.120       460
50.130       740
50.140       460
50.150       573
50.160       546
50.170       606
50.180       533
50.190       673
50.200       506
50.210       580
50.220       653
50.230       553
50.240       533
50.250       573
50.260       513
50.270       580
50.280       513
50.290       513
50.300       566
50.310       566
50.320       433
50.330       533
50.340       580
50.350       553
50.360       520
50.370       586
50.380       486
50.390       533
50.400       633
50.410       480
50.420       586
50.430       533
50.440       520
50.450       533
50.460       513
50.470       500
50.480       540
50.490       586
50.500       553
50.510       566
50.520       546
50.530       420
50.540       533
50.550       446
50.560       573
50.570       407
50.580       407
50.590       500
50.600       546
50.610       426
50.620       540
50.630       460
50.640       520
50.650       533
50.660       473
50.670       520
50.680       560
50.690       526
50.700       526
50.710       473
50.720       446
50.730       453
50.740       493
50.750       486
50.760       546
50.770       453
50.780       533
50.790       360
50.800       506
50.810       526
50.820       506
50.830       466
50.840       493
50.850       466
50.860       420
50.870       506
50.880       360
50.890       460
50.900       433
50.910       446
50.920       480
50.930       446
50.940       533
50.950       466
50.960       500
50.970       400
50.980       420
50.990       420
51.000       606
51.010       540
51.020       473
51.030       373
51.040       473
51.050       466
51.060       373
51.070       446
51.080       506
51.090       473
51.100       453
51.110       460
51.120       453
51.130       393
51.140       460
51.150       446
51.160       520
51.170       360
51.180       426
51.190       480
51.200       473
51.210       453
51.220       446
51.230       400
51.240       513
51.250       526
51.260       440
51.270       460
51.280       446
51.290       327
51.300       426
51.310       380
51.320       466
51.330       340
51.340       533
51.350       493
51.360       453
51.370       486
51.380       560
51.390       387
51.400       486
51.410       360
51.420       446
51.430       367
51.440       460
51.450       473
51.460       407
51.470       480
51.480       473
51.490       440
51.500       393
51.510       407
51.520       520
51.530       446
51.540       520
51.550       407
51.560       466
51.570       426
51.580       393
51.590       426
51.600       400
51.610       440
51.620       420
51.630       413
51.640       440
51.650       367
51.660       486
51.670       440
51.680       480
51.690       413
51.700       540
51.710       486
51.720       420
51.730       353
51.740       360
51.750       400
51.760       387
51.770       367
51.780       347
51.790       380
51.800       426
51.810       300
51.820       380
51.830       413
51.840       413
51.850       446
51.860       407
51.870       380
51.880       453
51.890       420
51.900       287
51.910       433
51.920       433
51.930       466
51.940       360
51.950       460
51.960       347
51.970       373
51.980       413
51.990       373
52.000       413
52.010       426
52.020       466
52.030       433
52.040       327
52.050       380
52.060       367
52.070       373
52.080       433
52.090       420
52.100       393
52.110       260
52.120       360
52.130       380
52.140       486
52.150       307
52.160       426
52.170       333
52.180       486
52.190       400
52.200       373
52.210       360
52.220       360
52.230       353
52.240       373
52.250       333
52.260       387
52.270       360
52.280       293
52.290       400
52.300       420
52.310       307
52.320       273
52.330       420
52.340       380
52.350       407
52.360       347
52.370       293
52.380       300
52.390       333
52.400       380
52.410       313
52.420       373
52.430       393
52.440       313
52.450       453
52.460       413
52.470       333
52.480       273
52.490       360
52.500       360
52.510       247
52.520       367
52.530       407
52.540       400
52.550       347
52.560       373
52.570       313
52.580       387
52.590       413
52.600       340
52.610       253
52.620       260
52.630       440
52.640       407
52.650       333
52.660       307
52.670       333
52.680       347
52.690       460
52.700       380
52.710       327
52.720       340
52.730       360
52.740       353
52.750       300
52.760       347
52.770       280
52.780       380
52.790       360
52.800       460
52.810       353
52.820       347
52.830       400
52.840       360
52.850       340
52.860       320
52.870       420
52.880       426
52.890       353
52.900       300
52.910       300
52.920       353
52.930       327
52.940       407
52.950       300
52.960       347
52.970       387
52.980       387
52.990       313
53.000       287
53.010       320
53.020       413
53.030       327
53.040       280
53.050       313
53.060       367
53.070       367
53.080       413
53.090       267
53.100       273
53.110       347
53.120       340
53.130       347
53.140       260
53.150       293
53.160       327
53.170       360
53.180       373
53.190       426
53.200       293
53.210       353
53.220       360
53.230       327
53.240       353
53.250       293
53.260       260
53.270       367
53.280       300
53.290       267
53.300       340
53.310       273
53.320       287
53.330       400
53.340       320
53.350       247
53.360       300
53.370       327
53.380       293
53.390       360
53.400       360
53.410       273
53.420       300
53.430       320
53.440       300
53.450       320
53.460       347
53.470       307
53.480       293
53.490       307
53.500       333
53.510       360
53.520       307
53.530       347
53.540       313
53.550       307
53.560       240
53.570       340
53.580       253
53.590       287
53.600       280
53.610       240
53.620       373
53.630       240
53.640       247
53.650       307
53.660       293
53.670       347
53.680       367
53.690       373
53.700       293
53.710       233
53.720       353
53.730       253
53.740       280
53.750       327
53.760       280
53.770       313
53.780       247
53.790       333
53.800       253
53.810       267
53.820       267
53.830       273
53.840       313
53.850       247
53.860       227
53.870       287
53.880       327
53.890       293
53.900       313
53.910       347
53.920       313
53.930       367
53.940       253
53.950       233
53.960       340
53.970       193
53.980       187
53.990       233
54.000       360
54.010       313
54.020       287
54.030       260
54.040       253
54.050       280
54.060       213
54.070       340
54.080       233
54.090       260
54.100       293
54.110       273
54.120       320
54.130       260
54.140       400
54.150       380
54.160       307
54.170       280
54.180       220
54.190       247
54.200       193
54.210       253
54.220       260
54.230       320
54.240       307
54.250       300
54.260       320
54.270       313
54.280       273
54.290       320
54.300       287
54.310       353
54.320       293
54.330       207
54.340       233
54.350       233
54.360       300
54.370       287
54.380       313
54.390       220
54.400       247
54.410       313
54.420       327
54.430       273
54.440       320
54.450       313
54.460       327
54.470       260
54.480       267
54.490       267
54.500       307
54.510       207
54.520       167
54.530       267
54.540       340
54.550       280
54.560       273
54.570       253
54.580       300
54.590       193
54.600       240
54.610       213
54.620       300
54.630       227
54.640       267
54.650       193
54.660       260
54.670       167
54.680       233
54.690       307
54.700       233
54.710       260
54.720       220
54.730       267
54.740       280
54.750       280
54.760       287
54.770       233
54.780       220
54.790       213
54.800       260
54.810       227
54.820       247
54.830       300
54.840       253
54.850       287
54.860       240
54.870       273
54.880       273
54.890       287
54.900       307
54.910       247
54.920       240
54.930       193
54.940       213
54.950       300
54.960       280
54.970       327
54.980       247
54.990       227
55.000       313
55.010       273
55.020       313
55.030       267
55.040       240
55.050       233
55.060       247
55.070       247
55.080       227
55.090       273
55.100       220
55.110       280
55.120       273
55.130       240
55.140       253
55.150       227
55.160       200
55.170       200
55.180       333
55.190       240
55.200       287
55.210       180
55.220       300
55.230       253
55.240       200
55.250       240
55.260       267
55.270       227
55.280       307
55.290       260
55.300       253
55.310       307
55.320       273
55.330       200
55.340       300
55.350       293
55.360       293
55.370       233
55.380       233
55.390       267
55.400       300
55.410       293
55.420       207
55.430       267
55.440       233
55.450       207
55.460       233
55.470       227
55.480       253
55.490       273
55.500       253
55.510       193
55.520       220
55.530       180
55.540       260
55.550       200
55.560       260
55.570       253
55.580       240
55.590       287
55.600       213
55.610       220
55.620       207
55.630       287
55.640       227
55.650       273
55.660       227
55.670       233
55.680       240
55.690       253
55.700       220
55.710       307
55.720       233
55.730       180
55.740       207
55.750       233
55.760       207
55.770       233
55.780       267
55.790       207
55.800       247
55.810       220
55.820       240
55.830       120
55.840       227
55.850       247
55.860       227
55.870       173
55.880       213
55.890       307
55.900       260
55.910       213
55.920       313
55.930       240
55.940       207
55.950       280
55.960       293
55.970       180
55.980       167
55.990       167
56.000       213
56.010       260
56.020       213
56.030       260
56.040       193
56.050       267
56.060       253
56.070       247
56.080       147
56.090       173
56.100       207
56.110       260
56.120       180
56.130       220
56.140       180
56.150       233
56.160       220
56.170       133
56.180       267
56.190       167
56.200       280
56.210       207
56.220       207
56.230       247
56.240       260
56.250       273
56.260       220
56.270       173
56.280       227
56.290       227
56.300       207
56.310       200
56.320       200
56.330       160
56.340       200
56.350       207
56.360       167
56.370       180
56.380       173
56.390       133
56.400       153
56.410       253
56.420       213
56.430       233
56.440       140
56.450       220
56.460       227
56.470       193
56.480       147
56.490       233
56.500       207
56.510       180
56.520       193
56.530       207
56.540       187
56.550       233
56.560       193
56.570       200
56.580       233
56.590       180
56.600       207
56.610       260
56.620       233
56.630       247
56.640       240
56.650       180
56.660       233
56.670       167
56.680       180
56.690       240
56.700       167
56.710       253
56.720       173
56.730       200
56.740       253
56.750       200
56.760       153
56.770       247
56.780       180
56.790       167
56.800       193
56.810       180
56.820       160
56.830       227
56.840       200
56.850       173
56.860       220
56.870       173
56.880       220
56.890       253
56.900       233
56.910       187
56.920       187
56.930       160
56.940       160
56.950       227
56.960       180
56.970       233
56.980       207
56.990       207
57.000       207
57.010       153
57.020       193
57.030       153
57.040       280
57.050       220
57.060       280
57.070       173
57.080       207
57.090       220
57.100       180
57.110       173
57.120       200
57.130       200
57.140       213
57.150       200
57.160       200
57.170       267
57.180       187
57.190       240
57.200       240
57.210       153
57.220       260
57.230       160
57.240       180
57.250       160
57.260       247
57.270       173
57.280       127
57.290       240
57.300       220
57.310       180
57.320       180
57.330       187
57.340       180
57.350       200
57.360       173
57.370       187
57.380       200
57.390       207
57.400       180
57.410       193
57.420       193
57.430       200
57.440       160
57.450       140
57.460       253
57.470       140
57.480       160
57.490       187
57.500       147
57.510       213
57.520       180
57.530       153
57.540       127
57.550       167
57.560       147
57.570       193
57.580       167
57.590       180
57.600       160
57.610       207
57.620       140
57.630       167
57.640       167
57.650       140
57.660       167
57.670       180
57.680       180
57.690       180
57.700       193
57.710       113
57.720       160
57.730       193
57.740       220
57.750       153
57.760       160
57.770       160
57.780       147
57.790       167
57.800       187
57.810       133
57.820       133
57.830       193
57.840       193
57.850       147
57.860       133
57.870       160
57.880       200
57.890       153
57.900       180
57.910       133
57.920       207
57.930       160
57.940       153
57.950       200
57.960       127
57.970       160
57.980       153
57.990       167
58.000       207
58.010       200
58.020       120
58.030       207
58.040       213
58.050       127
58.060       120
58.070       140
58.080       153
58.090       167
58.100       173
58.110       127
58.120       233
58.130       140
58.140       147
58.150       227
58.160       160
58.170       173
58.180       127
58.190       147
58.200       173
58.210       160
58.220       220
58.230       120
58.240       153
58.250       127
58.260       153
58.270       140
58.280       133
58.290       100
58.300       153
58.310       180
58.320       153
58.330       147
58.340       140
58.350       147
58.360       160
58.370       153
58.380       147
58.390       120
58.400       153
58.410       140
58.420       153
58.430       133
58.440       207
58.450       193
58.460       160
58.470       173
58.480       140
58.490       187
58.500       167
58.510       160
58.520       147
58.530       120
58.540       167
58.550       153
58.560       167
58.570       140
58.580       153
58.590       140
58.600       167
58.610       153
58.620       147
58.630       180
58.640       153
58.650       173
58.660       120
58.670       173
58.680       120
58.690       140
58.700       133
58.710       147
58.720       153
58.730       147
58.740       127
58.750       167
58.760       140
58.770       107
58.780       133
58.790       127
58.800       127
58.810       193
58.820       140
58.830       133
58.840       140
58.850       113
58.860       180
58.870        87
58.880        80
58.890       180
58.900       147
58.910       173
58.920       140
58.930       147
58.940       140
58.950       153
58.960       140
58.970       120
58.980       160
58.990       133
59.000       187
59.010       193
59.020       120
59.030       120
59.040       113
59.050       167
59.060       107
59.070       153
59.080        93
59.090       147
59.100       147
59.110       147
59.120       167
59.130       120
59.140       160
59.150       160
59.160       133
59.170       140
59.180        87
59.190        93
59.200       173
59.210       140
59.220       167
59.230       107
59.240       100
59.250       140
59.260       153
59.270       160
59.280       100
59.290       167
59.300       107
59.310       160
59.320       153
59.330       133
59.340       107
59.350       113
59.360       133
59.370       133
59.380       160
59.390       180
59.400       153
59.410       100
59.420       167
59.430       160
59.440       187
59.450       127
59.460        80
59.470       147
59.480       100
59.490       160
59.500       120
59.510       120
59.520       120
59.530       100
59.540       140
59.550       167
59.560       153
59.570       100
59.580       113
59.590       113
59.600       127
59.610       160
59.620       153
59.630       107
59.640       180
59.650       147
59.660       113
59.670       140
59.680       100
59.690       133
59.700       180
59.710       120
59.720       120
59.730       160
59.740        87
59.750       153
59.760       160
59.770       120
59.780       113
59.790       140
59.800       147
59.810       120
59.820       100
59.830       113
59.840       133
59.850       147
59.860       140
59.870       120
59.880        80
59.890       147
59.900        40
59.910       127
59.920       100
59.930       120
59.940        87
59.950       140
59.960        80
59.970       167
59.980       120
59.990        80
60.000        80
