20.000        87
20.010        60
20.020        53
20.030        40
20.040        47
20.050        87
20.060        33
20.070        80
20.080        53
20.090        40
20.100        73
20.110        40
20.120        53
20.130        87
20.140        47
20.150        80
20.160        27
20.170        60
20.180        47
20.190        40
20.200        67
20.210        33
20.220        93
20.230        40
20.240        47
20.250        60
20.260        80
20.270        33
20.280        33
20.290        40
20.300        33
20.310        27
20.320        73
20.330       107
20.340        53
20.350        40
20.360        47
20.370        47
20.380        53
20.390        80
20.400        40
20.410        33
20.420        67
20.430        53
20.440        40
20.450        53
20.460        67
20.470        60
20.480        60
20.490        60
20.500        27
20.510        33
20.520        47
20.530        47
20.540        53
20.550        47
20.560        13
20.570        33
20.580        47
20.590        33
20.600        40
20.610        27
20.620        67
20.630        47
20.640        87
20.650        40
20.660        87
20.670        53
20.680        47
20.690        67
20.700        67
20.710        47
20.720        60
20.730        27
20.740        53
20.750        40
20.760        73
20.770       127
20.780        47
20.790        33
20.800        53
20.810        53
20.820        73
20.830        73
20.840        60
20.850        80
20.860        67
20.870        60
20.880        67
20.890        40
20.900        47
20.910        93
20.920        40
20.930        40
20.940       133
20.950        47
20.960        47
20.970        47
20.980        47
20.990       113
21.000        47
21.010        67
21.020        67
21.030        87
21.040        93
21.050       100
21.060        47
21.070        40
21.080        53
21.090       100
21.100        73
21.110       120
21.120        47
21.130        93
21.140        93
21.150        67
21.160        27
21.170        87
21.180        33
21.190        47
21.200        87
21.210        73
21.220        80
21.230        73
21.240        40
21.250        40
21.260        73
21.270        67
21.280        80
21.290        53
21.300       120
21.310       113
21.320        60
21.330        53
21.340        60
21.350       120
21.360        60
21.370        73
21.380        87
21.390        87
21.400        60
21.410        73
21.420        47
21.430        27
21.440        47
21.450       100
21.460        53
21.470        53
21.480        40
21.490        40
21.500        60
21.510        60
21.520        47
21.530        53
21.540        60
21.550        40
21.560        33
21.570        60
21.580        60
21.590       107
21.600        27
21.610        67
21.620        27
21.630        53
21.640        73
21.650        47
21.660        40
21.670        67
21.680        27
21.690        40
21.700        53
21.710        67
21.720        53
21.730        47
21.740        33
21.750        80
21.760        80
21.770        33
21.780        93
21.790        87
21.800        87
21.810        67
21.820        27
21.830        80
21.840        60
21.850        33
21.860        53
21.870        60
21.880        93
21.890       100
21.900        40
21.910        40
21.920        67
21.930        93
21.940        73
21.950       107
21.960        53
21.970        47
21.980        53
21.990        33
22.000        73
22.010       113
22.020        73
22.030        33
22.040        73
22.050        93
22.060        47
22.070        40
22.080        80
22.090        53
22.100       100
22.110        20
22.120        87
22.130        93
22.140       107
22.150        60
22.160        47
22.170        80
22.180        80
22.190        40
22.200       100
22.210        87
22.220        33
22.230         7
22.240       100
22.250        47
22.260        47
22.270        33
22.280       113
22.290        67
22.300        73
22.310        93
22.320        60
22.330       107
22.340        67
22.350        87
22.360        80
22.370        73
22.380        60
22.390        40
22.400        27
22.410        53
22.420        53
22.430        73
22.440        27
22.450        67
22.460        87
22.470       107
22.480        47
22.490        67
22.500        53
22.510        33
22.520        47
22.530        67
22.540        93
22.550        80
22.560        60
22.570        73
22.580        73
22.590        60
22.600        80
22.610        60
22.620        80
22.630        67
22.640        53
22.650       107
22.660        67
22.670        87
22.680        87
22.690        93
22.700        87
22.710        93
22.720       120
22.730        67
22.740        93
22.750       107
22.760       100
22.770        93
22.780       100
22.790       107
22.800       147
22.810        93
22.820       107
22.830        87
22.840       120
22.850       127
22.860       127
22.870       140
22.880       147
22.890        93
22.900        93
22.910       120
22.920        33
22.930       187
22.940       160
22.950       140
22.960       260
22.970       233
22.980       347
22.990       466
23.000       540
23.010       613
23.020       500
23.030       373
23.040       273
23.050       287
23.060       160
23.070       160
23.080       140
23.090       187
23.100       160
23.110       167
23.120       113
23.130       107
23.140       133
23.150       160
23.160        93
23.170       120
23.180       120
23.190       100
23.200       107
23.210       153
23.220       100
23.230        73
23.240       180
23.250        73
23.260       120
23.270        67
23.280       107
23.290       153
23.300        93
23.310       133
23.320        73
23.330        93
23.340        93
23.350        73
23.360        60
23.370        60
23.380       100
23.390        73
23.400        87
23.410        80
23.420        73
23.430        73
23.440       113
23.450       120
23.460       147
23.470        80
23.480       127
23.490        80
23.500       100
23.510       100
23.520       113
23.530       113
23.540        80
23.550        80
23.560        27
23.570        93
23.580       100
23.590        87
23.600       180
23.610        60
23.620        80
23.630       140
23.640        53
23.650       100
23.660       140
23.670       113
23.680        93
23.690       107
23.700       113
23.710        67
23.720       120
23.730       120
23.740        87
23.750       113
23.760       100
23.770       100
23.780        87
23.790       127
23.800        93
23.810        67
23.820       120
23.830       120
23.840        67
23.850       100
23.860        87
23.870       133
23.880        80
23.890       113
23.900        73
23.910       140
23.920       127
23.930       127
23.940        93
23.950       147
23.960        87
23.970        67
23.980        60
23.990       100
24.000        93
24.010        93
24.020       120
24.030       113
24.040        73
24.050       140
24.060        47
24.070        87
24.080       133
24.090        80
24.100       127
24.110        93
24.120       113
24.130       107
24.140        60
24.150       113
24.160        80
24.170        93
24.180        47
24.190        53
24.200       113
24.210       113
24.220       133
24.230        87
24.240        60
24.250       120
24.260        93
24.270       100
24.280        93
24.290        87
24.300        47
24.310       133
24.320        87
24.330       100
24.340       147
24.350       127
24.360       147
24.370       113
24.380        73
24.390        80
24.400       100
24.410        87
24.420        93
24.430        80
24.440        73
24.450       100
24.460        93
24.470        93
24.480        87
24.490        93
24.500       100
24.510       140
24.520       107
24.530       153
24.540        47
24.550       173
24.560       120
24.570        80
24.580       120
24.590       100
24.600       107
24.610       153
24.620       207
24.630       153
24.640       247
24.650       273
24.660       233
24.670       293
24.680       313
24.690       453
24.700       313
24.710       307
24.720       307
24.730       380
24.740       280
24.750       327
24.760       367
24.770       426
24.780       327
24.790       446
24.800       333
24.810       373
24.820       407
24.830       360
24.840       420
24.850       393
24.860       340
24.870       413
24.880       327
24.890       347
24.900       347
24.910       327
24.920       380
24.930       453
24.940       440
24.950       367
24.960       400
24.970       327
24.980       407
24.990       340
25.000       400
25.010       413
25.020       393
25.030       493
25.040       426
25.050       373
25.060       393
25.070       420
25.080       400
25.090       486
25.100       360
25.110       540
25.120       407
25.130       393
25.140       407
25.150       453
25.160       433
25.170       380
25.180       493
25.190       513
25.200       340
25.210       433
25.220       520
25.230       526
25.240       440
25.250       513
25.260       433
25.270       493
25.280       420
25.290       546
25.300       646
25.310       566
25.320       760
25.330       700
25.340       853
25.350      1153
25.360      1006
25.370      1286
25.380      1686
25.390      2019
25.400      2546
25.410      2686
25.420      3325
25.430      3392
25.440      3905
25.450      5111
25.460      6504
25.470     10389
25.480     18466
25.490     37991
25.500     64434
25.510     89817
25.520    105111
25.530    102872
25.540     95822
25.550     85812
25.560     79548
25.570     73770
25.580     69659
25.590     66160
25.600     60076
25.610     51726
25.620     43303
25.630     31041
25.640     21505
25.650     14294
25.660     10662
25.670      9196
25.680      7923
25.690      7130
25.700      6737
25.710      5851
25.720      4985
25.730      4145
25.740      3845
25.750      3212
25.760      2659
25.770      2246
25.780      1926
25.790      1499
25.800      1066
25.810       993
25.820       866
25.830       740
25.840       733
25.850       766
25.860       726
25.870       606
25.880       573
25.890       546
25.900       606
25.910       540
25.920       493
25.930       553
25.940       520
25.950       526
25.960       506
25.970       546
25.980       446
25.990       506
26.000       466
26.010       500
26.020       460
26.030       540
26.040       453
26.050       486
26.060       353
26.070       460
26.080       473
26.090       360
26.100       347
26.110       367
26.120       446
26.130       353
26.140       373
26.150       400
26.160       393
26.170       360
26.180       393
26.190       393
26.200       300
26.210       387
26.220       393
26.230       333
26.240       333
26.250       380
26.260       340
26.270       387
26.280       373
26.290       313
26.300       373
26.310       420
26.320       340
26.330       367
26.340       426
26.350       340
26.360       486
26.370       347
26.380       327
26.390       327
26.400       347
26.410       300
26.420       353
26.430       380
26.440       367
26.450       327
26.460       413
26.470       313
26.480       407
26.490       413
26.500       367
26.510       327
26.520       347
26.530       300
26.540       353
26.550       347
26.560       466
26.570       280
26.580       327
26.590       353
26.600       367
26.610       313
26.620       400
26.630       327
26.640       333
26.650       300
26.660       313
26.670       220
26.680       260
26.690       300
26.700       253
26.710       300
26.720       433
26.730       327
26.740       360
26.750       327
26.760       233
26.770       293
26.780       220
26.790       280
26.800       287
26.810       260
26.820       253
26.830       293
26.840       240
26.850       280
26.860       380
26.870       393
26.880       347
26.890       340
26.900       327
26.910       300
26.920       293
26.930       287
26.940       300
26.950       293
26.960       287
26.970       213
26.980       247
26.990       227
27.000       367
27.010       307
27.020       280
27.030       333
27.040       307
27.050       247
27.060       260
27.070       267
27.080       300
27.090       307
27.100       307
27.110       340
27.120       307
27.130       300
27.140       313
27.150       327
27.160       280
27.170       280
27.180       287
27.190       353
27.200       240
27.210       240
27.220       347
27.230       313
27.240       380
27.250       173
27.260       300
27.270       327
27.280       273
27.290       307
27.300       260
27.310       267
27.320       280
27.330       273
27.340       253
27.350       167
27.360       293
27.370       320
27.380       333
27.390       300
27.400       260
27.410       173
27.420       233
27.430       253
27.440       373
27.450       253
27.460       333
27.470       367
27.480       313
27.490       240
27.500       273
27.510       380
27.520       313
27.530       267
27.540       260
27.550       240
27.560       280
27.570       293
27.580       253
27.590       340
27.600       320
27.610       187
27.620       280
27.630       293
27.640       273
27.650       267
27.660       233
27.670       273
27.680       267
27.690       333
27.700       280
27.710       300
27.720       207
27.730       273
27.740       140
27.750       307
27.760       267
27.770       293
27.780       253
27.790       333
27.800       200
27.810       253
27.820       213
27.830       213
27.840       320
27.850       227
27.860       307
27.870       200
27.880       260
27.890       233
27.900       267
27.910       253
27.920       293
27.930       207
27.940       233
27.950       267
27.960       193
27.970       207
27.980       300
27.990       220
28.000       213
28.010       193
28.020       253
28.030       167
28.040       240
28.050       360
28.060       200
28.070       240
28.080       213
28.090       200
28.100       247
28.110       353
28.120       300
28.130       187
28.140       160
28.150       233
28.160       280
28.170       280
28.180       307
28.190       280
28.200       260
28.210       260
28.220       260
28.230       267
28.240       260
28.250       213
28.260       207
28.270       213
28.280       327
28.290       220
28.300       287
28.310       273
28.320       253
28.330       273
28.340       293
28.350       207
28.360       320
28.370       307
28.380       247
28.390       253
28.400       327
28.410       247
28.420       267
28.430       267
28.440       240
28.450       233
28.460       200
28.470       273
28.480       253
28.490       233
28.500       273
28.510       213
28.520       173
28.530       260
28.540       347
28.550       180
28.560       247
28.570       253
28.580       213
28.590       260
28.600       200
28.610       273
28.620       213
28.630       293
28.640       253
28.650       187
28.660       173
28.670       187
28.680       327
28.690       213
28.700       253
28.710       247
28.720       220
28.730       233
28.740       160
28.750       200
28.760       233
28.770       233
28.780       240
28.790       173
28.800       187
28.810       187
28.820       233
28.830       227
28.840       247
28.850       247
28.860       220
28.870       247
28.880       173
28.890       187
28.900       307
28.910       267
28.920       213
28.930       220
28.940       213
28.950       260
28.960       187
28.970       220
28.980       173
28.990       220
29.000       260
29.010       273
29.020       213
29.030       227
29.040       287
29.050       180
29.060       227
29.070       233
29.080       253
29.090       300
29.100       233
29.110       253
29.120       313
29.130       253
29.140       200
29.150       280
29.160       227
29.170       273
29.180       220
29.190       253
29.200       320
29.210       273
29.220       313
29.230       307
29.240       280
29.250       340
29.260       267
29.270       313
29.280       293
29.290       353
29.300       347
29.310       313
29.320       280
29.330       333
29.340       333
29.350       313
29.360       300
29.370       320
29.380       220
29.390       273
29.400       267
29.410       327
29.420       227
29.430       213
29.440       207
29.450       193
29.460       127
29.470       213
29.480       120
29.490       180
29.500       247
29.510       180
29.520       280
29.530       187
29.540       220
29.550        67
29.560       153
29.570       153
29.580       240
29.590       173
29.600       193
29.610       187
29.620       153
29.630       193
29.640       260
29.650       260
29.660       193
29.670       133
29.680       160
29.690       213
29.700       213
29.710       180
29.720       220
29.730       200
29.740       207
29.750       160
29.760       220
29.770       200
29.780       213
29.790       227
29.800       247
29.810       173
29.820       233
29.830       253
29.840       180
29.850       160
29.860       200
29.870       193
29.880       200
29.890       193
29.900       127
29.910       200
29.920       180
29.930       167
29.940       167
29.950       193
29.960       240
29.970       147
29.980       193
29.990       140
30.000       153
30.010       187
30.020       160
30.030       120
30.040       173
30.050       213
30.060       220
30.070       140
30.080       173
30.090       187
30.100       253
30.110       173
30.120       160
30.130       187
30.140       153
30.150       207
30.160       153
30.170       207
30.180       240
30.190       153
30.200       180
30.210       147
30.220       180
30.230       200
30.240       167
30.250       220
30.260       107
30.270       213
30.280       213
30.290       140
30.300       160
30.310       160
30.320       193
30.330       240
30.340       140
30.350       173
30.360       140
30.370       187
30.380       180
30.390       107
30.400       160
30.410       173
30.420       153
30.430       253
30.440       187
30.450       127
30.460       140
30.470       180
30.480       173
30.490       147
30.500       153
30.510       160
30.520       147
30.530       233
30.540       167
30.550       173
30.560       140
30.570       240
30.580       120
30.590       180
30.600       200
30.610       173
30.620       213
30.630       140
30.640       193
30.650       113
30.660       127
30.670       180
30.680       127
30.690       160
30.700       153
30.710       173
30.720       167
30.730       107
30.740       140
30.750       107
30.760       140
30.770       167
30.780       200
30.790       120
30.800       140
30.810       153
30.820       160
30.830       227
30.840       153
30.850       127
30.860       233
30.870       127
30.880       140
30.890       193
30.900       140
30.910        67
30.920       167
30.930       147
30.940       153
30.950       167
30.960       160
30.970       153
30.980       167
30.990       173
31.000       173
31.010       173
31.020       220
31.030       133
31.040       147
31.050       193
31.060       133
31.070       160
31.080       133
31.090       127
31.100       153
31.110       153
31.120       140
31.130       140
31.140       100
31.150       167
31.160       147
31.170       213
31.180        87
31.190       113
31.200       173
31.210       173
31.220       153
31.230       187
31.240       107
31.250        93
31.260       173
31.270       147
31.280       107
31.290       140
31.300       133
31.310       160
31.320       120
31.330       127
31.340       133
31.350       147
31.360       133
31.370       140
31.380       153
31.390       107
31.400       207
31.410       133
31.420       200
31.430       140
31.440       153
31.450       153
31.460       147
31.470       207
31.480       173
31.490       133
31.500       160
31.510       153
31.520       120
31.530       140
31.540       200
31.550       153
31.560       147
31.570       187
31.580       120
31.590       127
31.600       127
31.610       153
31.620       133
31.630       153
31.640       113
31.650       120
31.660       153
31.670       147
31.680        93
31.690       160
31.700       133
31.710       173
31.720       160
31.730       100
31.740       120
31.750       133
31.760       120
31.770       173
31.780       120
31.790       127
31.800        87
31.810       113
31.820       160
31.830       120
31.840       113
31.850       120
31.860       140
31.870       107
31.880       167
31.890       113
31.900       113
31.910       113
31.920       147
31.930        93
31.940       107
31.950       187
31.960       120
31.970       187
31.980       160
31.990        93
32.000       140
32.010       113
32.020       120
32.030        93
32.040       113
32.050       153
32.060       120
32.070       120
32.080       140
32.090       133
32.100       120
32.110       113
32.120       147
32.130       140
32.140       133
32.150       167
32.160       127
32.170        93
32.180       153
32.190       127
32.200       160
32.210       127
32.220       140
32.230        73
32.240       120
32.250       133
32.260        93
32.270       120
32.280       100
32.290       147
32.300        73
32.310       107
32.320       140
32.330        73
32.340       167
32.350        87
32.360       120
32.370       180
32.380       133
32.390       100
32.400       127
32.410       180
32.420       107
32.430        73
32.440       107
32.450       127
32.460       147
32.470       147
32.480       107
32.490       127
32.500       140
32.510       120
32.520        93
32.530       127
32.540       100
32.550       107
32.560        73
32.570       120
32.580       133
32.590       113
32.600        93
32.610       120
32.620       100
32.630       107
32.640       120
32.650        87
32.660       140
32.670       113
32.680        67
32.690       107
32.700        93
32.710       120
32.720       133
32.730       107
32.740       153
32.750       100
32.760        87
32.770       113
32.780       140
32.790       127
32.800        93
32.810       173
32.820        87
32.830        93
32.840       127
32.850        67
32.860        80
32.870       127
32.880       107
32.890        80
32.900       100
32.910       113
32.920       107
32.930       120
32.940        93
32.950        87
32.960        87
32.970        53
32.980       173
32.990        93
33.000       120
33.010       140
33.020        87
33.030       107
33.040       120
33.050       107
33.060        87
33.070       127
33.080        60
33.090       120
33.100        80
33.110       107
33.120        60
33.130        73
33.140       107
33.150        67
33.160        73
33.170       100
33.180        80
33.190       100
33.200        87
33.210       107
33.220       120
33.230        87
33.240       113
33.250       140
33.260       120
33.270        93
33.280       100
33.290       140
33.300        93
33.310        73
33.320        67
33.330       100
33.340        80
33.350       100
33.360       153
33.370       120
33.380        93
33.390        87
33.400       127
33.410       127
33.420        87
33.430       120
33.440        33
33.450        73
33.460       107
33.470        87
33.480       120
33.490        73
33.500       100
33.510       107
33.520        93
33.530        53
33.540        87
33.550       107
33.560       107
33.570       127
33.580        67
33.590        87
33.600        73
33.610       100
33.620       127
33.630        87
33.640        73
33.650       147
33.660        87
33.670       107
33.680        93
33.690        73
33.700       140
33.710       133
33.720        60
33.730        87
33.740        93
33.750        60
33.760        87
33.770        80
33.780        93
33.790        67
33.800        87
33.810       133
33.820       133
33.830        60
33.840       100
33.850        67
33.860        93
33.870        80
33.880        60
33.890       100
33.900        80
33.910        73
33.920        40
33.930        73
33.940        67
33.950        80
33.960       107
33.970       133
33.980        60
33.990        87
34.000        60
34.010        80
34.020        73
34.030       107
34.040        93
34.050        93
34.060        73
34.070        80
34.080       107
34.090        93
34.100       113
34.110        93
34.120        80
34.130        67
34.140        53
34.150        73
34.160        73
34.170        73
34.180       100
34.190       113
34.200        67
34.210       120
34.220        73
34.230        73
34.240       100
34.250        53
34.260        33
34.270        60
34.280        73
34.290        73
34.300       147
34.310       113
34.320        93
34.330        40
34.340        60
34.350       120
34.360        73
34.370        47
34.380        73
34.390        87
34.400        87
34.410       100
34.420        67
34.430       107
34.440        93
34.450        87
34.460        60
34.470        60
34.480        87
34.490        67
34.500       100
34.510       100
34.520       107
34.530        93
34.540        73
34.550        87
34.560        87
34.570        27
34.580        80
34.590       100
34.600        53
34.610       107
34.620       107
34.630        80
34.640        87
34.650        53
34.660        73
34.670        53
34.680       100
34.690        73
34.700        47
34.710       113
34.720        87
34.730        67
34.740        93
34.750        87
34.760        67
34.770       120
34.780        67
34.790        80
34.800        73
34.810       107
34.820        87
34.830       100
34.840        73
34.850        73
34.860       100
34.870       113
34.880       133
34.890        67
34.900        47
34.910       100
34.920        67
34.930       100
34.940        80
34.950        87
34.960        53
34.970        80
34.980        80
34.990        67
35.000        87
35.010       100
35.020        60
35.030        80
35.040        67
35.050       107
35.060       100
35.070       120
35.080        60
35.090        87
35.100        73
35.110        93
35.120        33
35.130        93
35.140        27
35.150        60
35.160        87
35.170        80
35.180        73
35.190        93
35.200       107
35.210       113
35.220        53
35.230        80
35.240        73
35.250        80
35.260       113
35.270        60
35.280       107
35.290       120
35.300        73
35.310        93
35.320       107
35.330        33
35.340       100
35.350       120
35.360        93
35.370       100
35.380        67
35.390        73
35.400        53
35.410        73
35.420       100
35.430        60
35.440        53
35.450       100
35.460        73
35.470        53
35.480        67
35.490        33
35.500        80
35.510        73
35.520        87
35.530        67
35.540        80
35.550        80
35.560        53
35.570        87
35.580        67
35.590        80
35.600        53
35.610        60
35.620        80
35.630        53
35.640       100
35.650        73
35.660        60
35.670        87
35.680        93
35.690        87
35.700        53
35.710        67
35.720        87
35.730        60
35.740        60
35.750        53
35.760       107
35.770       100
35.780       113
35.790        47
35.800        80
35.810       127
35.820       113
35.830       107
35.840        73
35.850        73
35.860       140
35.870       107
35.880        93
35.890        67
35.900        80
35.910        80
35.920       113
35.930        67
35.940        53
35.950        60
35.960        87
35.970        33
35.980       107
35.990        87
36.000        73
36.010       100
36.020        53
36.030        93
36.040       113
36.050        60
36.060        67
36.070       113
36.080        33
36.090        73
36.100        27
36.110        53
36.120        87
36.130        87
36.140        47
36.150        40
36.160        40
36.170        60
36.180        67
36.190        53
36.200        60
36.210        47
36.220        73
36.230        47
36.240        73
36.250        67
36.260        47
36.270        67
36.280        80
36.290        73
36.300        80
36.310        27
36.320        60
36.330        53
36.340        87
36.350        67
36.360        60
36.370        67
36.380        40
36.390        60
36.400        60
36.410        67
36.420        80
36.430        87
36.440        67
36.450       113
36.460        67
36.470        73
36.480        67
36.490        53
36.500        87
36.510        80
36.520       107
36.530        87
36.540        67
36.550        33
36.560        67
36.570        67
36.580       107
36.590        53
36.600        27
36.610        67
36.620        53
36.630        67
36.640        47
36.650        53
36.660        67
36.670        67
36.680        67
36.690        47
36.700        53
36.710        53
36.720        67
36.730        47
36.740        47
36.750        60
36.760        73
36.770        80
36.780        27
36.790        67
36.800        53
36.810        73
36.820        53
36.830        87
36.840        60
36.850        20
36.860        60
36.870        60
36.880        33
36.890        73
36.900        80
36.910        60
36.920        67
36.930        33
36.940        67
36.950        60
36.960        47
36.970        73
36.980        40
36.990        53
37.000        67
37.010        47
37.020        47
37.030        67
37.040        53
37.050        20
37.060        53
37.070        40
37.080        33
37.090        67
37.100        67
37.110        60
37.120        27
37.130        40
37.140        80
37.150        40
37.160        27
37.170        40
37.180        60
37.190        53
37.200        93
37.210        47
37.220        33
37.230        53
37.240        53
37.250        80
37.260        33
37.270        53
37.280        60
37.290        60
37.300        53
37.310        53
37.320        73
37.330        20
37.340        53
37.350        73
37.360        80
37.370        80
37.380        87
37.390        67
37.400        47
37.410        27
37.420        67
37.430        87
37.440        47
37.450        47
37.460        33
37.470        40
37.480        67
37.490        67
37.500        53
37.510        47
37.520        13
37.530        53
37.540        73
37.550        40
37.560        53
37.570        60
37.580        53
37.590        53
37.600        60
37.610        80
37.620        67
37.630        53
37.640        53
37.650       107
37.660        53
37.670        67
37.680        53
37.690        60
37.700        73
37.710        67
37.720        33
37.730        33
37.740        60
37.750        67
37.760        33
37.770        27
37.780        40
37.790        47
37.800        53
37.810        47
37.820        40
37.830        40
37.840        40
37.850        73
37.860        27
37.870        60
37.880        27
37.890        67
37.900        33
37.910        33
37.920        33
37.930        53
37.940        27
37.950        60
37.960        40
37.970        40
37.980        60
37.990        73
38.000        53
38.010        53
38.020        60
38.030        40
38.040        67
38.050        47
38.060        27
38.070        33
38.080        67
38.090        80
38.100        53
38.110        33
38.120        53
38.130        67
38.140        67
38.150        27
38.160        40
38.170        47
38.180        33
38.190        73
38.200        53
38.210        67
38.220        73
38.230        53
38.240        53
38.250        47
38.260        53
38.270       107
38.280        93
38.290       107
38.300        40
38.310        60
38.320        60
38.330        40
38.340        40
38.350        40
38.360        40
38.370        67
38.380        73
38.390        40
38.400        67
38.410        40
38.420        40
38.430        53
38.440        40
38.450        73
38.460        33
38.470        60
38.480       100
38.490        60
38.500        33
38.510        40
38.520        87
38.530        40
38.540        53
38.550        40
38.560        73
38.570        40
38.580        20
38.590        27
38.600        60
38.610        33
38.620        47
38.630        73
38.640        33
38.650        73
38.660        53
38.670        33
38.680        20
38.690        40
38.700        53
38.710        47
38.720        40
38.730        27
38.740        20
38.750        40
38.760        33
38.770        53
38.780        40
38.790        33
38.800        53
38.810        20
38.820        40
38.830        73
38.840        40
38.850        33
38.860        40
38.870        60
38.880        53
38.890        33
38.900        53
38.910        80
38.920        53
38.930        33
38.940        73
38.950        80
38.960        53
38.970        47
38.980        67
38.990        20
39.000        60
39.010        47
39.020        33
39.030        33
39.040        60
39.050        33
39.060        20
39.070        73
39.080        33
39.090        47
39.100        53
39.110        60
39.120        93
39.130        80
39.140        60
39.150        33
39.160        40
39.170        87
39.180        60
39.190       100
39.200        47
39.210        53
39.220       100
39.230        47
39.240        73
39.250        53
39.260       113
39.270        87
39.280        40
39.290        87
39.300        73
39.310        33
39.320       127
39.330        67
39.340       100
39.350        93
39.360        47
39.370       127
39.380        47
39.390        87
39.400        60
39.410       107
39.420        73
39.430        33
39.440        60
39.450        40
39.460        73
39.470        60
39.480        40
39.490        47
39.500        27
39.510        53
39.520        60
39.530        73
39.540        73
39.550        47
39.560        73
39.570        40
39.580        33
39.590        20
39.600        47
39.610        33
39.620        47
39.630        13
39.640        33
39.650        47
39.660        33
39.670        13
39.680        67
39.690        40
39.700        27
39.710        47
39.720        27
39.730        47
39.740        60
39.750        33
39.760        67
39.770        27
39.780        53
39.790        53
39.800        67
39.810        13
39.820        40
39.830        27
39.840        47
39.850        40
39.860        60
39.870        33
39.880        20
39.890        27
39.900        73
39.910        27
39.920        27
39.930        67
39.940        20
39.950        67
39.960        47
39.970        33
39.980        53
39.990        60
40.000        33
40.010        93
40.020        67
40.030        40
40.040        33
40.050        73
40.060        73
40.070        47
40.080        13
40.090        47
40.100        53
40.110        20
40.120        60
40.130        40
40.140        47
40.150        40
40.160        47
40.170        47
40.180        60
40.190        27
40.200        40
40.210        40
40.220        33
40.230        27
40.240        40
40.250        33
40.260        27
40.270        13
40.280        33
40.290        20
40.300        20
40.310        20
40.320        27
40.330        40
40.340        47
40.350        47
40.360        53
40.370        47
40.380        13
40.390        67
40.400        27
40.410        20
40.420        33
40.430        20
40.440        47
40.450        47
40.460        33
40.470        20
40.480        13
40.490         7
40.500        40
40.510        27
40.520        27
40.530        47
40.540        60
40.550        67
40.560        47
40.570        47
40.580        53
40.590        13
40.600         7
40.610        33
40.620        27
40.630        13
40.640        27
40.650        47
40.660        40
40.670        73
40.680        13
40.690        33
40.700        40
40.710        33
40.720        47
40.730        27
40.740        40
40.750        33
40.760        53
40.770        80
40.780        53
40.790        20
40.800        60
40.810        20
40.820        40
40.830        60
40.840        40
40.850        13
40.860        47
40.870        33
40.880        20
40.890        33
40.900        60
40.910        33
40.920        27
40.930        13
40.940        20
40.950        40
40.960        67
40.970        13
40.980        47
40.990        60
41.000        20
41.010        47
41.020        20
41.030        47
41.040        20
41.050        40
41.060        27
41.070        47
41.080        40
41.090        27
41.100        40
41.110        27
41.120        40
41.130        47
41.140        27
41.150        33
41.160        60
41.170        13
41.180        53
41.190        20
41.200        73
41.210        53
41.220        47
41.230        40
41.240        60
41.250        20
41.260        47
41.270        67
41.280        13
41.290        60
41.300        60
41.310        13
41.320        40
41.330        53
41.340        27
41.350        33
41.360        20
41.370        40
41.380        27
41.390        27
41.400        27
41.410        33
41.420        40
41.430        53
41.440        13
41.450        13
41.460        33
41.470        40
41.480        40
41.490        47
41.500        40
41.510        33
41.520        27
41.530        47
41.540        13
41.550        27
41.560        60
41.570        33
41.580        40
41.590        27
41.600        33
41.610        53
41.620        40
41.630        40
41.640        40
41.650        33
41.660        47
41.670        20
41.680        13
41.690        47
41.700        33
41.710        27
41.720        53
41.730        27
41.740        67
41.750        33
41.760        47
41.770        20
41.780        27
41.790        60
41.800        13
41.810        40
41.820        40
41.830        20
41.840        20
41.850        33
41.860        47
41.870        20
41.880        53
41.890        27
41.900        33
41.910        33
41.920        27
41.930        13
41.940        20
41.950        40
41.960        27
41.970        53
41.980        33
41.990        40
42.000        33
42.010        67
42.020        13
42.030        47
42.040        47
42.050        33
42.060         0
42.070        47
42.080        27
42.090        20
42.100        33
42.110        20
42.120        60
42.130        27
42.140        33
42.150        27
42.160         0
42.170        40
42.180        53
42.190        53
42.200        33
42.210        40
42.220        27
42.230        60
42.240        27
42.250        60
42.260        20
42.270        27
42.280        47
42.290        13
42.300        53
42.310        33
42.320        40
42.330        40
42.340        40
42.350         7
42.360        40
42.370        40
42.380        27
42.390        47
42.400        53
42.410        53
42.420        40
42.430        20
42.440        20
42.450        13
42.460        53
42.470        27
42.480        53
42.490        40
42.500        27
42.510        33
42.520        40
42.530        13
42.540        40
42.550        47
42.560        20
42.570        33
42.580        27
42.590        53
42.600        33
42.610        27
42.620        20
42.630        20
42.640        40
42.650        47
42.660        80
42.670        40
42.680        13
42.690        53
42.700        27
42.710        27
42.720        40
42.730        27
42.740        20
42.750        53
42.760        40
42.770        27
42.780        27
42.790        53
42.800        40
42.810        33
42.820        13
42.830        20
42.840        33
42.850        53
42.860        33
42.870        60
42.880        13
42.890        53
42.900        47
42.910        47
42.920        27
42.930        53
42.940        73
42.950        27
42.960        47
42.970        33
42.980        47
42.990        40
43.000        80
43.010        80
43.020        60
43.030        87
43.040        60
43.050        60
43.060        80
43.070        80
43.080       100
43.090        67
43.100        67
43.110        60
43.120        33
43.130        67
43.140        67
43.150        47
43.160        60
43.170        47
43.180        67
43.190        33
43.200        73
43.210        40
43.220        33
43.230        40
43.240        47
43.250        40
43.260        67
43.270        53
43.280        20
43.290        27
43.300        60
43.310        53
43.320        20
43.330        53
43.340        13
43.350        13
43.360         7
43.370        27
43.380        33
43.390        33
43.400        47
43.410         7
43.420        60
43.430        13
43.440        33
43.450        60
43.460        33
43.470        47
43.480        33
43.490        33
43.500        60
43.510        27
43.520        13
43.530        33
43.540        27
43.550        20
43.560        13
43.570        40
43.580        53
43.590        27
43.600        33
43.610        53
43.620        53
43.630        33
43.640        13
43.650        47
43.660        53
43.670        27
43.680        33
43.690         7
43.700        27
43.710        53
43.720        67
43.730        33
43.740        53
43.750        67
43.760        33
43.770        27
43.780        33
43.790        33
43.800        33
43.810        33
43.820         0
43.830        33
43.840        27
43.850        27
43.860        13
43.870        33
43.880        27
43.890        47
43.900        20
43.910        13
43.920        47
43.930        20
43.940        27
43.950        27
43.960        33
43.970        20
43.980        47
43.990        47
44.000        40
44.010        40
44.020        27
44.030        33
44.040        40
44.050        20
44.060        73
44.070        20
44.080        27
44.090        33
44.100        20
44.110        27
44.120        67
44.130        33
44.140        20
44.150        40
44.160        33
44.170        40
44.180        33
44.190        20
44.200        33
44.210        33
44.220        40
44.230        27
44.240        67
44.250        27
44.260        13
44.270        33
44.280        60
44.290        20
44.300        33
44.310        13
44.320        73
44.330         7
44.340        47
44.350        27
44.360        33
44.370        27
44.380        33
44.390        40
44.400         0
44.410        40
44.420        20
44.430        60
44.440         7
44.450        20
44.460        13
44.470        33
44.480        33
44.490        13
44.500        40
44.510        33
44.520        13
44.530         7
44.540        47
44.550        53
44.560        33
44.570        40
44.580        40
44.590        60
44.600        27
44.610        20
44.620        13
44.630        13
44.640        33
44.650        33
44.660        33
44.670        20
44.680        33
44.690        27
44.700        33
44.710        33
44.720        20
44.730        40
44.740        27
44.750        20
44.760        40
44.770        27
44.780        27
44.790        27
44.800        40
44.810        40
44.820        33
44.830        20
44.840        40
44.850        20
44.860        27
44.870        33
44.880        40
44.890        33
44.900        60
44.910        47
44.920        20
44.930        33
44.940        27
44.950        47
44.960        20
44.970        47
44.980        27
44.990        40
45.000        20
45.010        33
45.020        33
45.030        47
45.040        60
45.050        33
45.060        33
45.070        33
45.080        13
45.090        40
45.100        33
45.110         7
45.120        27
45.130        47
45.140        20
45.150        40
45.160        33
45.170        27
45.180        60
45.190        40
45.200        40
45.210        13
45.220        40
45.230        40
45.240        67
45.250        47
45.260        33
45.270        13
45.280        40
45.290        27
45.300        20
45.310        40
45.320        47
45.330        13
45.340        33
45.350        20
45.360        13
45.370        47
45.380        33
45.390        33
45.400        47
45.410        27
45.420        40
45.430        40
45.440        40
45.450        13
45.460        53
45.470        47
45.480        40
45.490        13
45.500        33
45.510        20
45.520        27
45.530        27
45.540        40
45.550        33
45.560        33
45.570        13
45.580        33
45.590        33
45.600        40
45.610        27
45.620        27
45.630         7
45.640        53
45.650        27
45.660        33
45.670        13
45.680        27
45.690        40
45.700        33
45.710        27
45.720        13
45.730        33
45.740        33
45.750        60
45.760        53
45.770        40
45.780        33
45.790        40
45.800        27
45.810        27
45.820        47
45.830        40
45.840        53
45.850        27
45.860        20
45.870        33
45.880        20
45.890        27
45.900        47
45.910        20
45.920        20
45.930        33
45.940        33
45.950        40
45.960        53
45.970        53
45.980        33
45.990        13
46.000        40
46.010        40
46.020        33
46.030        73
46.040        40
46.050        20
46.060        47
46.070        33
46.080        67
46.090        40
46.100        33
46.110        33
46.120        47
46.130        33
46.140        33
46.150        33
46.160        33
46.170        53
46.180        27
46.190        33
46.200        40
46.210        40
46.220        27
46.230        27
46.240        20
46.250        33
46.260        40
46.270        33
46.280        33
46.290        33
46.300        27
46.310        53
46.320        40
46.330        60
46.340        20
46.350        33
46.360        67
46.370        20
46.380        33
46.390        40
46.400        13
46.410        60
46.420        53
46.430        47
46.440        47
46.450        27
46.460        27
46.470        27
46.480        40
46.490        27
46.500        40
46.510        40
46.520        47
46.530        53
46.540        47
46.550        60
46.560        60
46.570        33
46.580        40
46.590        27
46.600        27
46.610        27
46.620        27
46.630        47
46.640        53
46.650        47
46.660        33
46.670        47
46.680        60
46.690        33
46.700        53
46.710        47
46.720        40
46.730        67
46.740        40
46.750        53
46.760        87
46.770        67
46.780        93
46.790        60
46.800        67
46.810        47
46.820        53
46.830       113
46.840        80
46.850        33
46.860        73
46.870        60
46.880        47
46.890        80
46.900        73
46.910        60
46.920        80
46.930        47
46.940        60
46.950       100
46.960        47
46.970        73
46.980        47
46.990        47
47.000       147
47.010       100
47.020       100
47.030        67
47.040       133
47.050        87
47.060       107
47.070       120
47.080       140
47.090       193
47.100       193
47.110       247
47.120       387
47.130       440
47.140       640
47.150       860
47.160       840
47.170       886
47.180       840
47.190       960
47.200       593
47.210       473
47.220       327
47.230       313
47.240       187
47.250       220
47.260       200
47.270       160
47.280       180
47.290       113
47.300       113
47.310       133
47.320       153
47.330       113
47.340       120
47.350        93
47.360        87
47.370       107
47.380       133
47.390       147
47.400        80
47.410        87
47.420        73
47.430       100
47.440        93
47.450        60
47.460        73
47.470        60
47.480        73
47.490        93
47.500       147
47.510       113
47.520        47
47.530        27
47.540        60
47.550        67
47.560        73
47.570        33
47.580        73
47.590        67
47.600        60
47.610        33
47.620        47
47.630        47
47.640        47
47.650        67
47.660        40
47.670        40
47.680        40
47.690        33
47.700        40
47.710        53
47.720        27
47.730        47
47.740        40
47.750        27
47.760        20
47.770        27
47.780        27
47.790        20
47.800        53
47.810        27
47.820        47
47.830        33
47.840        27
47.850        27
47.860        47
47.870        27
47.880        20
47.890        27
47.900        53
47.910        40
47.920        40
47.930        40
47.940        47
47.950        53
47.960        67
47.970        33
47.980        80
47.990        67
48.000        20
48.010        53
48.020        40
48.030        80
48.040        53
48.050        73
48.060        33
48.070        33
48.080        47
48.090        33
48.100        47
48.110        33
48.120        40
48.130        33
48.140        60
48.150        33
48.160        20
48.170        27
48.180        47
48.190        53
48.200        53
48.210        47
48.220        73
48.230        47
48.240        60
48.250        53
48.260        53
48.270        27
48.280        40
48.290        27
48.300        87
48.310        67
48.320        40
48.330        27
48.340        53
48.350        33
48.360        60
48.370        60
48.380        47
48.390        93
48.400        93
48.410        93
48.420       107
48.430        80
48.440        67
48.450        47
48.460        80
48.470        33
48.480        73
48.490        53
48.500        47
48.510        67
48.520        60
48.530        53
48.540        20
48.550        40
48.560         0
48.570        60
48.580        60
48.590        20
48.600        33
48.610        87
48.620        20
48.630        33
48.640        40
48.650        47
48.660        87
48.670         7
48.680        47
48.690        40
48.700        33
48.710        20
48.720        47
48.730        33
48.740        27
48.750        27
48.760        33
48.770        60
48.780        93
48.790        40
48.800        20
48.810        67
48.820        33
48.830        53
48.840        60
48.850        33
48.860        33
48.870        27
48.880        33
48.890        40
48.900        53
48.910        67
48.920        40
48.930        20
48.940        27
48.950        33
48.960        60
48.970        13
48.980        13
48.990        47
49.000        40
49.010        40
49.020        13
49.030        13
49.040        27
49.050        20
49.060        40
49.070        53
49.080        33
49.090        33
49.100        33
49.110        13
49.120        27
49.130        27
49.140        40
49.150        13
49.160        20
49.170        60
49.180        33
49.190        53
49.200        33
49.210        13
49.220        33
49.230        13
49.240        20
49.250        33
49.260        53
49.270        47
49.280        27
49.290        60
49.300        40
49.310        27
49.320        20
49.330        27
49.340        27
49.350        13
49.360        27
49.370        27
49.380        47
49.390        67
49.400        40
49.410        20
49.420        33
49.430         7
49.440        47
49.450        33
49.460        40
49.470        53
49.480        53
49.490        47
49.500        40
49.510        47
49.520        13
49.530        40
49.540        47
49.550        27
49.560        33
49.570        40
49.580        53
49.590        73
49.600        33
49.610        40
49.620        33
49.630        47
49.640        53
49.650        33
49.660        13
49.670        20
49.680        27
49.690         7
49.700        20
49.710        47
49.720        40
49.730        20
49.740        40
49.750        40
49.760        60
49.770        33
49.780        67
49.790        13
49.800        20
49.810        13
49.820        13
49.830        27
49.840        40
49.850        27
49.860        27
49.870        33
49.880        13
49.890        40
49.900        27
49.910        27
49.920        47
49.930        33
49.940        27
49.950        47
49.960        40
49.970        33
49.980        27
49.990        33
50.000        33
50.010        20
50.020        20
50.030        33
50.040        33
50.050        13
50.060        33
50.070        20
50.080        27
50.090        47
50.100        33
50.110        33
50.120        47
50.130        13
50.140        33
50.150        33
50.160        33
50.170        40
50.180        27
50.190        47
50.200        33
50.210        67
50.220        40
50.230        20
50.240        20
50.250        27
50.260        53
50.270        53
50.280        40
50.290        27
50.300        20
50.310        47
50.320        20
50.330         7
50.340        60
50.350        27
50.360        47
50.370        33
50.380        40
50.390        20
50.400        33
50.410        13
50.420        33
50.430        27
50.440        20
50.450        40
50.460        33
50.470        13
50.480        40
50.490        33
50.500         7
50.510        33
50.520        47
50.530        40
50.540        20
50.550        67
50.560        60
50.570        73
50.580        60
50.590        53
50.600        67
50.610        40
50.620        73
50.630       153
50.640       107
50.650       153
50.660       153
50.670       173
50.680       187
50.690       173
50.700       187
50.710       273
50.720       227
50.730       160
50.740       213
50.750       247
50.760       287
50.770       227
50.780       247
50.790       253
50.800       273
50.810       220
50.820       267
50.830       267
50.840       213
50.850       293
50.860       167
50.870       200
50.880       293
50.890       280
50.900       253
50.910       240
50.920       187
50.930       220
50.940       173
50.950       313
50.960       240
50.970       260
50.980       200
50.990       253
51.000       280
51.010       247
51.020       200
51.030       253
51.040       307
51.050       267
51.060       200
51.070       273
51.080       240
51.090       220
51.100       280
51.110       253
51.120       247
51.130       267
51.140       240
51.150       213
51.160       240
51.170       287
51.180       200
51.190       213
51.200       220
51.210       227
51.220       187
51.230       233
51.240       240
51.250       220
51.260       260
51.270       227
51.280       247
51.290       180
51.300       233
51.310       233
51.320       187
51.330       307
51.340       260
51.350       353
51.360       240
51.370       307
51.380       247
51.390       247
51.400       233
51.410       260
51.420       227
51.430       233
51.440       227
51.450       273
51.460       220
51.470       240
51.480       267
51.490       233
51.500       280
51.510       220
51.520       247
51.530       220
51.540       280
51.550       213
51.560       267
51.570       213
51.580       260
51.590       273
51.600       207
51.610       193
51.620       340
51.630       240
51.640       200
51.650       320
51.660       247
51.670       207
51.680       240
51.690       253
51.700       307
51.710       273
51.720       347
51.730       247
51.740       360
51.750       287
51.760       213
51.770       307
51.780       307
51.790       380
51.800       360
51.810       327
51.820       260
51.830       300
51.840       247
51.850       273
51.860       347
51.870       307
51.880       307
51.890       367
51.900       240
51.910       353
51.920       287
51.930       353
51.940       273
51.950       400
51.960       260
51.970       347
51.980       260
51.990       347
52.000       387
52.010       367
52.020       460
52.030       367
52.040       347
52.050       380
52.060       460
52.070       327
52.080       433
52.090       426
52.100       367
52.110       407
52.120       486
52.130       453
52.140       500
52.150       453
52.160       500
52.170       626
52.180       566
52.190       600
52.200       620
52.210       673
52.220       753
52.230       740
52.240       686
52.250      1000
52.260      1080
52.270      1153
52.280      1313
52.290      1413
52.300      1613
52.310      1679
52.320      1833
52.330      1853
52.340      2126
52.350      2306
52.360      2252
52.370      2232
52.380      2386
52.390      2372
52.400      2866
52.410      2932
52.420      3905
52.430      3485
52.440      4805
52.450      5271
52.460      6138
52.470      7963
52.480      9003
52.490     10569
52.500     13888
52.510     18273
52.520     26496
52.530     41663
52.540     65381
52.550     88105
52.560    104265
52.570    112388
52.580    114168
52.590    113921
52.600    104345
52.610     86692
52.620     63168
52.630     40884
52.640     28649
52.650     24544
52.660     25050
52.670     30908
52.680     41410
52.690     51839
52.700     61362
52.710     63741
52.720     65174
52.730     63901
52.740     57744
52.750     48347
52.760     35059
52.770     22631
52.780     13968
52.790      9823
52.800      7857
52.810      6178
52.820      5564
52.830      5698
52.840      4631
52.850      4432
52.860      3772
52.870      3299
52.880      3212
52.890      2612
52.900      2006
52.910      1919
52.920      1379
52.930      1266
52.940      1100
52.950      1140
52.960       973
52.970       893
52.980       800
52.990       920
53.000       786
53.010       873
53.020       740
53.030       660
53.040       773
53.050       666
53.060       593
53.070       600
53.080       540
53.090       666
53.100       626
53.110       486
53.120       453
53.130       480
53.140       553
53.150       513
53.160       540
53.170       460
53.180       546
53.190       440
53.200       513
53.210       360
53.220       413
53.230       400
53.240       367
53.250       387
53.260       360
53.270       466
53.280       413
53.290       446
53.300       373
53.310       300
53.320       446
53.330       247
53.340       360
53.350       353
53.360       407
53.370       327
53.380       367
53.390       347
53.400       347
53.410       340
53.420       320
53.430       360
53.440       247
53.450       313
53.460       247
53.470       287
53.480       393
53.490       367
53.500       267
53.510       273
53.520       260
53.530       253
53.540       273
53.550       293
53.560       333
53.570       260
53.580       247
53.590       313
53.600       260
53.610       273
53.620       320
53.630       253
53.640       240
53.650       187
53.660       287
53.670       240
53.680       240
53.690       247
53.700       267
53.710       307
53.720       287
53.730       187
53.740       240
53.750       267
53.760       227
53.770       247
53.780       240
53.790       227
53.800       220
53.810       240
53.820       240
53.830       227
53.840       273
53.850       287
53.860       233
53.870       253
53.880       253
53.890       220
53.900       193
53.910       300
53.920       200
53.930       233
53.940       180
53.950       253
53.960       173
53.970       260
53.980       213
53.990       213
54.000       227
54.010       220
54.020       240
54.030       213
54.040       233
54.050       280
54.060       167
54.070       187
54.080       240
54.090       147
54.100       153
54.110       180
54.120       200
54.130       227
54.140       260
54.150       153
54.160       187
54.170       213
54.180       173
54.190       173
54.200       140
54.210       213
54.220       187
54.230       180
54.240       220
54.250       173
54.260       193
54.270       160
54.280       273
54.290       173
54.300       227
54.310       193
54.320       233
54.330       220
54.340       147
54.350       220
54.360       140
54.370       187
54.380       227
54.390       200
54.400       213
54.410       220
54.420       220
54.430       160
54.440       193
54.450       140
54.460       207
54.470       153
54.480       167
54.490       320
54.500       153
54.510       187
54.520       167
54.530       180
54.540       160
54.550       120
54.560       233
54.570       213
54.580       213
54.590       160
54.600       160
54.610       220
54.620       153
54.630       233
54.640       213
54.650       233
54.660       200
54.670       113
54.680       193
54.690       167
54.700       120
54.710       180
54.720       160
54.730       180
54.740       200
54.750       140
54.760       193
54.770       167
54.780       153
54.790       193
54.800       187
54.810       140
54.820       200
54.830       173
54.840       193
54.850       120
54.860       160
54.870       160
54.880       193
54.890       153
54.900       193
54.910       127
54.920       127
54.930       147
54.940       180
54.950       173
54.960       160
54.970       207
54.980       147
54.990       187
55.000       213
55.010       207
55.020       167
55.030       153
55.040       133
55.050       207
55.060       133
55.070       140
55.080       207
55.090       180
55.100       147
55.110       140
55.120       200
55.130       187
55.140       180
55.150       147
55.160       153
55.170       160
55.180       200
55.190       133
55.200       193
55.210       180
55.220       140
55.230       220
55.240       193
55.250       173
55.260       160
55.270       180
55.280       160
55.290       140
55.300       147
55.310       127
55.320       133
55.330       153
55.340       200
55.350       160
55.360       180
55.370       227
55.380       167
55.390       160
55.400       167
55.410       167
55.420       207
55.430       127
55.440       100
55.450       167
55.460       173
55.470       173
55.480       107
55.490       167
55.500       160
55.510       180
55.520       173
55.530       127
55.540       233
55.550       127
55.560       220
55.570       107
55.580        93
55.590       200
55.600       173
55.610       147
55.620        93
55.630       173
55.640       233
55.650       153
55.660       173
55.670       173
55.680       153
55.690       133
55.700       167
55.710       120
55.720        93
55.730       127
55.740       187
55.750       147
55.760       113
55.770       173
55.780       133
55.790       180
55.800       227
55.810       147
55.820       133
55.830       120
55.840       147
55.850       193
55.860       113
55.870       133
55.880       140
55.890       153
55.900       127
55.910        87
55.920        93
55.930       173
55.940       147
55.950       127
55.960       140
55.970       193
55.980        80
55.990        87
56.000       140
56.010       147
56.020       120
56.030       140
56.040       140
56.050       173
56.060       133
56.070       140
56.080        73
56.090       240
56.100       133
56.110       153
56.120       133
56.130       140
56.140       127
56.150       133
56.160       153
56.170       127
56.180       187
56.190       153
56.200       140
56.210       160
56.220       140
56.230       100
56.240       147
56.250        87
56.260       167
56.270       107
56.280       147
56.290       160
56.300       120
56.310       127
56.320       120
56.330       133
56.340        87
56.350       140
56.360       160
56.370       120
56.380       147
56.390       147
56.400       147
56.410       120
56.420       140
56.430       147
56.440       160
56.450        87
56.460       133
56.470       133
56.480       140
56.490       140
56.500        93
56.510       120
56.520       160
56.530       100
56.540        87
56.550        93
56.560       140
56.570       147
56.580       147
56.590       153
56.600       100
56.610        87
56.620       127
56.630       180
56.640       127
56.650       133
56.660       193
56.670       133
56.680       100
56.690       100
56.700       120
56.710       160
56.720        87
56.730       167
56.740       113
56.750       120
56.760       133
56.770       127
56.780       127
56.790       180
56.800       120
56.810       160
56.820       113
56.830       173
56.840       133
56.850       127
56.860       107
56.870       133
56.880       127
56.890       173
56.900       127
56.910       140
56.920       200
56.930       113
56.940       127
56.950       140
56.960       133
56.970       127
56.980       160
56.990        93
57.000       160
57.010       140
57.020       160
57.030       113
57.040        73
57.050        80
57.060       127
57.070       113
57.080       140
57.090       113
57.100       153
57.110       107
57.120       153
57.130       173
57.140       147
57.150       200
57.160       153
57.170        87
57.180       127
57.190       133
57.200       107
57.210       120
57.220       153
57.230       127
57.240       133
57.250       200
57.260       100
57.270       127
57.280       133
57.290       160
57.300       147
57.310       180
57.320       187
57.330       107
57.340       180
57.350        87
57.360       133
57.370       120
57.380       153
57.390       120
57.400       147
57.410       153
57.420        87
57.430       107
57.440       147
57.450       133
57.460       133
57.470       200
57.480        73
57.490       107
57.500        73
57.510       167
57.520       107
57.530       173
57.540       133
57.550       120
57.560        80
57.570       133
57.580        93
57.590       107
57.600       107
57.610        87
57.620        60
57.630        87
57.640       127
57.650        93
57.660        73
57.670       140
57.680        73
57.690       107
57.700       107
57.710       167
57.720       173
57.730       140
57.740       113
57.750       127
57.760        73
57.770        47
57.780       113
57.790        40
57.800       107
57.810        53
57.820        80
57.830        87
57.840       147
57.850        73
57.860       113
57.870        93
57.880        60
57.890       100
57.900       100
57.910        87
57.920       113
57.930        87
57.940       107
57.950       167
57.960       100
57.970        40
57.980       127
57.990       100
58.000       113
58.010       127
58.020       140
58.030        93
58.040       140
58.050       100
58.060       120
58.070       100
58.080       133
58.090        87
58.100       107
58.110       113
58.120       100
58.130       113
58.140        87
58.150        80
58.160       107
58.170        80
58.180       153
58.190       153
58.200        87
58.210       107
58.220        60
58.230       113
58.240       107
58.250       100
58.260        53
58.270       147
58.280       120
58.290       140
58.300       120
58.310        73
58.320       113
58.330        67
58.340        93
58.350        80
58.360       160
58.370       167
58.380       140
58.390        80
58.400        67
58.410        93
58.420        87
58.430       113
58.440        93
58.450        87
58.460       107
58.470       107
58.480       120
58.490       107
58.500        93
58.510       133
58.520       113
58.530       147
58.540       113
58.550       100
58.560       127
58.570       133
58.580        73
58.590        87
58.600       100
58.610       100
58.620       100
58.630        73
58.640        80
58.650        87
58.660       127
58.670        73
58.680        73
58.690       127
58.700        73
58.710        93
58.720        67
58.730       113
58.740       107
58.750        93
58.760       120
58.770        73
58.780        53
58.790        93
58.800        87
58.810        80
58.820        73
58.830       113
58.840       107
58.850       140
58.860       113
58.870        87
58.880        93
58.890       100
58.900       127
58.910        53
58.920        60
58.930       100
58.940        67
58.950       147
58.960        60
58.970        93
58.980       127
58.990        53
59.000       107
59.010        80
59.020       100
59.030       127
59.040       107
59.050       113
59.060       133
59.070       100
59.080       140
59.090        87
59.100       113
59.110       100
59.120       107
59.130        93
59.140       107
59.150        47
59.160        80
59.170       127
59.180       127
59.190       100
59.200        80
59.210        80
59.220       113
59.230       120
59.240       113
59.250       100
59.260        93
59.270       140
59.280        67
59.290       127
59.300        60
59.310        53
59.320        73
59.330        47
59.340        67
59.350        20
59.360        87
59.370       140
59.380       113
59.390        73
59.400        73
59.410       120
59.420        53
59.430        73
59.440        73
59.450       133
59.460       113
59.470        87
59.480        80
59.490        80
59.500        73
59.510        87
59.520        67
59.530       120
59.540       107
59.550        93
59.560        93
59.570        67
59.580        73
59.590       120
59.600        93
59.610        67
59.620       140
59.630        93
59.640        80
59.650       107
59.660       100
59.670        53
59.680        73
59.690        40
59.700        67
59.710       100
59.720        80
59.730       113
59.740        80
59.750       127
59.760        93
59.770        87
59.780        60
59.790        47
59.800        67
59.810       113
59.820        80
59.830        53
59.840       120
59.850        60
59.860        27
59.870        60
59.880       100
59.890        73
59.900       107
59.910       100
59.920       120
59.930        73
59.940        53
59.950        60
59.960        80
59.970       100
59.980        53
59.990        67
60.000        67
