20.000         0
20.010         0
20.020       107
20.030       247
20.040       240
20.050       293
20.060       207
20.070       193
20.080       187
20.090       287
20.100       207
20.110       260
20.120       173
20.130       207
20.140       253
20.150       227
20.160       227
20.170       173
20.180       220
20.190       220
20.200       207
20.210       180
20.220       287
20.230       233
20.240       207
20.250       247
20.260       193
20.270       233
20.280       167
20.290       347
20.300       293
20.310       260
20.320       280
20.330       260
20.340       293
20.350       240
20.360       213
20.370       333
20.380       247
20.390       347
20.400       260
20.410       307
20.420       327
20.430       247
20.440       207
20.450       267
20.460       347
20.470       247
20.480       307
20.490       267
20.500       253
20.510       347
20.520       300
20.530       273
20.540       240
20.550       260
20.560       233
20.570       313
20.580       227
20.590       353
20.600       227
20.610       287
20.620       387
20.630       307
20.640       193
20.650       353
20.660       300
20.670       300
20.680       227
20.690       320
20.700       347
20.710       220
20.720       327
20.730       247
20.740       273
20.750       227
20.760       380
20.770       280
20.780       267
20.790       247
20.800       253
20.810       387
20.820       353
20.830       313
20.840       253
20.850       327
20.860       307
20.870       273
20.880       340
20.890       393
20.900       280
20.910       380
20.920       340
20.930       373
20.940       313
20.950       333
20.960       353
20.970       333
20.980       347
20.990       320
21.000       320
21.010       320
21.020       426
21.030       400
21.040       293
21.050       340
21.060       440
21.070       440
21.080       433
21.090       466
21.100       513
21.110       433
21.120       280
21.130       400
21.140       446
21.150       480
21.160       440
21.170       600
21.180       693
21.190       886
21.200      1253
21.210      1446
21.220      1766
21.230      1946
21.240      2092
21.250      2053
21.260      1959
21.270      1613
21.280      1499
21.290      1066
21.300       726
21.310       660
21.320       593
21.330       440
21.340       546
21.350       433
21.360       446
21.370       500
21.380       446
21.390       473
21.400       433
21.410       453
21.420       506
21.430       440
21.440       373
21.450       433
21.460       393
21.470       420
21.480       440
21.490       466
21.500       393
21.510       367
21.520       400
21.530       460
21.540       420
21.550       446
21.560       413
21.570       453
21.580       440
21.590       420
21.600       486
21.610       426
21.620       413
21.630       420
21.640       387
21.650       387
21.660       426
21.670       446
21.680       420
21.690       300
21.700       500
21.710       426
21.720       407
21.730       413
21.740       466
21.750       433
21.760       540
21.770       347
21.780       446
21.790       446
21.800       380
21.810       373
21.820       380
21.830       400
21.840       433
21.850       413
21.860       440
21.870       327
21.880       300
21.890       446
21.900       407
21.910       480
21.920       400
21.930       400
21.940       460
21.950       553
21.960       446
21.970       473
21.980       560
21.990       420
22.000       466
22.010       360
22.020       506
22.030       347
22.040       440
22.050       407
22.060       400
22.070       426
22.080       387
22.090       500
22.100       387
22.110       540
22.120       480
22.130       440
22.140       533
22.150       513
22.160       580
22.170       553
22.180       606
22.190       560
22.200       613
22.210       786
22.220       666
22.230       813
22.240       826
22.250       886
22.260       900
22.270      1020
22.280      1146
22.290      1240
22.300      1313
22.310      1473
22.320      1453
22.330      1359
22.340      1499
22.350      1573
22.360      1466
22.370      1633
22.380      1579
22.390      1659
22.400      1933
22.410      1713
22.420      1846
22.430      1613
22.440      1513
22.450      1633
22.460      1479
22.470      1359
22.480      1326
22.490      1386
22.500      1299
22.510      1200
22.520      1193
22.530      1153
22.540      1080
22.550       933
22.560       960
22.570       860
22.580       886
22.590       906
22.600       693
22.610       760
22.620       686
22.630       646
22.640       533
22.650       686
22.660       626
22.670       666
22.680       560
22.690       586
22.700       766
22.710       880
22.720       793
22.730      1100
22.740      1060
22.750      1120
22.760      1013
22.770      1286
22.780      1026
22.790      1253
22.800      1153
22.810      1153
22.820      1033
22.830      1133
22.840      1086
22.850      1093
22.860      1133
22.870       980
22.880      1133
22.890      1100
22.900      1020
22.910      1133
22.920      1226
22.930      1273
22.940      1060
22.950      1166
22.960      1153
22.970      1066
22.980      1220
22.990      1140
23.000      1213
23.010      1373
23.020      1233
23.030      1193
23.040      1213
23.050      1133
23.060      1173
23.070      1339
23.080      1120
23.090      1213
23.100      1246
23.110      1220
23.120      1213
23.130      1153
23.140      1299
23.150      1186
23.160      1213
23.170      1153
23.180      1393
23.190      1399
23.200      1386
23.210      1413
23.220      1413
23.230      1326
23.240      1359
23.250      1313
23.260      1499
23.270      1586
23.280      1679
23.290      1793
23.300      1893
23.310      2086
23.320      2246
23.330      2759
23.340      3045
23.350      3205
23.360      3812
23.370      4705
23.380      5231
23.390      5871
23.400      6777
23.410      8190
23.420      8763
23.430     10936
23.440     13048
23.450     17233
23.460     25177
23.470     37518
23.480     61715
23.490     91803
23.500    123744
23.510    145802
23.520    157324
23.530    164561
23.540    168666
23.550    170125
23.560    161036
23.570    148567
23.580    127836
23.590    111829
23.600    101140
23.610     88944
23.620     73091
23.630     55824
23.640     39238
23.650     27649
23.660     20232
23.670     15614
23.680     13181
23.690     10762
23.700      9729
23.710      8503
23.720      7444
23.730      5778
23.740      5025
23.750      4125
23.760      3659
23.770      3139
23.780      2679
23.790      2366
23.800      2286
23.810      2006
23.820      2019
23.830      1919
23.840      1686
23.850      1699
23.860      1506
23.870      1573
23.880      1386
23.890      1439
23.900      1226
23.910      1326
23.920      1339
23.930      1426
23.940      1446
23.950      1160
23.960      1353
23.970      1273
23.980      1173
23.990      1093
24.000      1100
24.010      1113
24.020      1246
24.030      1166
24.040      1066
24.050      1046
24.060      1113
24.070      1080
24.080      1100
24.090      1153
24.100      1120
24.110      1226
24.120       946
24.130      1020
24.140      1073
24.150      1100
24.160      1033
24.170       986
24.180      1060
24.190       926
24.200      1000
24.210      1126
24.220      1060
24.230      1053
24.240       926
24.250       940
24.260       986
24.270       880
24.280       980
24.290       853
24.300       866
24.310       893
24.320       966
24.330       906
24.340       926
24.350      1020
24.360       846
24.370       873
24.380       920
24.390       826
24.400       980
24.410      1060
24.420       786
24.430       980
24.440       820
24.450       966
24.460       800
24.470       993
24.480       866
24.490      1100
24.500       720
24.510      1000
24.520       813
24.530       886
24.540       900
24.550       906
24.560       760
24.570       853
24.580       933
24.590       900
24.600      1013
24.610       900
24.620       986
24.630       940
24.640       833
24.650       913
24.660       893
24.670       886
24.680       886
24.690       980
24.700       700
24.710       840
24.720      1066
24.730       880
24.740       833
24.750       833
24.760       693
24.770       873
24.780       926
24.790      1006
24.800       873
24.810       893
24.820       780
24.830       780
24.840       940
24.850       900
24.860       893
24.870       860
24.880       913
24.890      1000
24.900       780
24.910       813
24.920       833
24.930       800
24.940       940
24.950       933
24.960       800
24.970       813
24.980       853
24.990       866
25.000       813
25.010       933
25.020       726
25.030       800
25.040       800
25.050       893
25.060       800
25.070       800
25.080       766
25.090       793
25.100       813
25.110       880
25.120       773
25.130       806
25.140       673
25.150       686
25.160       826
25.170       780
25.180       806
25.190       813
25.200       820
25.210       800
25.220       880
25.230       806
25.240       833
25.250       773
25.260       726
25.270       746
25.280       686
25.290       780
25.300       780
25.310       780
25.320       773
25.330       773
25.340       926
25.350       886
25.360       893
25.370       813
25.380       780
25.390       666
25.400       766
25.410       786
25.420       740
25.430       693
25.440       833
25.450       720
25.460       746
25.470       860
25.480       753
25.490       806
25.500       793
25.510       646
25.520       713
25.530       640
25.540       780
25.550       700
25.560       833
25.570       733
25.580       706
25.590       666
25.600       720
25.610       753
25.620       766
25.630       680
25.640       760
25.650       640
25.660       760
25.670       640
25.680       780
25.690       580
25.700       686
25.710       693
25.720       846
25.730       700
25.740       626
25.750       766
25.760       773
25.770       660
25.780       706
25.790       740
25.800       766
25.810       733
25.820       733
25.830       833
25.840       753
25.850       726
25.860       706
25.870       766
25.880       680
25.890       613
25.900       960
25.910       746
25.920       900
25.930       620
25.940       746
25.950       793
25.960       766
25.970       800
25.980       680
25.990       726
26.000       733
26.010       553
26.020       700
26.030       793
26.040       646
26.050       606
26.060       773
26.070       660
26.080       673
26.090       686
26.100       640
26.110       740
26.120       760
26.130       666
26.140       720
26.150       706
26.160       640
26.170       653
26.180       686
26.190       726
26.200       813
26.210       820
26.220       880
26.230       753
26.240       573
26.250       693
26.260       720
26.270       666
26.280       640
26.290       666
26.300       720
26.310       640
26.320       793
26.330       626
26.340       806
26.350       786
26.360       706
26.370       573
26.380       653
26.390       553
26.400       546
26.410       613
26.420       746
26.430       700
26.440       593
26.450       513
26.460       593
26.470       660
26.480       686
26.490       666
26.500       686
26.510       766
26.520       706
26.530       606
26.540       573
26.550       600
26.560       620
26.570       640
26.580       640
26.590       680
26.600       660
26.610       666
26.620       760
26.630       686
26.640       653
26.650       686
26.660       600
26.670       666
26.680       506
26.690       660
26.700       746
26.710       560
26.720       693
26.730       553
26.740       580
26.750       686
26.760       513
26.770       633
26.780       726
26.790       660
26.800       613
26.810       633
26.820       560
26.830       560
26.840       573
26.850       673
26.860       513
26.870       673
26.880       686
26.890       693
26.900       620
26.910       553
26.920       626
26.930       620
26.940       620
26.950       600
26.960       553
26.970       740
26.980       520
26.990       566
27.000       580
27.010       586
27.020       580
27.030       713
27.040       560
27.050       593
27.060       540
27.070       680
27.080       693
27.090       686
27.100       540
27.110       613
27.120       580
27.130       586
27.140       613
27.150       666
27.160       686
27.170       460
27.180       593
27.190       660
27.200       646
27.210       586
27.220       633
27.230       666
27.240       580
27.250       613
27.260       620
27.270       573
27.280       506
27.290       626
27.300       540
27.310       673
27.320       640
27.330       573
27.340       526
27.350       673
27.360       566
27.370       713
27.380       560
27.390       553
27.400       606
27.410       533
27.420       680
27.430       660
27.440       566
27.450       480
27.460       600
27.470       566
27.480       500
27.490       586
27.500       613
27.510       553
27.520       566
27.530       493
27.540       493
27.550       620
27.560       633
27.570       660
27.580       540
27.590       533
27.600       580
27.610       540
27.620       573
27.630       613
27.640       613
27.650       526
27.660       540
27.670       626
27.680       500
27.690       520
27.700       506
27.710       633
27.720       533
27.730       706
27.740       446
27.750       606
27.760       580
27.770       473
27.780       693
27.790       480
27.800       387
27.810       513
27.820       520
27.830       573
27.840       573
27.850       606
27.860       593
27.870       473
27.880       546
27.890       486
27.900       553
27.910       533
27.920       513
27.930       446
27.940       660
27.950       566
27.960       460
27.970       486
27.980       553
27.990       453
28.000       540
28.010       626
28.020       540
28.030       480
28.040       473
28.050       553
28.060       540
28.070       486
28.080       526
28.090       513
28.100       513
28.110       500
28.120       473
28.130       633
28.140       546
28.150       533
28.160       453
28.170       506
28.180       466
28.190       426
28.200       566
28.210       526
28.220       493
28.230       340
28.240       526
28.250       493
28.260       493
28.270       613
28.280       553
28.290       566
28.300       560
28.310       620
28.320       586
28.330       433
28.340       493
28.350       486
28.360       486
28.370       500
28.380       520
28.390       473
28.400       473
28.410       586
28.420       580
28.430       566
28.440       493
28.450       480
28.460       573
28.470       480
28.480       613
28.490       580
28.500       440
28.510       486
28.520       493
28.530       493
28.540       493
28.550       586
28.560       480
28.570       526
28.580       586
28.590       526
28.600       473
28.610       453
28.620       340
28.630       400
28.640       380
28.650       460
28.660       453
28.670       460
28.680       460
28.690       400
28.700       373
28.710       367
28.720       446
28.730       453
28.740       453
28.750       526
28.760       446
28.770       433
28.780       420
28.790       500
28.800       486
28.810       480
28.820       480
28.830       440
28.840       500
28.850       360
28.860       520
28.870       420
28.880       400
28.890       453
28.900       533
28.910       453
28.920       593
28.930       466
28.940       480
28.950       480
28.960       453
28.970       353
28.980       473
28.990       520
29.000       373
29.010       440
29.020       493
29.030       540
29.040       433
29.050       446
29.060       526
29.070       420
29.080       533
29.090       500
29.100       433
29.110       460
29.120       426
29.130       573
29.140       393
29.150       506
29.160       367
29.170       407
29.180       480
29.190       380
29.200       473
29.210       520
29.220       513
29.230       420
29.240       533
29.250       373
29.260       513
29.270       573
29.280       566
29.290       407
29.300       480
29.310       466
29.320       513
29.330       526
29.340       633
29.350       613
29.360       640
29.370       593
29.380       633
29.390       493
29.400       493
29.410       540
29.420       460
29.430       600
29.440       680
29.450       546
29.460       480
29.470       453
29.480       540
29.490       533
29.500       493
29.510       407
29.520       480
29.530       466
29.540       446
29.550       466
29.560       373
29.570       413
29.580       453
29.590       446
29.600       420
29.610       460
29.620       333
29.630       387
29.640       393
29.650       333
29.660       367
29.670       413
29.680       453
29.690       380
29.700       460
29.710       393
29.720       300
29.730       380
29.740       400
29.750       446
29.760       313
29.770       426
29.780       407
29.790       420
29.800       333
29.810       407
29.820       367
29.830       367
29.840       313
29.850       426
29.860       347
29.870       353
29.880       400
29.890       473
29.900       400
29.910       393
29.920       347
29.930       393
29.940       313
29.950       486
29.960       400
29.970       320
29.980       446
29.990       433
30.000       320
30.010       446
30.020       387
30.030       453
30.040       327
30.050       446
30.060       407
30.070       327
30.080       353
30.090       426
30.100       393
30.110       360
30.120       373
30.130       446
30.140       280
30.150       293
30.160       273
30.170       313
30.180       327
30.190       360
30.200       287
30.210       313
30.220       367
30.230       367
30.240       347
30.250       393
30.260       347
30.270       367
30.280       273
30.290       373
30.300       433
30.310       313
30.320       407
30.330       347
30.340       300
30.350       353
30.360       313
30.370       287
30.380       280
30.390       347
30.400       260
30.410       426
30.420       320
30.430       433
30.440       480
30.450       426
30.460       367
30.470       327
30.480       273
30.490       360
30.500       367
30.510       340
30.520       407
30.530       426
30.540       387
30.550       353
30.560       373
30.570       320
30.580       280
30.590       320
30.600       327
30.610       387
30.620       407
30.630       247
30.640       380
30.650       373
30.660       307
30.670       313
30.680       426
30.690       300
30.700       333
30.710       333
30.720       353
30.730       340
30.740       320
30.750       320
30.760       327
30.770       253
30.780       327
30.790       413
30.800       273
30.810       373
30.820       320
30.830       347
30.840       253
30.850       367
30.860       446
30.870       413
30.880       267
30.890       287
30.900       293
30.910       340
30.920       387
30.930       287
30.940       360
30.950       313
30.960       340
30.970       473
30.980       327
30.990       320
31.000       307
31.010       320
31.020       367
31.030       313
31.040       347
31.050       367
31.060       347
31.070       387
31.080       360
31.090       320
31.100       320
31.110       280
31.120       347
31.130       367
31.140       233
31.150       353
31.160       347
31.170       347
31.180       293
31.190       280
31.200       307
31.210       420
31.220       287
31.230       320
31.240       460
31.250       287
31.260       313
31.270       300
31.280       280
31.290       353
31.300       407
31.310       307
31.320       367
31.330       273
31.340       340
31.350       233
31.360       300
31.370       333
31.380       340
31.390       300
31.400       260
31.410       373
31.420       387
31.430       393
31.440       387
31.450       320
31.460       333
31.470       227
31.480       387
31.490       426
31.500       300
31.510       313
31.520       267
31.530       307
31.540       307
31.550       253
31.560       240
31.570       340
31.580       247
31.590       307
31.600       300
31.610       313
31.620       293
31.630       293
31.640       333
31.650       320
31.660       227
31.670       267
31.680       280
31.690       333
31.700       313
31.710       347
31.720       213
31.730       287
31.740       240
31.750       280
31.760       260
31.770       260
31.780       320
31.790       333
31.800       327
31.810       333
31.820       347
31.830       213
31.840       340
31.850       327
31.860       273
31.870       320
31.880       320
31.890       333
31.900       280
31.910       280
31.920       380
31.930       287
31.940       267
31.950       353
31.960       293
31.970       260
31.980       420
31.990       240
32.000       353
32.010       347
32.020       400
32.030       373
32.040       280
32.050       267
32.060       353
32.070       333
32.080       347
32.090       407
32.100       227
32.110       333
32.120       240
32.130       400
32.140       280
32.150       253
32.160       307
32.170       340
32.180       347
32.190       293
32.200       293
32.210       220
32.220       327
32.230       247
32.240       300
32.250       320
32.260       300
32.270       273
32.280       260
32.290       313
32.300       280
32.310       227
32.320       240
32.330       267
32.340       300
32.350       260
32.360       267
32.370       260
32.380       273
32.390       260
32.400       260
32.410       253
32.420       260
32.430       200
32.440       240
32.450       200
32.460       233
32.470       260
32.480       233
32.490       253
32.500       273
32.510       213
32.520       227
32.530       280
32.540       280
32.550       300
32.560       233
32.570       300
32.580       333
32.590       227
32.600       220
32.610       253
32.620       247
32.630       287
32.640       233
32.650       340
32.660       227
32.670       220
32.680       253
32.690       293
32.700       207
32.710       293
32.720       220
32.730       227
32.740       273
32.750       253
32.760       233
32.770       327
32.780       187
32.790       220
32.800       273
32.810       167
32.820       200
32.830       307
32.840       193
32.850       227
32.860       220
32.870       247
32.880       240
32.890       220
32.900       207
32.910       240
32.920       280
32.930       213
32.940       233
32.950       240
32.960       160
32.970       207
32.980       253
32.990       213
33.000       273
33.010       247
33.020       280
33.030       253
33.040       207
33.050       213
33.060       227
33.070       253
33.080       280
33.090       213
33.100       267
33.110       267
33.120       193
33.130       233
33.140       320
33.150       273
33.160       333
33.170       253
33.180       207
33.190       293
33.200       227
33.210       207
33.220       187
33.230       300
33.240       233
33.250       167
33.260       253
33.270       287
33.280       293
33.290       207
33.300       187
33.310       213
33.320       187
33.330       207
33.340       253
33.350       200
33.360       253
33.370       247
33.380       213
33.390       200
33.400       300
33.410       233
33.420       307
33.430       207
33.440       260
33.450       240
33.460       260
33.470       240
33.480       227
33.490       213
33.500       193
33.510       220
33.520       220
33.530       253
33.540       300
33.550       207
33.560       253
33.570       187
33.580       253
33.590       227
33.600       200
33.610       213
33.620       207
33.630       253
33.640       220
33.650       167
33.660       253
33.670       187
33.680       207
33.690       247
33.700       220
33.710       220
33.720       187
33.730       287
33.740       187
33.750       193
33.760       233
33.770       173
33.780       153
33.790       213
33.800       200
33.810       200
33.820       160
33.830       187
33.840       207
33.850       180
33.860       133
33.870       240
33.880       160
33.890       253
33.900       227
33.910       147
33.920       227
33.930       187
33.940       207
33.950       167
33.960       173
33.970       213
33.980       213
33.990       240
34.000       127
34.010       227
34.020       207
34.030       247
34.040       240
34.050       153
34.060       207
34.070       193
34.080       260
34.090       220
34.100       187
34.110       213
34.120       180
34.130       180
34.140       180
34.150       180
34.160       253
34.170       213
34.180       220
34.190       167
34.200       173
34.210       167
34.220       220
34.230       160
34.240       267
34.250       240
34.260       233
34.270       240
34.280       127
34.290       127
34.300       213
34.310       167
34.320       207
34.330       233
34.340       180
34.350       187
34.360       127
34.370       153
34.380       173
34.390       173
34.400       220
34.410       153
34.420       247
34.430       200
34.440       173
34.450       187
34.460       173
34.470       100
34.480       193
34.490       193
34.500       173
34.510       153
34.520       193
34.530       160
34.540       147
34.550       167
34.560       127
34.570       213
34.580       133
34.590       213
34.600       133
34.610       160
34.620       153
34.630       193
34.640       213
34.650       173
34.660       140
34.670       213
34.680       220
34.690       193
34.700       187
34.710       233
34.720       127
34.730       160
34.740       120
34.750       287
34.760       160
34.770       167
34.780       193
34.790       147
34.800       193
34.810       260
34.820       153
34.830       140
34.840       180
34.850       113
34.860       120
34.870       147
34.880       100
34.890       207
34.900       120
34.910       173
34.920       127
34.930       200
34.940       173
34.950       120
34.960       187
34.970       140
34.980       133
34.990       173
35.000       187
35.010       180
35.020       160
35.030       140
35.040       227
35.050       127
35.060       140
35.070       213
35.080       207
35.090       187
35.100       200
35.110       147
35.120       160
35.130       187
35.140       153
35.150       127
35.160       233
35.170       120
35.180       160
35.190       127
35.200       140
35.210       220
35.220       187
35.230       153
35.240       213
35.250       180
35.260       180
35.270       120
35.280       207
35.290       207
35.300       187
35.310       167
35.320       147
35.330       147
35.340       167
35.350       147
35.360       153
35.370       153
35.380       193
35.390       153
35.400       160
35.410       167
35.420       207
35.430        67
35.440       207
35.450       133
35.460       133
35.470       167
35.480       113
35.490       133
35.500       160
35.510       140
35.520       160
35.530       140
35.540       147
35.550       187
35.560       120
35.570       160
35.580       147
35.590       173
35.600       113
35.610       180
35.620        67
35.630       120
35.640       167
35.650       193
35.660       180
35.670       153
35.680       147
35.690       160
35.700       193
35.710       153
35.720       207
35.730       227
35.740       167
35.750       140
35.760       133
35.770       127
35.780       233
35.790       227
35.800       160
35.810       167
35.820       180
35.830       187
35.840       207
35.850       153
35.860       180
35.870       167
35.880       107
35.890       127
35.900       180
35.910       180
35.920       200
35.930       193
35.940       140
35.950       140
35.960       213
35.970       200
35.980       193
35.990       200
36.000       213
36.010       173
36.020       187
36.030       207
36.040       227
36.050       160
36.060       147
36.070       180
36.080       260
36.090       180
36.100       200
36.110       187
36.120       113
36.130       147
36.140       200
36.150       147
36.160       193
36.170       127
36.180       187
36.190       147
36.200       160
36.210       193
36.220       120
36.230       207
36.240       193
36.250       167
36.260       140
36.270       220
36.280       213
36.290       173
36.300       153
36.310        87
36.320       193
36.330       127
36.340       220
36.350       113
36.360       160
36.370       187
36.380       193
36.390       127
36.400       187
36.410       147
36.420        60
36.430       180
36.440       120
36.450       140
36.460       200
36.470       187
36.480       133
36.490       133
36.500        93
36.510       167
36.520       160
36.530       100
36.540       120
36.550       107
36.560       220
36.570       153
36.580       173
36.590       140
36.600       127
36.610       167
36.620       113
36.630       133
36.640       120
36.650       193
36.660       100
36.670       173
36.680       193
36.690       140
36.700       100
36.710       187
36.720       140
36.730       127
36.740       220
36.750       127
36.760       100
36.770       160
36.780       113
36.790       100
36.800       147
36.810       147
36.820       147
36.830       187
36.840       107
36.850       107
36.860       120
36.870        87
36.880       167
36.890       133
36.900       167
36.910       127
36.920       127
36.930       173
36.940       107
36.950       147
36.960       140
36.970       133
36.980       147
36.990       180
37.000       113
37.010       120
37.020       140
37.030        93
37.040       167
37.050       173
37.060       147
37.070        73
37.080       140
37.090       147
37.100       100
37.110       160
37.120       153
37.130       113
37.140       133
37.150       160
37.160       140
37.170       147
37.180        80
37.190       160
37.200       180
37.210       140
37.220       113
37.230       120
37.240       153
37.250       153
37.260       180
37.270       113
37.280       147
37.290       140
37.300       167
37.310       113
37.320       153
37.330       173
37.340       100
37.350       133
37.360        67
37.370       153
37.380       173
37.390       127
37.400       147
37.410       113
37.420       113
37.430       113
37.440       107
37.450       193
37.460       133
37.470       113
37.480       127
37.490       133
37.500       180
37.510       113
37.520       193
37.530       153
37.540       147
37.550        87
37.560       140
37.570       173
37.580       133
37.590       187
37.600       133
37.610       133
37.620       127
37.630       133
37.640       180
37.650        87
37.660       100
37.670        87
37.680       127
37.690        87
37.700       167
37.710       140
37.720       113
37.730       147
37.740       120
37.750        93
37.760       133
37.770       153
37.780       147
37.790       120
37.800       120
37.810       140
37.820       173
37.830       160
37.840       140
37.850       153
37.860       173
37.870       147
37.880       113
37.890       140
37.900        93
37.910       180
37.920       133
37.930       140
37.940       107
37.950       147
37.960       153
37.970       200
37.980       120
37.990       107
38.000       173
38.010       120
38.020        80
38.030       153
38.040       160
38.050       147
38.060       120
38.070       167
38.080       127
38.090       120
38.100       140
38.110        93
38.120       120
38.130       113
38.140       127
38.150       153
38.160       133
38.170       127
38.180        87
38.190       100
38.200       120
38.210       107
38.220       187
38.230       167
38.240       120
38.250       113
38.260       173
38.270       167
38.280        80
38.290        87
38.300        93
38.310       120
38.320       147
38.330       160
38.340       100
38.350       140
38.360        80
38.370       120
38.380       113
38.390       113
38.400        93
38.410       160
38.420       180
38.430       193
38.440        93
38.450       147
38.460       147
38.470       113
38.480       153
38.490       147
38.500       133
38.510       140
38.520       147
38.530        87
38.540       133
38.550       160
38.560       147
38.570       133
38.580       100
38.590        73
38.600       133
38.610       153
38.620       147
38.630       133
38.640       107
38.650        93
38.660       100
38.670       173
38.680       140
38.690       187
38.700       127
38.710        73
38.720       127
38.730       173
38.740       133
38.750       160
38.760       140
38.770       140
38.780       107
38.790       107
38.800        93
38.810        73
38.820       113
38.830       200
38.840       100
38.850       153
38.860       180
38.870       120
38.880        93
38.890       120
38.900        93
38.910       120
38.920        80
38.930       120
38.940       120
38.950       100
38.960       133
38.970       120
38.980       107
38.990       100
39.000        87
39.010       140
39.020       133
39.030        87
39.040       113
39.050       127
39.060       107
39.070        73
39.080       140
39.090       107
39.100       120
39.110       127
39.120       140
39.130       167
39.140       107
39.150       127
39.160       133
39.170       113
39.180        60
39.190       120
39.200       127
39.210       180
39.220       153
39.230       113
39.240       120
39.250       120
39.260       100
39.270       113
39.280       140
39.290       113
39.300       120
39.310       140
39.320       193
39.330       193
39.340       160
39.350       147
39.360       160
39.370       227
39.380       140
39.390       133
39.400       200
39.410       220
39.420       173
39.430       160
39.440       173
39.450       133
39.460       153
39.470       173
39.480       173
39.490       140
39.500       127
39.510       133
39.520       127
39.530       120
39.540       147
39.550       140
39.560       160
39.570       193
39.580       107
39.590       153
39.600       140
39.610       100
39.620       140
39.630       120
39.640       147
39.650       113
39.660       160
39.670       173
39.680       167
39.690        73
39.700        93
39.710       147
39.720       107
39.730       153
39.740       107
39.750       180
39.760       180
39.770       147
39.780        93
39.790       147
39.800        80
39.810       127
39.820       147
39.830       107
39.840       127
39.850       100
39.860       107
39.870       133
39.880        67
39.890       140
39.900        67
39.910       127
39.920       120
39.930       100
39.940       133
39.950       113
39.960       127
39.970       140
39.980       127
39.990       107
40.000       180
40.010        60
40.020        80
40.030       100
40.040       160
40.050       160
40.060       127
40.070        87
40.080        87
40.090       100
40.100        93
40.110       113
40.120       120
40.130        93
40.140       100
40.150       140
40.160       113
40.170       120
40.180       120
40.190       153
40.200        73
40.210       107
40.220       133
40.230        53
40.240       113
40.250       120
40.260       100
40.270        80
40.280       100
40.290        73
40.300       120
40.310        80
40.320        47
40.330        73
40.340        87
40.350       107
40.360        93
40.370       133
40.380        80
40.390       133
40.400        87
40.410        80
40.420        67
40.430       100
40.440        93
40.450        87
40.460       153
40.470       133
40.480       127
40.490       140
40.500        93
40.510        93
40.520        87
40.530        93
40.540        93
40.550        73
40.560        87
40.570       120
40.580       173
40.590       133
40.600       113
40.610       173
40.620       113
40.630       127
40.640       107
40.650       127
40.660       100
40.670       107
40.680       107
40.690       107
40.700       133
40.710        73
40.720       120
40.730       113
40.740        93
40.750       180
40.760        93
40.770        40
40.780       173
40.790       133
40.800       127
40.810       193
40.820       167
40.830       120
40.840       107
40.850       113
40.860       133
40.870       213
40.880       140
40.890       133
40.900       153
40.910       147
40.920       133
40.930       147
40.940       107
40.950       140
40.960       140
40.970       140
40.980       147
40.990       107
41.000       113
41.010       127
41.020       113
41.030       213
41.040       153
41.050       147
41.060       153
41.070        93
41.080       120
41.090       160
41.100       100
41.110       133
41.120       153
41.130       100
41.140       153
41.150       133
41.160        73
41.170       120
41.180       127
41.190       140
41.200       113
41.210       153
41.220        73
41.230       120
41.240       127
41.250       160
41.260        80
41.270       193
41.280       140
41.290       113
41.300       133
41.310       107
41.320        73
41.330        80
41.340       127
41.350        87
41.360       133
41.370       100
41.380       107
41.390        87
41.400       147
41.410        73
41.420        73
41.430       120
41.440        87
41.450       100
41.460       107
41.470       107
41.480        80
41.490       100
41.500        80
41.510        40
41.520        67
41.530       167
41.540       100
41.550        87
41.560       100
41.570       100
41.580        80
41.590       120
41.600        87
41.610       107
41.620       107
41.630       113
41.640        73
41.650       127
41.660        80
41.670       180
41.680       127
41.690       140
41.700       100
41.710       113
41.720       100
41.730       113
41.740        80
41.750       147
41.760       120
41.770        73
41.780       120
41.790       133
41.800       113
41.810        87
41.820        53
41.830       100
41.840       147
41.850        67
41.860        93
41.870       147
41.880       140
41.890        80
41.900        73
41.910       160
41.920       113
41.930       133
41.940        80
41.950        80
41.960       147
41.970        20
41.980       107
41.990       107
42.000       100
42.010       107
42.020        73
42.030        93
42.040       127
42.050        67
42.060        87
42.070       113
42.080        40
42.090        87
42.100        67
42.110        87
42.120       100
42.130       160
42.140       100
42.150        93
42.160       113
42.170       120
42.180       127
42.190       113
42.200        80
42.210       100
42.220       160
42.230       140
42.240       133
42.250        87
42.260       100
42.270        87
42.280        80
42.290       100
42.300       153
42.310       113
42.320       113
42.330       100
42.340        80
42.350       167
42.360       140
42.370        93
42.380       180
42.390       153
42.400       113
42.410       127
42.420        67
42.430        87
42.440        67
42.450        67
42.460        73
42.470       147
42.480        80
42.490        80
42.500        87
42.510        87
42.520       180
42.530       113
42.540       113
42.550        87
42.560       107
42.570       120
42.580       127
42.590       120
42.600       140
42.610       140
42.620        93
42.630       107
42.640       153
42.650        33
42.660       107
42.670       113
42.680       100
42.690       127
42.700       100
42.710       113
42.720       147
42.730       207
42.740       147
42.750       140
42.760       140
42.770       167
42.780       187
42.790       193
42.800       220
42.810       167
42.820       220
42.830       153
42.840       173
42.850       113
42.860       200
42.870       233
42.880       233
42.890       173
42.900       193
42.910       227
42.920       173
42.930       213
42.940       193
42.950       187
42.960       220
42.970       213
42.980       227
42.990       213
43.000       253
43.010       227
43.020       267
43.030       267
43.040       267
43.050       360
43.060       333
43.070       440
43.080       486
43.090       760
43.100       720
43.110       880
43.120      1140
43.130      1533
43.140      1879
43.150      2266
43.160      2879
43.170      3005
43.180      3265
43.190      2999
43.200      2839
43.210      2612
43.220      1999
43.230      1599
43.240      1279
43.250      1113
43.260       746
43.270       680
43.280       566
43.290       546
43.300       486
43.310       426
43.320       347
43.330       293
43.340       287
43.350       287
43.360       193
43.370       280
43.380       227
43.390       187
43.400       227
43.410       200
43.420       227
43.430       173
43.440       140
43.450       207
43.460       173
43.470       167
43.480       193
43.490       153
43.500       180
43.510       127
43.520       147
43.530       233
43.540       140
43.550        93
43.560       180
43.570       147
43.580       187
43.590       167
43.600       133
43.610       207
43.620       113
43.630       147
43.640       140
43.650       147
43.660       160
43.670       153
43.680       133
43.690       133
43.700       113
43.710       180
43.720       120
43.730       173
43.740       140
43.750       113
43.760        93
43.770       100
43.780       120
43.790        93
43.800       153
43.810       140
43.820       133
43.830       140
43.840       147
43.850       120
43.860       127
43.870       167
43.880       160
43.890       133
43.900       133
43.910        87
43.920       100
43.930        93
43.940       153
43.950       160
43.960       153
43.970       140
43.980       140
43.990       187
44.000       207
44.010       147
44.020       187
44.030       120
44.040       187
44.050       173
44.060       160
44.070       200
44.080       187
44.090       160
44.100       220
44.110       187
44.120       180
44.130       153
44.140       173
44.150       140
44.160       240
44.170       167
44.180       180
44.190       153
44.200       193
44.210       140
44.220       193
44.230       240
44.240       140
44.250       193
44.260       187
44.270       140
44.280       173
44.290       147
44.300       160
44.310       187
44.320       247
44.330       220
44.340       147
44.350       147
44.360       207
44.370       153
44.380       173
44.390       153
44.400       127
44.410       247
44.420       153
44.430       173
44.440       167
44.450       167
44.460       200
44.470       193
44.480       213
44.490       213
44.500       260
44.510       207
44.520       180
44.530       193
44.540       213
44.550       227
44.560       147
44.570       193
44.580       180
44.590       220
44.600       187
44.610       247
44.620       113
44.630       267
44.640       207
44.650       200
44.660       240
44.670       187
44.680       200
44.690       180
44.700       207
44.710       253
44.720       167
44.730       173
44.740       167
44.750       233
44.760       160
44.770       320
44.780       133
44.790       213
44.800       233
44.810       167
44.820       213
44.830       233
44.840       187
44.850       280
44.860       220
44.870       273
44.880       273
44.890       240
44.900       287
44.910       267
44.920       253
44.930       367
44.940       280
44.950       347
44.960       340
44.970       347
44.980       340
44.990       387
45.000       327
45.010       413
45.020       400
45.030       433
45.040       433
45.050       440
45.060       440
45.070       626
45.080       466
45.090       526
45.100       506
45.110       620
45.120       666
45.130       653
45.140       640
45.150       866
45.160      1013
45.170       880
45.180      1093
45.190      1086
45.200      1220
45.210      1439
45.220      1693
45.230      1533
45.240      1813
45.250      1779
45.260      2053
45.270      2112
45.280      2306
45.290      2686
45.300      2599
45.310      2812
45.320      3145
45.330      3232
45.340      3552
45.350      3898
45.360      3858
45.370      4372
45.380      4338
45.390      4731
45.400      5011
45.410      5165
45.420      5758
45.430      5791
45.440      5991
45.450      6238
45.460      6471
45.470      7124
45.480      6517
45.490      6784
45.500      7124
45.510      7624
45.520      7197
45.530      7690
45.540      7784
45.550      7890
45.560      7943
45.570      7644
45.580      7804
45.590      7550
45.600      8390
45.610      8010
45.620      7937
45.630      7824
45.640      7904
45.650      7330
45.660      7597
45.670      7150
45.680      7350
45.690      7304
45.700      6784
45.710      6904
45.720      6817
45.730      6711
45.740      6691
45.750      6377
45.760      6317
45.770      6377
45.780      5618
45.790      5818
45.800      5451
45.810      5131
45.820      5298
45.830      5405
45.840      4838
45.850      4558
45.860      4525
45.870      4358
45.880      4452
45.890      4458
45.900      3912
45.910      4105
45.920      3812
45.930      3559
45.940      3645
45.950      3752
45.960      3325
45.970      3492
45.980      2965
45.990      3025
46.000      2699
46.010      2606
46.020      2599
46.030      2306
46.040      2279
46.050      2306
46.060      1899
46.070      1906
46.080      1793
46.090      1613
46.100      1726
46.110      1526
46.120      1326
46.130      1173
46.140      1319
46.150      1106
46.160      1100
46.170      1180
46.180      1006
46.190      1013
46.200       960
46.210       760
46.220       880
46.230       746
46.240       833
46.250       786
46.260       720
46.270       660
46.280       666
46.290       800
46.300       813
46.310       913
46.320       993
46.330       966
46.340       966
46.350       966
46.360       980
46.370       860
46.380      1006
46.390      1186
46.400      1126
46.410      1140
46.420      1026
46.430       973
46.440      1220
46.450       986
46.460      1040
46.470      1133
46.480      1200
46.490      1166
46.500      1053
46.510      1020
46.520      1033
46.530       913
46.540       880
46.550      1080
46.560       966
46.570      1200
46.580      1066
46.590      1020
46.600      1113
46.610      1006
46.620      1060
46.630      1053
46.640      1053
46.650       933
46.660      1040
46.670      1066
46.680      1100
46.690      1140
46.700       960
46.710      1026
46.720      1020
46.730       993
46.740      1013
46.750      1113
46.760      1046
46.770      1146
46.780       880
46.790       953
46.800      1160
46.810      1053
46.820      1120
46.830       933
46.840       966
46.850      1006
46.860       966
46.870       966
46.880       866
46.890      1060
46.900      1120
46.910       933
46.920       946
46.930       973
46.940       833
46.950       980
46.960      1033
46.970      1126
46.980       973
46.990      1040
47.000      1000
47.010      1073
47.020      1120
47.030      1000
47.040       940
47.050       966
47.060      1006
47.070       946
47.080      1080
47.090      1040
47.100      1066
47.110      1146
47.120      1026
47.130      1240
47.140       993
47.150       866
47.160       960
47.170      1193
47.180      1020
47.190      1026
47.200      1040
47.210      1140
47.220      1026
47.230      1273
47.240      1226
47.250      1046
47.260      1040
47.270       993
47.280      1106
47.290      1073
47.300      1066
47.310       993
47.320      1306
47.330      1093
47.340      1220
47.350      1146
47.360      1013
47.370      1393
47.380      1259
47.390      1106
47.400      1166
47.410      1406
47.420      1200
47.430      1166
47.440      1293
47.450      1273
47.460      1346
47.470      1246
47.480      1279
47.490      1306
47.500      1366
47.510      1453
47.520      1566
47.530      1546
47.540      1226
47.550      1406
47.560      1419
47.570      1333
47.580      1433
47.590      1419
47.600      1519
47.610      1626
47.620      1819
47.630      1713
47.640      1819
47.650      1813
47.660      1893
47.670      1899
47.680      2106
47.690      2312
47.700      2332
47.710      2492
47.720      2466
47.730      2912
47.740      3239
47.750      3479
47.760      3812
47.770      4312
47.780      5151
47.790      5424
47.800      6397
47.810      6597
47.820      7330
47.830      8183
47.840      9090
47.850      9603
47.860     10356
47.870     11689
47.880     12921
47.890     14607
47.900     16973
47.910     19959
47.920     22538
47.930     28175
47.940     33900
47.950     41730
47.960     53052
47.970     66134
47.980     84833
47.990    112055
48.000    145608
48.010    180914
48.020    209916
48.030    228062
48.040    239897
48.050    244102
48.060    240750
48.070    229175
48.080    209956
48.090    182607
48.100    156337
48.110    136652
48.120    128862
48.130    134453
48.140    143663
48.150    155198
48.160    161695
48.170    165547
48.180    164601
48.190    158450
48.200    143229
48.210    122898
48.220     99760
48.230     78855
48.240     59216
48.250     46108
48.260     35906
48.270     28875
48.280     24144
48.290     20385
48.300     18406
48.310     15347
48.320     13548
48.330     11355
48.340      9550
48.350      8350
48.360      7257
48.370      5758
48.380      5071
48.390      4651
48.400      4285
48.410      3699
48.420      3459
48.430      3299
48.440      3259
48.450      2919
48.460      2766
48.470      2552
48.480      2272
48.490      2192
48.500      2179
48.510      2079
48.520      1966
48.530      2332
48.540      2026
48.550      2079
48.560      2006
48.570      1833
48.580      1699
48.590      1759
48.600      1673
48.610      1546
48.620      1459
48.630      1479
48.640      1499
48.650      1459
48.660      1459
48.670      1333
48.680      1473
48.690      1493
48.700      1366
48.710      1366
48.720      1246
48.730      1393
48.740      1313
48.750      1306
48.760      1173
48.770      1193
48.780      1160
48.790      1206
48.800      1073
48.810      1366
48.820      1193
48.830      1173
48.840      1146
48.850       980
48.860      1093
48.870       986
48.880      1126
48.890      1073
48.900       993
48.910      1073
48.920      1040
48.930      1120
48.940      1086
48.950      1113
48.960       980
48.970       973
48.980      1073
48.990       980
49.000       793
49.010       933
49.020      1033
49.030       920
49.040       840
49.050       886
49.060       880
49.070      1000
49.080       913
49.090       806
49.100       880
49.110       906
49.120       800
49.130       946
49.140       860
49.150       893
49.160       800
49.170       740
49.180       886
49.190       773
49.200       733
49.210       793
49.220       926
49.230       740
49.240       913
49.250       893
49.260       840
49.270       913
49.280       793
49.290       786
49.300       733
49.310       680
49.320       846
49.330       853
49.340       680
49.350       773
49.360       786
49.370       673
49.380       713
49.390       706
49.400       833
49.410       726
49.420       733
49.430       740
49.440       626
49.450       626
49.460       660
49.470       713
49.480       693
49.490       700
49.500       746
49.510       620
49.520       733
49.530       766
49.540       753
49.550       713
49.560       640
49.570       633
49.580       800
49.590       680
49.600       593
49.610       620
49.620       700
49.630       606
49.640       680
49.650       686
49.660       680
49.670       713
49.680       693
49.690       693
49.700       613
49.710       686
49.720       580
49.730       653
49.740       660
49.750       733
49.760       613
49.770       766
49.780       720
49.790       613
49.800       733
49.810       626
49.820       520
49.830       760
49.840       533
49.850       733
49.860       600
49.870       560
49.880       673
49.890       673
49.900       620
49.910       673
49.920       680
49.930       646
49.940       680
49.950       686
49.960       560
49.970       720
49.980       686
49.990       593
50.000       600
50.010       673
50.020       626
50.030       693
50.040       606
50.050       706
50.060       640
50.070       640
50.080       566
50.090       680
50.100       573
50.110       586
50.120       553
50.130       506
50.140       633
50.150       520
50.160       593
50.170       626
50.180       673
50.190       680
50.200       666
50.210       466
50.220       633
50.230       553
50.240       606
50.250       520
50.260       460
50.270       673
50.280       526
50.290       513
50.300       653
50.310       526
50.320       666
50.330       533
50.340       686
50.350       586
50.360       666
50.370       466
50.380       573
50.390       626
50.400       446
50.410       553
50.420       546
50.430       540
50.440       520
50.450       660
50.460       486
50.470       606
50.480       540
50.490       480
50.500       553
50.510       546
50.520       580
50.530       433
50.540       513
50.550       526
50.560       433
50.570       646
50.580       580
50.590       440
50.600       480
50.610       600
50.620       473
50.630       546
50.640       560
50.650       453
50.660       526
50.670       453
50.680       440
50.690       533
50.700       440
50.710       466
50.720       506
50.730       546
50.740       520
50.750       540
50.760       493
50.770       473
50.780       453
50.790       593
50.800       540
50.810       573
50.820       453
50.830       653
50.840       540
50.850       473
50.860       473
50.870       680
50.880       586
50.890       560
50.900       566
50.910       440
50.920       520
50.930       526
50.940       453
50.950       540
50.960       560
50.970       513
50.980       433
50.990       506
51.000       413
51.010       580
51.020       500
51.030       560
51.040       473
51.050       486
51.060       440
51.070       387
51.080       506
51.090       440
51.100       413
51.110       573
51.120       513
51.130       500
51.140       500
51.150       533
51.160       473
51.170       460
51.180       413
51.190       540
51.200       440
51.210       533
51.220       367
51.230       413
51.240       533
51.250       446
51.260       387
51.270       453
51.280       466
51.290       540
51.300       407
51.310       433
51.320       473
51.330       480
51.340       593
51.350       426
51.360       600
51.370       506
51.380       453
51.390       440
51.400       347
51.410       440
51.420       460
51.430       486
51.440       606
51.450       480
51.460       440
51.470       500
51.480       506
51.490       400
51.500       540
51.510       446
51.520       440
51.530       446
51.540       413
51.550       373
51.560       453
51.570       473
51.580       367
51.590       586
51.600       400
51.610       420
51.620       493
51.630       446
51.640       407
51.650       446
51.660       526
51.670       480
51.680       387
51.690       420
51.700       440
51.710       486
51.720       466
51.730       400
51.740       560
51.750       413
51.760       440
51.770       340
51.780       387
51.790       380
51.800       387
51.810       387
51.820       360
51.830       440
51.840       393
51.850       440
51.860       486
51.870       440
51.880       526
51.890       453
51.900       413
51.910       407
51.920       460
51.930       413
51.940       393
51.950       353
51.960       513
51.970       453
51.980       367
51.990       360
52.000       426
52.010       307
52.020       480
52.030       347
52.040       420
52.050       453
52.060       546
52.070       387
52.080       426
52.090       347
52.100       433
52.110       453
52.120       367
52.130       446
52.140       453
52.150       413
52.160       400
52.170       473
52.180       420
52.190       426
52.200       347
52.210       426
52.220       413
52.230       380
52.240       393
52.250       300
52.260       440
52.270       407
52.280       313
52.290       400
52.300       367
52.310       333
52.320       400
52.330       466
52.340       387
52.350       367
52.360       333
52.370       420
52.380       400
52.390       426
52.400       387
52.410       413
52.420       407
52.430       300
52.440       287
52.450       327
52.460       407
52.470       393
52.480       307
52.490       313
52.500       307
52.510       287
52.520       466
52.530       247
52.540       420
52.550       400
52.560       426
52.570       440
52.580       433
52.590       347
52.600       400
52.610       513
52.620       420
52.630       353
52.640       387
52.650       320
52.660       367
52.670       300
52.680       353
52.690       380
52.700       293
52.710       267
52.720       320
52.730       426
52.740       373
52.750       420
52.760       413
52.770       287
52.780       373
52.790       300
52.800       340
52.810       340
52.820       340
52.830       347
52.840       393
52.850       373
52.860       260
52.870       307
52.880       267
52.890       280
52.900       287
52.910       360
52.920       333
52.930       320
52.940       340
52.950       393
52.960       320
52.970       340
52.980       327
52.990       280
53.000       307
53.010       340
53.020       393
53.030       353
53.040       300
53.050       380
53.060       333
53.070       280
53.080       313
53.090       287
53.100       400
53.110       393
53.120       280
53.130       466
53.140       347
53.150       387
53.160       380
53.170       373
53.180       367
53.190       360
53.200       333
53.210       320
53.220       380
53.230       340
53.240       340
53.250       327
53.260       367
53.270       353
53.280       440
53.290       413
53.300       400
53.310       320
53.320       360
53.330       280
53.340       353
53.350       340
53.360       420
53.370       367
53.380       300
53.390       307
53.400       307
53.410       360
53.420       327
53.430       260
53.440       400
53.450       260
53.460       413
53.470       247
53.480       453
53.490       353
53.500       373
53.510       313
53.520       273
53.530       307
53.540       300
53.550       307
53.560       273
53.570       380
53.580       393
53.590       307
53.600       273
53.610       300
53.620       367
53.630       333
53.640       280
53.650       280
53.660       333
53.670       220
53.680       347
53.690       233
53.700       307
53.710       300
53.720       393
53.730       287
53.740       367
53.750       327
53.760       360
53.770       347
53.780       280
53.790       340
53.800       307
53.810       353
53.820       320
53.830       320
53.840       320
53.850       320
53.860       340
53.870       393
53.880       287
53.890       300
53.900       287
53.910       307
53.920       260
53.930       240
53.940       280
53.950       313
53.960       327
53.970       240
53.980       247
53.990       273
54.000       253
54.010       287
54.020       353
54.030       300
54.040       227
54.050       320
54.060       313
54.070       273
54.080       260
54.090       313
54.100       253
54.110       253
54.120       233
54.130       213
54.140       387
54.150       240
54.160       280
54.170       233
54.180       280
54.190       227
54.200       347
54.210       340
54.220       213
54.230       320
54.240       267
54.250       247
54.260       293
54.270       267
54.280       260
54.290       307
54.300       280
54.310       347
54.320       307
54.330       300
54.340       260
54.350       273
54.360       273
54.370       267
54.380       287
54.390       327
54.400       327
54.410       327
54.420       253
54.430       187
54.440       260
54.450       273
54.460       247
54.470       287
54.480       227
54.490       253
54.500       313
54.510       287
54.520       273
54.530       253
54.540       307
54.550       360
54.560       287
54.570       280
54.580       280
54.590       333
54.600       333
54.610       407
54.620       273
54.630       247
54.640       227
54.650       293
54.660       293
54.670       220
54.680       380
54.690       247
54.700       287
54.710       320
54.720       320
54.730       300
54.740       207
54.750       207
54.760       287
54.770       320
54.780       253
54.790       320
54.800       313
54.810       240
54.820       193
54.830       247
54.840       273
54.850       280
54.860       287
54.870       347
54.880       353
54.890       267
54.900       300
54.910       287
54.920       280
54.930       293
54.940       287
54.950       307
54.960       193
54.970       233
54.980       213
54.990       267
55.000       233
55.010       333
55.020       387
55.030       313
55.040       373
55.050       273
55.060       227
55.070       327
55.080       200
55.090       260
55.100       220
55.110       300
55.120       300
55.130       227
55.140       247
55.150       247
55.160       253
55.170       300
55.180       273
55.190       300
55.200       173
55.210       260
55.220       207
55.230       280
55.240       287
55.250       267
55.260       253
55.270       247
55.280       273
55.290       347
55.300       253
55.310       247
55.320       213
55.330       307
55.340       280
55.350       247
55.360       280
55.370       293
55.380       360
55.390       300
55.400       293
55.410       213
55.420       247
55.430       180
55.440       327
55.450       267
55.460       267
55.470       253
55.480       193
55.490       253
55.500       267
55.510       227
55.520       233
55.530       253
55.540       260
55.550       260
55.560       240
55.570       293
55.580       253
55.590       260
55.600       253
55.610       240
55.620       247
55.630       220
55.640       253
55.650       260
55.660       273
55.670       240
55.680       240
55.690       227
55.700       240
55.710       293
55.720       240
55.730       213
55.740       207
55.750       280
55.760       227
55.770       220
55.780       293
55.790       313
55.800       247
55.810       273
55.820       287
55.830       273
55.840       120
55.850       200
55.860       293
55.870       287
55.880       227
55.890       213
55.900       220
55.910       233
55.920       260
55.930       200
55.940       227
55.950       313
55.960       233
55.970       180
55.980       240
55.990       180
56.000       187
56.010       340
56.020       240
56.030       227
56.040       247
56.050       213
56.060       180
56.070       280
56.080       247
56.090       160
56.100       173
56.110       187
56.120       220
56.130       207
56.140       260
56.150       253
56.160       167
56.170       267
56.180       240
56.190       233
56.200       233
56.210       240
56.220       273
56.230       213
56.240       213
56.250       287
56.260       287
56.270       180
56.280       233
56.290       280
56.300       267
56.310       227
56.320       193
56.330       253
56.340       193
56.350       220
56.360       207
56.370       227
56.380       200
56.390       293
56.400       193
56.410       280
56.420       207
56.430       260
56.440       240
56.450       273
56.460       233
56.470       227
56.480       267
56.490       253
56.500       227
56.510       273
56.520       220
56.530       280
56.540       300
56.550       253
56.560       193
56.570       180
56.580       287
56.590       240
56.600       220
56.610       247
56.620       247
56.630       227
56.640       173
56.650       260
56.660       233
56.670       233
56.680       267
56.690       233
56.700       227
56.710       340
56.720       160
56.730       287
56.740       240
56.750       207
56.760       273
56.770       247
56.780       187
56.790       247
56.800       220
56.810       140
56.820       207
56.830       207
56.840       247
56.850       280
56.860       247
56.870       253
56.880       187
56.890       167
56.900       260
56.910       220
56.920       233
56.930       200
56.940       207
56.950       253
56.960       207
56.970       233
56.980       233
56.990       240
57.000       280
57.010       307
57.020       220
57.030       187
57.040       207
57.050       120
57.060       213
57.070       220
57.080       193
57.090       220
57.100       187
57.110       220
57.120       220
57.130       260
57.140       220
57.150       313
57.160       240
57.170       213
57.180       247
57.190       213
57.200       200
57.210       167
57.220       220
57.230       213
57.240       187
57.250       253
57.260       253
57.270       173
57.280       260
57.290       200
57.300       207
57.310       207
57.320       280
57.330       233
57.340       233
57.350       307
57.360       180
57.370       140
57.380       200
57.390       300
57.400       227
57.410       320
57.420       233
57.430       280
57.440       253
57.450       260
57.460       247
57.470       240
57.480       273
57.490       240
57.500       240
57.510       207
57.520       233
57.530       247
57.540       193
57.550       173
57.560       160
57.570       200
57.580       180
57.590       253
57.600       247
57.610       253
57.620       207
57.630       207
57.640       213
57.650       260
57.660       233
57.670       213
57.680       200
57.690       313
57.700       187
57.710       113
57.720       287
57.730       193
57.740       160
57.750       173
57.760       187
57.770       167
57.780       153
57.790       220
57.800       133
57.810       220
57.820       180
57.830       160
57.840       153
57.850       140
57.860       240
57.870       220
57.880       200
57.890       253
57.900       140
57.910       167
57.920       233
57.930       127
57.940       240
57.950       187
57.960       140
57.970       207
57.980       247
57.990       193
58.000       187
58.010       160
58.020       240
58.030       253
58.040       140
58.050       173
58.060       193
58.070       147
58.080       127
58.090       160
58.100       167
58.110       240
58.120       260
58.130       167
58.140       173
58.150       153
58.160       153
58.170       120
58.180       173
58.190       187
58.200       180
58.210       267
58.220       140
58.230       140
58.240       153
58.250       153
58.260       173
58.270       173
58.280       167
58.290       180
58.300       180
58.310       147
58.320       140
58.330       247
58.340       220
58.350       160
58.360       187
58.370       180
58.380       180
58.390       187
58.400       120
58.410       167
58.420       200
58.430       160
58.440       147
58.450       227
58.460       127
58.470       213
58.480       247
58.490       133
58.500       213
58.510       187
58.520       153
58.530       167
58.540       173
58.550       140
58.560       180
58.570       193
58.580       120
58.590       233
58.600       147
58.610       160
58.620       187
58.630       187
58.640       180
58.650       173
58.660       260
58.670       113
58.680       200
58.690       173
58.700       207
58.710       167
58.720       173
58.730       220
58.740       193
58.750       100
58.760       160
58.770       193
58.780       187
58.790       167
58.800       187
58.810       193
58.820       160
58.830       213
58.840       140
58.850       100
58.860       113
58.870       113
58.880       167
58.890       147
58.900       140
58.910       127
58.920       160
58.930       173
58.940       113
58.950       147
58.960       153
58.970       180
58.980       140
58.990       200
59.000       153
59.010       120
59.020       147
59.030       187
59.040       133
59.050       127
59.060       120
59.070       173
59.080       147
59.090       180
59.100       200
59.110       113
59.120       147
59.130       133
59.140       140
59.150       167
59.160       173
59.170       213
59.180       153
59.190       140
59.200       167
59.210       180
59.220       180
59.230       127
59.240       207
59.250       167
59.260       167
59.270       160
59.280        93
59.290       120
59.300        93
59.310       100
59.320        93
59.330       193
59.340       180
59.350       220
59.360       133
59.370       213
59.380       127
59.390       180
59.400       200
59.410       187
59.420       173
59.430       173
59.440        93
59.450        87
59.460       160
59.470       173
59.480        73
59.490       207
59.500       133
59.510       133
59.520       140
59.530       147
59.540       133
59.550       133
59.560       147
59.570       140
59.580       107
59.590       200
59.600       107
59.610       133
59.620       147
59.630       173
59.640       147
59.650       127
59.660       113
59.670       100
59.680       120
59.690       133
59.700       127
59.710       147
59.720       133
59.730       187
59.740        53
59.750       127
59.760       160
59.770       147
59.780       100
59.790       127
59.800       140
59.810       167
59.820       173
59.830       133
59.840       127
59.850       193
59.860       120
59.870       100
59.880        80
59.890       147
59.900       140
59.910       133
59.920       140
59.930       147
59.940       147
59.950       167
59.960       147
59.970       147
59.980       113
59.990       167
60.000       140
