20.000        47
20.010        47
20.020        67
20.030        40
20.040        33
20.050        73
20.060        40
20.070        40
20.080        47
20.090        53
20.100        60
20.110        60
20.120        73
20.130        73
20.140        73
20.150        47
20.160        73
20.170        47
20.180        60
20.190        60
20.200        47
20.210        47
20.220        53
20.230        27
20.240        47
20.250        47
20.260        73
20.270        87
20.280        80
20.290        53
20.300        73
20.310        73
20.320        40
20.330        27
20.340        47
20.350        40
20.360        67
20.370        87
20.380        80
20.390        60
20.400        67
20.410        47
20.420        47
20.430        40
20.440        53
20.450        73
20.460       107
20.470        73
20.480        53
20.490        53
20.500        60
20.510        67
20.520        40
20.530        87
20.540        53
20.550        67
20.560        87
20.570        33
20.580        67
20.590       100
20.600        47
20.610        67
20.620       113
20.630        33
20.640        67
20.650        87
20.660        73
20.670        60
20.680        60
20.690        73
20.700        60
20.710        40
20.720        53
20.730        87
20.740        67
20.750       113
20.760        73
20.770        47
20.780        60
20.790        33
20.800        80
20.810        53
20.820        67
20.830        73
20.840        47
20.850        53
20.860        53
20.870        60
20.880        60
20.890        67
20.900        67
20.910        73
20.920       113
20.930        60
20.940       113
20.950        67
20.960       113
20.970        80
20.980        80
20.990        93
21.000        60
21.010       147
21.020        93
21.030        73
21.040        80
21.050       127
21.060        80
21.070        53
21.080        80
21.090       113
21.100        80
21.110        93
21.120        33
21.130        53
21.140        87
21.150        40
21.160       127
21.170       140
21.180       100
21.190        93
21.200       113
21.210       140
21.220       100
21.230        67
21.240       127
21.250        60
21.260       120
21.270       160
21.280       120
21.290        73
21.300        80
21.310        87
21.320        67
21.330       120
21.340       127
21.350        73
21.360        87
21.370        53
21.380        67
21.390       107
21.400       127
21.410       140
21.420       113
21.430       127
21.440       147
21.450       127
21.460       140
21.470       113
21.480        93
21.490        73
21.500       120
21.510       100
21.520       120
21.530       140
21.540        93
21.550       100
21.560        73
21.570       127
21.580        80
21.590       120
21.600        93
21.610       127
21.620        80
21.630       120
21.640        80
21.650       120
21.660        67
21.670       120
21.680       160
21.690       173
21.700       140
21.710       140
21.720       120
21.730       120
21.740       107
21.750       133
21.760        80
21.770       133
21.780       173
21.790       180
21.800       107
21.810       127
21.820       107
21.830       127
21.840       140
21.850       167
21.860       153
21.870       200
21.880       120
21.890       167
21.900       140
21.910       127
21.920       133
21.930       160
21.940       193
21.950       113
21.960       140
21.970       107
21.980        87
21.990       133
22.000       113
22.010       153
22.020       127
22.030       113
22.040       147
22.050        73
22.060       120
22.070       147
22.080       160
22.090       193
22.100       173
22.110       167
22.120       160
22.130       113
22.140       140
22.150       140
22.160       187
22.170       107
22.180       127
22.190       113
22.200       173
22.210        67
22.220       247
22.230       100
22.240       153
22.250       140
22.260       107
22.270       133
22.280       147
22.290       147
22.300        87
22.310       173
22.320       100
22.330       153
22.340       153
22.350       180
22.360       187
22.370       167
22.380       167
22.390       180
22.400       133
22.410       113
22.420       147
22.430       200
22.440       207
22.450       153
22.460       127
22.470       153
22.480       187
22.490       153
22.500       140
22.510       140
22.520       167
22.530       200
22.540       167
22.550       200
22.560       173
22.570       147
22.580       173
22.590       220
22.600       220
22.610       180
22.620       233
22.630       220
22.640       207
22.650       113
22.660       153
22.670       193
22.680       207
22.690       207
22.700       227
22.710       207
22.720       200
22.730       220
22.740       167
22.750       187
22.760       180
22.770       160
22.780       200
22.790       153
22.800       247
22.810       220
22.820       240
22.830       247
22.840       233
22.850       193
22.860       247
22.870       187
22.880       280
22.890       200
22.900       200
22.910       347
22.920       227
22.930       260
22.940       280
22.950       193
22.960       240
22.970       247
22.980       247
22.990       247
23.000       200
23.010       220
23.020       167
23.030       273
23.040       273
23.050       207
23.060       333
23.070       473
23.080       626
23.090       840
23.100      1133
23.110      1279
23.120      1200
23.130       840
23.140       873
23.150       733
23.160       453
23.170       480
23.180       426
23.190       247
23.200       300
23.210       320
23.220       280
23.230       200
23.240       260
23.250       327
23.260       273
23.270       273
23.280       233
23.290       260
23.300       267
23.310       293
23.320       287
23.330       207
23.340       287
23.350       253
23.360       267
23.370       280
23.380       267
23.390       167
23.400       320
23.410       260
23.420       227
23.430       247
23.440       313
23.450       200
23.460       260
23.470       320
23.480       180
23.490       220
23.500       253
23.510       220
23.520       187
23.530       287
23.540       260
23.550       227
23.560       207
23.570       193
23.580       187
23.590       293
23.600       307
23.610       227
23.620       193
23.630       253
23.640       200
23.650       227
23.660       293
23.670       213
23.680       233
23.690       247
23.700       160
23.710       213
23.720       273
23.730       313
23.740       247
23.750       287
23.760       200
23.770       253
23.780       267
23.790       233
23.800       287
23.810       340
23.820       247
23.830       220
23.840       253
23.850       300
23.860       320
23.870       233
23.880       327
23.890       267
23.900       273
23.910       233
23.920       267
23.930       327
23.940       307
23.950       213
23.960       240
23.970       260
23.980       147
23.990       240
24.000       220
24.010       213
24.020       313
24.030       320
24.040       213
24.050       213
24.060       313
24.070       227
24.080       260
24.090       233
24.100       240
24.110       287
24.120       247
24.130       240
24.140       233
24.150       293
24.160       247
24.170       200
24.180       220
24.190       287
24.200       273
24.210       300
24.220       173
24.230       233
24.240       187
24.250       227
24.260       260
24.270       253
24.280       267
24.290       273
24.300       300
24.310       300
24.320       260
24.330       273
24.340       233
24.350       260
24.360       280
24.370       273
24.380       340
24.390       267
24.400       300
24.410       247
24.420       293
24.430       280
24.440       307
24.450       260
24.460       327
24.470       227
24.480       207
24.490       200
24.500       247
24.510       253
24.520       213
24.530       287
24.540       247
24.550       213
24.560       273
24.570       247
24.580       273
24.590       260
24.600       180
24.610       247
24.620       273
24.630       240
24.640       280
24.650       300
24.660       247
24.670       247
24.680       280
24.690       320
24.700       360
24.710       360
24.720       426
24.730       486
24.740       500
24.750       553
24.760       633
24.770       660
24.780       660
24.790       673
24.800       806
24.810       746
24.820       726
24.830       766
24.840       673
24.850       746
24.860       766
24.870       606
24.880       620
24.890       720
24.900       753
24.910       693
24.920       766
24.930       773
24.940       840
24.950       693
24.960       660
24.970       733
24.980       740
24.990       713
25.000       646
25.010       753
25.020       860
25.030       813
25.040       726
25.050       746
25.060       773
25.070       753
25.080       886
25.090       700
25.100       880
25.110       840
25.120       900
25.130       693
25.140       853
25.150       800
25.160       760
25.170       740
25.180       760
25.190       806
25.200       740
25.210       960
25.220       913
25.230       753
25.240       766
25.250       826
25.260       920
25.270       906
25.280       740
25.290       760
25.300       880
25.310      1000
25.320       873
25.330       933
25.340       973
25.350      1060
25.360      1133
25.370      1106
25.380      1060
25.390       973
25.400      1046
25.410      1093
25.420      1439
25.430      1499
25.440      1599
25.450      1613
25.460      2106
25.470      2492
25.480      2879
25.490      3512
25.500      4232
25.510      4858
25.520      5464
25.530      6004
25.540      7157
25.550      9190
25.560     13401
25.570     22411
25.580     44029
25.590     78395
25.600    120185
25.610    150020
25.620    164854
25.630    163894
25.640    159576
25.650    149354
25.660    136352
25.670    125523
25.680    114568
25.690    106417
25.700     98047
25.710     87405
25.720     70478
25.730     52266
25.740     34246
25.750     21225
25.760     14821
25.770     12848
25.780     10769
25.790     10043
25.800      8657
25.810      7857
25.820      6777
25.830      5764
25.840      4865
25.850      4252
25.860      3559
25.870      3019
25.880      2526
25.890      2212
25.900      1593
25.910      1446
25.920      1446
25.930      1313
25.940      1086
25.950      1146
25.960      1073
25.970      1253
25.980      1213
25.990      1060
26.000      1006
26.010      1046
26.020       886
26.030       900
26.040       840
26.050       866
26.060       940
26.070       733
26.080       866
26.090       880
26.100       900
26.110       853
26.120       813
26.130       833
26.140       786
26.150       840
26.160       806
26.170       673
26.180       713
26.190       800
26.200       760
26.210       773
26.220       860
26.230       706
26.240       740
26.250       693
26.260       720
26.270       753
26.280       786
26.290       686
26.300       720
26.310       660
26.320       680
26.330       613
26.340       600
26.350       733
26.360       686
26.370       613
26.380       560
26.390       586
26.400       706
26.410       680
26.420       793
26.430       593
26.440       620
26.450       513
26.460       600
26.470       640
26.480       546
26.490       520
26.500       653
26.510       613
26.520       460
26.530       640
26.540       453
26.550       580
26.560       673
26.570       513
26.580       540
26.590       573
26.600       620
26.610       640
26.620       593
26.630       653
26.640       706
26.650       580
26.660       546
26.670       580
26.680       586
26.690       546
26.700       626
26.710       493
26.720       513
26.730       620
26.740       553
26.750       633
26.760       520
26.770       540
26.780       506
26.790       560
26.800       580
26.810       513
26.820       540
26.830       493
26.840       546
26.850       566
26.860       566
26.870       600
26.880       533
26.890       553
26.900       526
26.910       460
26.920       566
26.930       486
26.940       586
26.950       513
26.960       466
26.970       473
26.980       480
26.990       520
27.000       573
27.010       526
27.020       460
27.030       480
27.040       373
27.050       387
27.060       500
27.070       480
27.080       480
27.090       486
27.100       446
27.110       486
27.120       426
27.130       506
27.140       373
27.150       466
27.160       426
27.170       473
27.180       460
27.190       486
27.200       473
27.210       520
27.220       466
27.230       446
27.240       426
27.250       393
27.260       413
27.270       560
27.280       473
27.290       460
27.300       546
27.310       440
27.320       513
27.330       513
27.340       500
27.350       426
27.360       493
27.370       453
27.380       393
27.390       573
27.400       407
27.410       446
27.420       420
27.430       453
27.440       446
27.450       486
27.460       440
27.470       407
27.480       440
27.490       513
27.500       466
27.510       426
27.520       353
27.530       307
27.540       580
27.550       513
27.560       333
27.570       426
27.580       453
27.590       347
27.600       453
27.610       433
27.620       480
27.630       380
27.640       473
27.650       373
27.660       453
27.670       506
27.680       460
27.690       387
27.700       466
27.710       340
27.720       413
27.730       466
27.740       413
27.750       446
27.760       407
27.770       420
27.780       453
27.790       287
27.800       426
27.810       426
27.820       393
27.830       340
27.840       367
27.850       367
27.860       393
27.870       360
27.880       400
27.890       407
27.900       433
27.910       367
27.920       480
27.930       387
27.940       353
27.950       320
27.960       460
27.970       293
27.980       473
27.990       453
28.000       513
28.010       453
28.020       373
28.030       387
28.040       533
28.050       440
28.060       540
28.070       426
28.080       387
28.090       420
28.100       400
28.110       373
28.120       320
28.130       407
28.140       460
28.150       393
28.160       407
28.170       340
28.180       407
28.190       373
28.200       420
28.210       400
28.220       333
28.230       380
28.240       400
28.250       486
28.260       433
28.270       460
28.280       373
28.290       413
28.300       313
28.310       426
28.320       380
28.330       540
28.340       360
28.350       433
28.360       373
28.370       506
28.380       433
28.390       393
28.400       380
28.410       280
28.420       367
28.430       347
28.440       440
28.450       327
28.460       347
28.470       367
28.480       327
28.490       327
28.500       313
28.510       340
28.520       347
28.530       327
28.540       320
28.550       360
28.560       313
28.570       300
28.580       400
28.590       400
28.600       373
28.610       453
28.620       260
28.630       426
28.640       420
28.650       347
28.660       387
28.670       313
28.680       300
28.690       293
28.700       367
28.710       546
28.720       480
28.730       333
28.740       260
28.750       313
28.760       387
28.770       280
28.780       340
28.790       373
28.800       347
28.810       407
28.820       453
28.830       380
28.840       327
28.850       347
28.860       347
28.870       353
28.880       393
28.890       387
28.900       480
28.910       253
28.920       393
28.930       340
28.940       466
28.950       327
28.960       300
28.970       320
28.980       300
28.990       320
29.000       307
29.010       307
29.020       340
29.030       300
29.040       400
29.050       360
29.060       300
29.070       340
29.080       373
29.090       440
29.100       340
29.110       367
29.120       320
29.130       347
29.140       287
29.150       333
29.160       273
29.170       307
29.180       400
29.190       360
29.200       320
29.210       293
29.220       327
29.230       360
29.240       333
29.250       313
29.260       280
29.270       280
29.280       327
29.290       340
29.300       413
29.310       400
29.320       307
29.330       340
29.340       327
29.350       313
29.360       347
29.370       340
29.380       446
29.390       493
29.400       373
29.410       327
29.420       267
29.430       426
29.440       333
29.450       353
29.460       387
29.470       300
29.480       367
29.490       353
29.500       347
29.510       327
29.520       313
29.530       287
29.540       260
29.550       333
29.560       353
29.570       287
29.580       407
29.590       293
29.600       260
29.610       267
29.620       353
29.630       293
29.640       287
29.650       320
29.660       293
29.670       307
29.680       227
29.690       253
29.700       267
29.710       313
29.720       287
29.730       233
29.740       287
29.750       240
29.760       327
29.770       340
29.780       247
29.790       327
29.800       307
29.810       307
29.820       320
29.830       313
29.840       320
29.850       333
29.860       260
29.870       313
29.880       273
29.890       327
29.900       360
29.910       293
29.920       227
29.930       313
29.940       320
29.950       353
29.960       253
29.970       320
29.980       193
29.990       340
30.000       300
30.010       353
30.020       307
30.030       313
30.040       287
30.050       333
30.060       373
30.070       247
30.080       267
30.090       267
30.100       293
30.110       280
30.120       293
30.130       300
30.140       287
30.150       333
30.160       227
30.170       260
30.180       200
30.190       287
30.200       287
30.210       260
30.220       220
30.230       300
30.240       213
30.250       267
30.260       247
30.270       347
30.280       273
30.290       267
30.300       280
30.310       353
30.320       220
30.330       313
30.340       333
30.350       260
30.360       253
30.370       293
30.380       307
30.390       260
30.400       213
30.410       253
30.420       207
30.430       253
30.440       240
30.450       240
30.460       167
30.470       193
30.480       200
30.490       273
30.500       267
30.510       260
30.520       293
30.530       213
30.540       247
30.550       253
30.560       200
30.570       240
30.580       287
30.590       227
30.600       193
30.610       300
30.620       220
30.630       267
30.640       267
30.650       253
30.660       313
30.670       260
30.680       260
30.690       273
30.700       267
30.710       260
30.720       240
30.730       267
30.740       300
30.750       193
30.760       233
30.770       260
30.780       267
30.790       260
30.800       273
30.810       200
30.820       227
30.830       220
30.840       240
30.850       160
30.860       187
30.870       220
30.880       213
30.890       247
30.900       260
30.910       213
30.920       240
30.930       160
30.940       280
30.950       193
30.960       247
30.970       247
30.980       260
30.990       247
31.000       200
31.010       280
31.020       200
31.030       220
31.040       227
31.050       333
31.060       173
31.070       193
31.080       213
31.090       207
31.100       227
31.110       220
31.120       220
31.130       247
31.140       227
31.150       213
31.160       193
31.170       220
31.180       207
31.190       180
31.200       220
31.210       247
31.220       253
31.230       180
31.240       233
31.250       227
31.260       267
31.270       180
31.280       160
31.290       193
31.300       200
31.310       153
31.320       220
31.330       187
31.340       173
31.350       200
31.360       247
31.370       213
31.380       200
31.390       140
31.400       233
31.410       187
31.420       287
31.430       227
31.440       160
31.450       220
31.460       173
31.470       260
31.480       193
31.490       180
31.500       173
31.510       220
31.520       133
31.530       187
31.540       147
31.550       220
31.560       213
31.570       220
31.580       140
31.590       213
31.600       280
31.610       200
31.620       220
31.630       220
31.640       193
31.650       160
31.660       200
31.670       233
31.680       153
31.690       187
31.700       200
31.710       147
31.720       253
31.730       160
31.740       167
31.750       220
31.760       220
31.770       173
31.780       187
31.790       200
31.800       220
31.810       100
31.820       193
31.830       193
31.840       213
31.850       213
31.860       173
31.870       180
31.880       180
31.890       213
31.900       193
31.910       167
31.920       227
31.930       153
31.940       120
31.950       160
31.960       180
31.970       140
31.980       200
31.990       147
32.000       213
32.010       153
32.020       193
32.030       147
32.040       140
32.050       207
32.060       147
32.070       240
32.080       200
32.090       180
32.100       147
32.110        93
32.120       160
32.130       200
32.140       187
32.150       167
32.160       167
32.170       187
32.180       127
32.190       180
32.200       173
32.210       153
32.220       220
32.230       213
32.240       193
32.250       153
32.260       153
32.270       187
32.280       140
32.290       207
32.300       173
32.310       153
32.320       173
32.330       127
32.340       127
32.350       193
32.360       133
32.370       140
32.380       127
32.390       147
32.400       193
32.410       200
32.420       167
32.430       180
32.440       133
32.450       220
32.460       167
32.470       127
32.480       200
32.490       153
32.500       147
32.510       153
32.520       100
32.530       153
32.540       153
32.550       140
32.560       120
32.570       207
32.580       107
32.590       180
32.600       153
32.610       167
32.620       160
32.630       167
32.640       153
32.650       140
32.660       173
32.670       180
32.680       147
32.690       200
32.700       187
32.710       147
32.720       140
32.730       140
32.740       227
32.750       187
32.760       173
32.770       160
32.780       100
32.790       127
32.800       187
32.810       133
32.820       180
32.830       220
32.840       140
32.850       153
32.860       147
32.870       187
32.880       240
32.890       213
32.900       167
32.910       200
32.920       173
32.930       127
32.940       127
32.950       133
32.960       100
32.970       273
32.980       193
32.990       173
33.000       193
33.010       100
33.020       127
33.030       120
33.040       100
33.050       187
33.060       127
33.070       160
33.080       173
33.090        93
33.100       160
33.110       127
33.120       100
33.130       153
33.140       107
33.150       160
33.160       167
33.170       127
33.180       140
33.190       113
33.200       207
33.210       100
33.220       153
33.230       187
33.240       153
33.250       160
33.260       140
33.270       100
33.280       193
33.290       140
33.300       153
33.310       153
33.320       167
33.330       120
33.340       153
33.350       140
33.360       107
33.370       153
33.380       127
33.390       120
33.400       213
33.410       133
33.420       133
33.430       140
33.440       213
33.450       140
33.460       127
33.470       173
33.480       160
33.490       127
33.500       107
33.510       100
33.520       133
33.530       160
33.540        73
33.550       120
33.560       127
33.570        80
33.580       160
33.590       113
33.600       133
33.610       113
33.620       107
33.630       180
33.640       133
33.650       133
33.660       120
33.670       113
33.680        87
33.690       147
33.700       113
33.710       140
33.720       107
33.730       107
33.740       120
33.750       107
33.760        93
33.770       147
33.780       187
33.790       140
33.800       100
33.810       120
33.820        93
33.830       133
33.840       147
33.850        93
33.860        80
33.870       107
33.880       120
33.890       140
33.900       100
33.910       100
33.920       120
33.930       113
33.940       100
33.950       160
33.960       153
33.970       100
33.980       100
33.990        93
34.000       160
34.010       107
34.020       133
34.030       127
34.040       113
34.050       120
34.060       100
34.070        67
34.080       127
34.090       140
34.100       107
34.110        93
34.120        93
34.130       100
34.140       120
34.150       127
34.160       173
34.170       107
34.180        87
34.190       120
34.200       113
34.210       120
34.220        87
34.230       107
34.240       127
34.250       107
34.260        93
34.270        67
34.280       107
34.290        93
34.300       107
34.310       120
34.320       153
34.330        73
34.340       100
34.350       120
34.360       140
34.370       187
34.380       113
34.390       100
34.400       147
34.410       107
34.420       127
34.430       120
34.440       127
34.450       113
34.460       167
34.470       160
34.480       107
34.490       127
34.500        67
34.510       107
34.520        80
34.530       113
34.540       107
34.550       140
34.560       113
34.570        80
34.580       160
34.590       100
34.600       100
34.610       120
34.620        93
34.630       133
34.640        80
34.650        93
34.660        93
34.670       147
34.680       120
34.690        67
34.700        67
34.710       120
34.720        93
34.730       127
34.740       120
34.750       100
34.760        93
34.770        53
34.780        87
34.790       113
34.800        80
34.810       120
34.820       167
34.830       133
34.840       107
34.850       120
34.860       107
34.870       133
34.880        73
34.890       127
34.900       140
34.910        93
34.920        73
34.930        87
34.940        67
34.950        80
34.960        93
34.970       120
34.980       100
34.990       133
35.000       140
35.010        60
35.020        67
35.030       113
35.040        87
35.050        87
35.060       100
35.070        80
35.080       147
35.090        73
35.100       133
35.110       127
35.120       107
35.130       140
35.140       120
35.150        80
35.160       140
35.170        73
35.180       107
35.190        93
35.200        93
35.210       107
35.220       107
35.230       100
35.240        87
35.250       120
35.260       133
35.270       147
35.280       120
35.290        53
35.300        47
35.310        60
35.320       100
35.330       100
35.340        93
35.350        93
35.360        87
35.370       133
35.380        87
35.390        67
35.400        87
35.410       160
35.420       120
35.430       147
35.440        60
35.450        67
35.460        87
35.470        73
35.480        93
35.490       100
35.500       100
35.510        93
35.520       107
35.530       100
35.540       120
35.550       153
35.560        80
35.570        73
35.580        93
35.590        60
35.600       127
35.610       127
35.620        87
35.630       127
35.640        67
35.650        67
35.660        47
35.670       113
35.680        73
35.690        67
35.700        60
35.710        73
35.720       133
35.730       120
35.740        47
35.750        47
35.760       100
35.770       100
35.780        73
35.790       120
35.800       107
35.810        67
35.820        87
35.830        80
35.840        73
35.850        47
35.860        93
35.870       107
35.880       100
35.890        80
35.900        80
35.910       100
35.920        93
35.930       167
35.940       107
35.950        53
35.960        80
35.970       120
35.980       107
35.990        93
36.000       100
36.010       107
36.020        87
36.030        93
36.040       100
36.050       100
36.060       113
36.070        80
36.080        87
36.090        53
36.100        80
36.110       153
36.120        67
36.130        67
36.140        67
36.150        73
36.160        73
36.170        53
36.180        87
36.190       153
36.200        60
36.210        60
36.220        73
36.230        53
36.240        87
36.250        53
36.260        93
36.270       107
36.280       140
36.290        87
36.300        53
36.310       100
36.320        87
36.330        67
36.340        47
36.350        80
36.360       107
36.370       100
36.380       127
36.390        73
36.400       113
36.410        73
36.420       113
36.430       100
36.440        93
36.450        93
36.460        73
36.470        60
36.480        80
36.490        93
36.500        67
36.510        80
36.520       120
36.530        80
36.540        87
36.550       113
36.560        87
36.570        87
36.580       107
36.590       100
36.600        67
36.610        80
36.620        87
36.630       153
36.640        67
36.650        87
36.660       107
36.670        47
36.680        93
36.690        47
36.700        60
36.710       133
36.720        87
36.730       100
36.740        40
36.750        60
36.760       100
36.770        53
36.780        60
36.790        80
36.800        87
36.810        80
36.820       100
36.830        80
36.840        93
36.850        40
36.860        73
36.870        80
36.880        67
36.890        80
36.900        33
36.910       100
36.920        73
36.930        73
36.940        53
36.950        53
36.960        47
36.970        27
36.980        80
36.990        87
37.000        87
37.010        67
37.020        53
37.030        93
37.040        33
37.050        87
37.060        33
37.070        60
37.080        93
37.090        33
37.100        80
37.110       100
37.120       107
37.130        53
37.140        60
37.150        67
37.160        53
37.170        53
37.180        60
37.190       107
37.200        80
37.210        20
37.220        87
37.230        80
37.240        80
37.250        47
37.260        80
37.270        73
37.280        33
37.290        33
37.300        40
37.310        47
37.320        80
37.330        73
37.340       107
37.350        60
37.360        80
37.370        93
37.380        53
37.390        53
37.400        60
37.410        33
37.420        73
37.430        80
37.440        33
37.450        60
37.460        40
37.470        60
37.480        40
37.490        93
37.500        80
37.510        47
37.520        47
37.530        40
37.540        60
37.550        87
37.560        67
37.570        73
37.580        47
37.590        33
37.600        53
37.610        80
37.620        73
37.630        67
37.640        67
37.650        67
37.660       133
37.670        60
37.680        40
37.690        67
37.700        87
37.710        53
37.720        80
37.730        93
37.740        47
37.750        93
37.760        60
37.770        40
37.780        67
37.790        40
37.800        60
37.810        53
37.820        67
37.830        80
37.840        60
37.850        60
37.860        80
37.870        53
37.880        40
37.890        67
37.900        60
37.910        60
37.920        67
37.930        80
37.940        87
37.950        80
37.960        60
37.970        40
37.980        67
37.990        47
38.000        73
38.010        87
38.020        73
38.030        33
38.040        47
38.050        67
38.060        60
38.070        47
38.080        80
38.090        33
38.100        47
38.110        47
38.120        93
38.130        73
38.140        47
38.150        67
38.160        60
38.170        60
38.180        67
38.190        47
38.200        53
38.210        40
38.220        27
38.230        73
38.240        13
38.250        53
38.260        80
38.270        40
38.280        47
38.290        53
38.300        67
38.310        47
38.320        87
38.330        60
38.340        40
38.350        47
38.360        80
38.370        67
38.380        53
38.390        73
38.400        60
38.410        87
38.420        67
38.430        73
38.440        47
38.450        20
38.460        47
38.470        27
38.480        53
38.490        60
38.500        60
38.510        60
38.520        40
38.530        33
38.540        60
38.550        47
38.560        47
38.570        67
38.580        40
38.590        27
38.600        20
38.610        60
38.620        27
38.630        60
38.640        40
38.650        80
38.660        73
38.670        80
38.680        53
38.690       100
38.700        87
38.710        60
38.720        93
38.730        73
38.740        20
38.750        40
38.760        73
38.770        73
38.780        47
38.790        33
38.800        33
38.810        80
38.820        33
38.830        67
38.840        47
38.850        47
38.860        60
38.870        13
38.880        60
38.890        47
38.900        27
38.910        40
38.920        33
38.930        73
38.940        40
38.950        80
38.960        53
38.970        40
38.980        47
38.990        60
39.000        47
39.010        60
39.020        60
39.030        40
39.040        40
39.050        33
39.060        80
39.070        67
39.080        33
39.090        67
39.100        60
39.110        47
39.120        60
39.130        47
39.140        67
39.150        33
39.160        20
39.170        60
39.180        80
39.190        20
39.200        53
39.210        47
39.220        53
39.230        40
39.240        60
39.250        40
39.260        27
39.270        67
39.280        73
39.290        80
39.300        33
39.310        87
39.320        40
39.330        20
39.340        47
39.350        60
39.360        80
39.370        67
39.380        87
39.390        80
39.400       100
39.410        87
39.420        47
39.430        60
39.440        40
39.450        80
39.460        53
39.470        47
39.480        53
39.490        73
39.500        33
39.510        53
39.520        47
39.530        47
39.540        53
39.550        67
39.560        60
39.570        20
39.580        40
39.590        53
39.600        47
39.610        33
39.620        53
39.630        53
39.640        93
39.650        40
39.660        47
39.670        60
39.680        67
39.690        73
39.700        33
39.710        33
39.720        67
39.730        60
39.740        60
39.750        87
39.760        60
39.770        13
39.780        67
39.790        53
39.800        87
39.810        60
39.820        40
39.830        67
39.840        53
39.850        47
39.860        60
39.870        53
39.880        40
39.890        60
39.900        53
39.910        40
39.920        67
39.930        80
39.940        33
39.950        40
39.960        47
39.970        47
39.980        60
39.990        53
40.000        53
40.010        33
40.020        40
40.030        47
40.040        53
40.050        47
40.060        60
40.070        60
40.080        33
40.090        40
40.100        47
40.110        60
40.120        40
40.130        53
40.140        27
40.150        60
40.160        80
40.170        33
40.180        53
40.190        60
40.200        20
40.210        33
40.220        33
40.230        20
40.240        40
40.250        27
40.260        60
40.270        27
40.280        47
40.290        20
40.300        20
40.310        20
40.320        60
40.330        40
40.340        67
40.350        60
40.360        40
40.370        53
40.380        27
40.390        53
40.400        20
40.410        67
40.420        33
40.430        47
40.440        53
40.450         7
40.460        40
40.470        33
40.480        47
40.490        47
40.500        60
40.510        27
40.520        47
40.530        47
40.540        33
40.550        40
40.560        67
40.570        53
40.580        40
40.590        33
40.600        47
40.610        20
40.620        53
40.630        53
40.640        47
40.650        53
40.660        27
40.670        33
40.680        40
40.690        33
40.700        60
40.710         7
40.720        53
40.730        47
40.740        40
40.750        60
40.760        33
40.770        47
40.780        27
40.790        53
40.800        67
40.810        40
40.820        33
40.830        33
40.840        73
40.850       107
40.860        47
40.870        40
40.880        60
40.890        47
40.900        40
40.910        53
40.920        60
40.930        33
40.940        33
40.950        33
40.960        47
40.970        20
40.980        20
40.990        67
41.000        33
41.010        33
41.020        53
41.030        60
41.040        67
41.050        53
41.060        33
41.070        40
41.080        60
41.090        40
41.100        40
41.110        53
41.120        87
41.130        33
41.140        67
41.150        27
41.160        40
41.170        60
41.180        27
41.190        47
41.200        53
41.210        40
41.220        27
41.230        33
41.240        60
41.250        33
41.260        40
41.270        47
41.280        33
41.290        33
41.300        73
41.310        47
41.320        47
41.330        27
41.340        67
41.350        33
41.360        60
41.370        53
41.380        47
41.390        80
41.400        53
41.410         7
41.420        60
41.430        33
41.440        67
41.450        60
41.460        33
41.470        67
41.480        60
41.490        27
41.500        40
41.510        67
41.520        40
41.530        67
41.540        53
41.550        53
41.560        13
41.570        73
41.580         7
41.590         7
41.600        47
41.610        47
41.620        33
41.630        33
41.640        33
41.650        67
41.660        47
41.670        27
41.680        27
41.690        67
41.700         7
41.710        40
41.720        47
41.730        47
41.740        13
41.750        20
41.760        33
41.770        40
41.780        53
41.790        47
41.800        40
41.810        53
41.820        33
41.830        53
41.840        40
41.850        40
41.860        40
41.870        40
41.880        60
41.890        53
41.900        47
41.910        47
41.920        33
41.930        33
41.940        53
41.950        20
41.960        67
41.970        40
41.980        40
41.990        47
42.000        20
42.010        27
42.020        27
42.030        13
42.040        47
42.050        80
42.060        73
42.070        47
42.080        47
42.090        33
42.100        13
42.110        80
42.120        27
42.130        40
42.140        53
42.150        33
42.160        40
42.170        47
42.180        60
42.190        33
42.200        40
42.210        20
42.220        47
42.230        67
42.240        27
42.250        53
42.260        20
42.270        20
42.280        20
42.290         7
42.300        47
42.310        40
42.320        53
42.330         7
42.340        47
42.350        20
42.360        20
42.370        33
42.380        67
42.390        20
42.400        47
42.410        40
42.420        33
42.430        33
42.440        40
42.450        40
42.460        33
42.470        33
42.480        53
42.490        47
42.500        13
42.510        33
42.520        47
42.530        33
42.540        60
42.550        20
42.560        40
42.570        27
42.580        60
42.590        33
42.600        33
42.610         7
42.620        40
42.630        13
42.640        33
42.650        27
42.660        53
42.670        33
42.680        20
42.690        20
42.700        60
42.710        40
42.720        27
42.730        60
42.740        27
42.750        47
42.760        40
42.770        20
42.780        33
42.790        40
42.800        73
42.810        93
42.820        33
42.830        27
42.840        53
42.850        53
42.860        73
42.870        33
42.880        40
42.890        33
42.900        33
42.910        33
42.920        13
42.930        33
42.940        27
42.950        60
42.960        47
42.970        87
42.980         7
42.990        20
43.000        33
43.010        47
43.020        20
43.030        33
43.040        40
43.050        73
43.060        60
43.070        33
43.080        33
43.090        60
43.100        53
43.110        33
43.120        60
43.130        40
43.140        33
43.150        33
43.160       107
43.170        47
43.180        80
43.190        67
43.200        53
43.210        27
43.220        53
43.230        60
43.240        47
43.250        40
43.260       120
43.270        27
43.280        27
43.290        27
43.300        40
43.310        33
43.320        27
43.330        27
43.340        20
43.350        33
43.360        33
43.370        33
43.380        40
43.390        27
43.400         7
43.410        27
43.420        20
43.430        40
43.440        40
43.450        40
43.460        87
43.470        33
43.480        33
43.490        80
43.500        40
43.510        53
43.520        47
43.530        20
43.540        27
43.550        27
43.560        33
43.570        53
43.580        27
43.590        33
43.600        33
43.610        40
43.620        40
43.630        47
43.640        47
43.650        33
43.660       100
43.670         0
43.680        20
43.690        60
43.700        33
43.710        27
43.720        27
43.730        33
43.740        60
43.750         7
43.760        67
43.770        47
43.780        33
43.790         7
43.800        47
43.810        27
43.820        33
43.830        20
43.840        20
43.850        33
43.860        33
43.870        40
43.880        20
43.890        73
43.900        20
43.910        67
43.920        33
43.930        33
43.940        27
43.950       100
43.960        40
43.970        40
43.980        20
43.990        33
44.000        67
44.010        13
44.020        27
44.030        27
44.040        33
44.050        27
44.060        27
44.070        13
44.080        40
44.090        27
44.100        27
44.110        40
44.120        53
44.130        27
44.140        47
44.150        27
44.160        33
44.170        40
44.180        47
44.190         7
44.200        40
44.210        20
44.220        13
44.230        27
44.240        33
44.250        47
44.260        40
44.270        33
44.280        47
44.290        60
44.300        33
44.310        13
44.320        27
44.330        40
44.340        20
44.350         7
44.360        47
44.370        53
44.380        40
44.390        40
44.400        60
44.410        13
44.420        27
44.430         7
44.440        27
44.450        27
44.460        53
44.470        33
44.480         0
44.490        47
44.500        47
44.510        47
44.520        47
44.530        27
44.540        33
44.550        47
44.560        53
44.570         7
44.580        53
44.590        47
44.600        33
44.610        33
44.620        20
44.630        20
44.640        20
44.650        13
44.660        20
44.670        20
44.680        53
44.690        53
44.700        27
44.710        33
44.720        20
44.730        13
44.740        60
44.750        27
44.760        40
44.770        13
44.780        33
44.790        33
44.800        53
44.810        40
44.820        40
44.830        20
44.840        13
44.850        53
44.860        33
44.870        33
44.880        40
44.890        40
44.900        33
44.910        47
44.920        40
44.930        47
44.940        27
44.950        33
44.960        27
44.970        13
44.980        27
44.990        40
45.000        47
45.010        13
45.020        47
45.030        60
45.040        27
45.050        53
45.060        27
45.070        20
45.080        40
45.090        40
45.100        60
45.110        40
45.120        33
45.130        40
45.140        33
45.150        27
45.160        27
45.170        27
45.180        60
45.190        13
45.200        33
45.210        40
45.220        13
45.230        33
45.240        27
45.250        33
45.260        60
45.270        27
45.280        40
45.290        40
45.300        27
45.310        40
45.320        20
45.330        40
45.340        80
45.350        53
45.360        27
45.370        27
45.380        20
45.390        20
45.400        20
45.410        40
45.420        40
45.430        27
45.440        33
45.450        53
45.460        53
45.470        60
45.480        40
45.490         7
45.500        67
45.510        40
45.520        60
45.530        33
45.540        27
45.550         0
45.560        40
45.570        40
45.580        27
45.590        47
45.600        33
45.610        33
45.620        47
45.630        13
45.640        20
45.650        20
45.660        33
45.670        40
45.680        47
45.690         0
45.700        33
45.710        33
45.720        33
45.730        40
45.740        47
45.750        33
45.760        33
45.770        40
45.780        40
45.790        60
45.800        13
45.810        47
45.820        73
45.830        60
45.840        13
45.850        60
45.860        20
45.870        27
45.880        40
45.890         7
45.900         7
45.910        20
45.920        47
45.930        13
45.940        60
45.950        13
45.960        27
45.970        13
45.980        20
45.990        27
46.000        47
46.010        33
46.020        33
46.030        47
46.040        60
46.050        47
46.060        47
46.070        33
46.080        33
46.090        53
46.100        40
46.110        27
46.120        47
46.130        20
46.140        47
46.150        33
46.160        40
46.170        33
46.180        67
46.190        27
46.200        40
46.210        33
46.220        47
46.230         7
46.240        33
46.250        33
46.260        33
46.270        47
46.280        40
46.290        53
46.300        20
46.310        33
46.320        80
46.330        47
46.340        47
46.350        47
46.360        13
46.370        47
46.380        20
46.390        40
46.400        20
46.410        33
46.420        33
46.430        20
46.440        47
46.450        73
46.460        27
46.470        53
46.480        27
46.490        47
46.500        13
46.510        60
46.520        27
46.530        27
46.540        47
46.550        27
46.560        33
46.570        47
46.580        33
46.590        53
46.600        33
46.610        60
46.620        33
46.630         7
46.640        53
46.650        27
46.660        47
46.670        60
46.680        53
46.690        27
46.700        40
46.710        40
46.720        33
46.730        87
46.740        40
46.750        27
46.760        47
46.770        47
46.780        47
46.790        60
46.800        60
46.810        53
46.820        60
46.830        53
46.840        87
46.850       100
46.860        73
46.870       113
46.880        53
46.890        67
46.900        93
46.910        73
46.920        33
46.930        87
46.940       107
46.950        33
46.960        60
46.970        40
46.980        47
46.990        80
47.000        67
47.010        80
47.020        67
47.030        47
47.040        73
47.050        87
47.060       127
47.070       100
47.080        80
47.090       127
47.100       133
47.110       133
47.120       120
47.130       133
47.140       173
47.150       187
47.160       267
47.170       260
47.180       526
47.190       726
47.200       820
47.210       953
47.220       993
47.230      1213
47.240      1246
47.250      1086
47.260       900
47.270       706
47.280       533
47.290       353
47.300       260
47.310       160
47.320       187
47.330       187
47.340       280
47.350       173
47.360       120
47.370       153
47.380       133
47.390       153
47.400        73
47.410        87
47.420       100
47.430       100
47.440       127
47.450        67
47.460        87
47.470        47
47.480        67
47.490        80
47.500       147
47.510        73
47.520       127
47.530        80
47.540        80
47.550        87
47.560        80
47.570        53
47.580        93
47.590        60
47.600        47
47.610       113
47.620        27
47.630        73
47.640        80
47.650        67
47.660        60
47.670        33
47.680        53
47.690        47
47.700        80
47.710        93
47.720        73
47.730        47
47.740        40
47.750        67
47.760        60
47.770        27
47.780        73
47.790        47
47.800        20
47.810        27
47.820        33
47.830        27
47.840        47
47.850        53
47.860        33
47.870         7
47.880        53
47.890        33
47.900        47
47.910        60
47.920        27
47.930        33
47.940        47
47.950        33
47.960        40
47.970        53
47.980        53
47.990        60
48.000        20
48.010        27
48.020        87
48.030        33
48.040        47
48.050        60
48.060        27
48.070        33
48.080        27
48.090        33
48.100        47
48.110        47
48.120        53
48.130        60
48.140        47
48.150        53
48.160        40
48.170        20
48.180        67
48.190        47
48.200        60
48.210        33
48.220        60
48.230        40
48.240        60
48.250        47
48.260        53
48.270        47
48.280        67
48.290        53
48.300        87
48.310        87
48.320        67
48.330        80
48.340        47
48.350        73
48.360        40
48.370        60
48.380        67
48.390        53
48.400        47
48.410        93
48.420        40
48.430        67
48.440        60
48.450        33
48.460        60
48.470        53
48.480        40
48.490        67
48.500        27
48.510        87
48.520        60
48.530        73
48.540       113
48.550        80
48.560        40
48.570        47
48.580        40
48.590        80
48.600        60
48.610        47
48.620        73
48.630        47
48.640        93
48.650        33
48.660        33
48.670        67
48.680        33
48.690        60
48.700        20
48.710        53
48.720        47
48.730        60
48.740        20
48.750        60
48.760        27
48.770        20
48.780        13
48.790        27
48.800        40
48.810        53
48.820        40
48.830        60
48.840        20
48.850        73
48.860        47
48.870        73
48.880        27
48.890        20
48.900        53
48.910        27
48.920        33
48.930        60
48.940        53
48.950        40
48.960        53
48.970        47
48.980        53
48.990        53
49.000        27
49.010        13
49.020        27
49.030        27
49.040        53
49.050        53
49.060        33
49.070        20
49.080         7
49.090        40
49.100        27
49.110        60
49.120        40
49.130        47
49.140        60
49.150        47
49.160        13
49.170        27
49.180        47
49.190        53
49.200        53
49.210        27
49.220        40
49.230        33
49.240        33
49.250        40
49.260        33
49.270        47
49.280        47
49.290        67
49.300        20
49.310        40
49.320        13
49.330        33
49.340        47
49.350        47
49.360        33
49.370        40
49.380        13
49.390        13
49.400        60
49.410        53
49.420        40
49.430        27
49.440        40
49.450        20
49.460        13
49.470        33
49.480        40
49.490        20
49.500        53
49.510        33
49.520        33
49.530        53
49.540        40
49.550        47
49.560        47
49.570        20
49.580        27
49.590        27
49.600        40
49.610        40
49.620        53
49.630        20
49.640        47
49.650        53
49.660        27
49.670        40
49.680        33
49.690        33
49.700        80
49.710        27
49.720        47
49.730        47
49.740        20
49.750        20
49.760        27
49.770        27
49.780        40
49.790        13
49.800        20
49.810        27
49.820        40
49.830        20
49.840        13
49.850        13
49.860        40
49.870        60
49.880        27
49.890        33
49.900        73
49.910        27
49.920        33
49.930        60
49.940        53
49.950        27
49.960        40
49.970        60
49.980        47
49.990        33
50.000        33
50.010        33
50.020        20
50.030        20
50.040        33
50.050        40
50.060        47
50.070        47
50.080        33
50.090        40
50.100        33
50.110        53
50.120         0
50.130        40
50.140        60
50.150        27
50.160        67
50.170        27
50.180        47
50.190        33
50.200        47
50.210        53
50.220        27
50.230        80
50.240        33
50.250        20
50.260        47
50.270        27
50.280        33
50.290        40
50.300        60
50.310        33
50.320        47
50.330        53
50.340        20
50.350        27
50.360        40
50.370        33
50.380        27
50.390        40
50.400        47
50.410        40
50.420        27
50.430        60
50.440        47
50.450        13
50.460        67
50.470        13
50.480        40
50.490        40
50.500        47
50.510        27
50.520        20
50.530        27
50.540        13
50.550        20
50.560        87
50.570        33
50.580        40
50.590        40
50.600        40
50.610        40
50.620        67
50.630        47
50.640        67
50.650        40
50.660        73
50.670       100
50.680        67
50.690       107
50.700       160
50.710       267
50.720       240
50.730       307
50.740       287
50.750       233
50.760       213
50.770       340
50.780       320
50.790       387
50.800       380
50.810       287
50.820       307
50.830       273
50.840       367
50.850       287
50.860       300
50.870       260
50.880       273
50.890       247
50.900       247
50.910       353
50.920       267
50.930       300
50.940       340
50.950       307
50.960       327
50.970       227
50.980       327
50.990       300
51.000       260
51.010       247
51.020       300
51.030       260
51.040       293
51.050       293
51.060       333
51.070       287
51.080       287
51.090       307
51.100       260
51.110       340
51.120       313
51.130       320
51.140       313
51.150       233
51.160       313
51.170       260
51.180       273
51.190       247
51.200       313
51.210       227
51.220       400
51.230       307
51.240       407
51.250       320
51.260       393
51.270       280
51.280       340
51.290       347
51.300       293
51.310       287
51.320       400
51.330       367
51.340       307
51.350       320
51.360       307
51.370       347
51.380       347
51.390       307
51.400       367
51.410       307
51.420       280
51.430       407
51.440       347
51.450       347
51.460       400
51.470       353
51.480       440
51.490       380
51.500       300
51.510       347
51.520       267
51.530       340
51.540       320
51.550       353
51.560       393
51.570       253
51.580       373
51.590       293
51.600       320
51.610       233
51.620       273
51.630       380
51.640       333
51.650       340
51.660       460
51.670       440
51.680       367
51.690       400
51.700       453
51.710       387
51.720       373
51.730       353
51.740       353
51.750       327
51.760       440
51.770       387
51.780       347
51.790       387
51.800       393
51.810       260
51.820       440
51.830       433
51.840       400
51.850       393
51.860       453
51.870       473
51.880       320
51.890       413
51.900       353
51.910       400
51.920       253
51.930       407
51.940       446
51.950       380
51.960       453
51.970       433
51.980       380
51.990       413
52.000       513
52.010       393
52.020       526
52.030       373
52.040       453
52.050       480
52.060       480
52.070       573
52.080       453
52.090       593
52.100       493
52.110       493
52.120       500
52.130       540
52.140       646
52.150       513
52.160       653
52.170       766
52.180       613
52.190       533
52.200       613
52.210       606
52.220       800
52.230       793
52.240       880
52.250       780
52.260       860
52.270       860
52.280       906
52.290      1180
52.300      1093
52.310      1160
52.320      1513
52.330      1626
52.340      1839
52.350      2286
52.360      2432
52.370      2366
52.380      2592
52.390      2979
52.400      3099
52.410      2806
52.420      2965
52.430      3352
52.440      3359
52.450      4172
52.460      4452
52.470      5171
52.480      5731
52.490      6797
52.500      7397
52.510      8710
52.520     10349
52.530     11302
52.540     14514
52.550     17979
52.560     26569
52.570     41863
52.580     68359
52.590    100200
52.600    121965
52.610    136939
52.620    144635
52.630    146701
52.640    140777
52.650    122898
52.660     95409
52.670     65214
52.680     43569
52.690     32081
52.700     29568
52.710     34626
52.720     46621
52.730     59643
52.740     73817
52.750     81887
52.760     85619
52.770     83620
52.780     82007
52.790     67933
52.800     51799
52.810     35206
52.820     22751
52.830     15807
52.840     10542
52.850      8657
52.860      7197
52.870      6531
52.880      6204
52.890      5265
52.900      4798
52.910      4611
52.920      3965
52.930      3379
52.940      2832
52.950      2499
52.960      2099
52.970      1573
52.980      1473
52.990      1433
53.000      1113
53.010      1246
53.020      1140
53.030      1040
53.040      1060
53.050       966
53.060       886
53.070       940
53.080       813
53.090       760
53.100       840
53.110       660
53.120       726
53.130       766
53.140       640
53.150       646
53.160       600
53.170       553
53.180       640
53.190       653
53.200       620
53.210       513
53.220       606
53.230       700
53.240       686
53.250       580
53.260       553
53.270       613
53.280       473
53.290       673
53.300       560
53.310       473
53.320       560
53.330       613
53.340       480
53.350       460
53.360       393
53.370       433
53.380       600
53.390       493
53.400       380
53.410       433
53.420       480
53.430       426
53.440       486
53.450       387
53.460       293
53.470       253
53.480       493
53.490       433
53.500       426
53.510       460
53.520       300
53.530       360
53.540       407
53.550       407
53.560       387
53.570       373
53.580       413
53.590       300
53.600       360
53.610       340
53.620       400
53.630       333
53.640       360
53.650       293
53.660       400
53.670       387
53.680       420
53.690       440
53.700       307
53.710       300
53.720       367
53.730       327
53.740       327
53.750       273
53.760       347
53.770       260
53.780       340
53.790       300
53.800       280
53.810       293
53.820       307
53.830       300
53.840       333
53.850       180
53.860       293
53.870       293
53.880       320
53.890       320
53.900       227
53.910       313
53.920       360
53.930       307
53.940       260
53.950       260
53.960       293
53.970       320
53.980       273
53.990       267
54.000       273
54.010       287
54.020       340
54.030       267
54.040       260
54.050       273
54.060       267
54.070       253
54.080       273
54.090       260
54.100       260
54.110       273
54.120       313
54.130       267
54.140       293
54.150       213
54.160       267
54.170       227
54.180       253
54.190       220
54.200       213
54.210       253
54.220       287
54.230       227
54.240       313
54.250       340
54.260       307
54.270       273
54.280       300
54.290       260
54.300       213
54.310       220
54.320       260
54.330       227
54.340       267
54.350       200
54.360       387
54.370       253
54.380       227
54.390       240
54.400       253
54.410       173
54.420       187
54.430       273
54.440       240
54.450       253
54.460       287
54.470       313
54.480       280
54.490       247
54.500       287
54.510       260
54.520       193
54.530       240
54.540       220
54.550       220
54.560       253
54.570       233
54.580       240
54.590       227
54.600       287
54.610       300
54.620       173
54.630       220
54.640       207
54.650       227
54.660       273
54.670       227
54.680       233
54.690       240
54.700       200
54.710       293
54.720       213
54.730       233
54.740       267
54.750       173
54.760       300
54.770       333
54.780       207
54.790       193
54.800       267
54.810       227
54.820       213
54.830       220
54.840       287
54.850       187
54.860       140
54.870       233
54.880       227
54.890       233
54.900       247
54.910       233
54.920       220
54.930       247
54.940       213
54.950       127
54.960       253
54.970       247
54.980       220
54.990       213
55.000       193
55.010       253
55.020       207
55.030       213
55.040       187
55.050       193
55.060       233
55.070       280
55.080       227
55.090       200
55.100       213
55.110       267
55.120       193
55.130       227
55.140       253
55.150       207
55.160       213
55.170       233
55.180       200
55.190       167
55.200       167
55.210       207
55.220       227
55.230       187
55.240       280
55.250       193
55.260       207
55.270       247
55.280       260
55.290       153
55.300       220
55.310       173
55.320       173
55.330       173
55.340       253
55.350       180
55.360       113
55.370       160
55.380       213
55.390       220
55.400       253
55.410       247
55.420       167
55.430       220
55.440       167
55.450       160
55.460       193
55.470       160
55.480       193
55.490       147
55.500       227
55.510       253
55.520       233
55.530       240
55.540       260
55.550       260
55.560       273
55.570       240
55.580       220
55.590       147
55.600       147
55.610       193
55.620       193
55.630       220
55.640       213
55.650       273
55.660       193
55.670       213
55.680       180
55.690       253
55.700       180
55.710       227
55.720       153
55.730       227
55.740       233
55.750       280
55.760       167
55.770       173
55.780       173
55.790       180
55.800       173
55.810       167
55.820       140
55.830       213
55.840       213
55.850       187
55.860       207
55.870       220
55.880       187
55.890       140
55.900       153
55.910       187
55.920       200
55.930       200
55.940       187
55.950       180
55.960       140
55.970       147
55.980       213
55.990       213
56.000       153
56.010       200
56.020       167
56.030       200
56.040       167
56.050       140
56.060       160
56.070       140
56.080       173
56.090       120
56.100       200
56.110       187
56.120       173
56.130       187
56.140       113
56.150       187
56.160       140
56.170       173
56.180       160
56.190       133
56.200       147
56.210       180
56.220       120
56.230       233
56.240       133
56.250       140
56.260       147
56.270       160
56.280       147
56.290       220
56.300       187
56.310       187
56.320       160
56.330       187
56.340       133
56.350       193
56.360       160
56.370       173
56.380       140
56.390       120
56.400       140
56.410       180
56.420       167
56.430       180
56.440       200
56.450       160
56.460       200
56.470       120
56.480       160
56.490       160
56.500       153
56.510       200
56.520       120
56.530       147
56.540       147
56.550       193
56.560       207
56.570       147
56.580       200
56.590       100
56.600       140
56.610       227
56.620       147
56.630       160
56.640       227
56.650       173
56.660       167
56.670       147
56.680       167
56.690       133
56.700       147
56.710       140
56.720       173
56.730       260
56.740       160
56.750       167
56.760       133
56.770       207
56.780       187
56.790       167
56.800       113
56.810       107
56.820       133
56.830       127
56.840       193
56.850       187
56.860       160
56.870       133
56.880       153
56.890       113
56.900       200
56.910       153
56.920       240
56.930       167
56.940       213
56.950       167
56.960       160
56.970       180
56.980       160
56.990       153
57.000       187
57.010       160
57.020       140
57.030       133
57.040       160
57.050       140
57.060       180
57.070       147
57.080       187
57.090       167
57.100       140
57.110       160
57.120       100
57.130       173
57.140       220
57.150       167
57.160       140
57.170       207
57.180       153
57.190       153
57.200       133
57.210       180
57.220       187
57.230       127
57.240       127
57.250       167
57.260       100
57.270       187
57.280       140
57.290       167
57.300       207
57.310       147
57.320       140
57.330        73
57.340       100
57.350       140
57.360       133
57.370       160
57.380       127
57.390       173
57.400       153
57.410       187
57.420       207
57.430       167
57.440       133
57.450       140
57.460       160
57.470       167
57.480       160
57.490       107
57.500       220
57.510       193
57.520       160
57.530       133
57.540       167
57.550       167
57.560       173
57.570       133
57.580       167
57.590       147
57.600       180
57.610       140
57.620       127
57.630       160
57.640       113
57.650       107
57.660       173
57.670       160
57.680       100
57.690       207
57.700       140
57.710       133
57.720        93
57.730       173
57.740       113
57.750       107
57.760       167
57.770       133
57.780        80
57.790       153
57.800       100
57.810       187
57.820       193
57.830       160
57.840       120
57.850       220
57.860        87
57.870       127
57.880       147
57.890       127
57.900       120
57.910       180
57.920       127
57.930       153
57.940       193
57.950       153
57.960        87
57.970       140
57.980       140
57.990       140
58.000       113
58.010       133
58.020       173
58.030        87
58.040       173
58.050       167
58.060       140
58.070       133
58.080        87
58.090       147
58.100       113
58.110       140
58.120       160
58.130       133
58.140        93
58.150       147
58.160       153
58.170       140
58.180        87
58.190       180
58.200       127
58.210       113
58.220        80
58.230       173
58.240       180
58.250       127
58.260       167
58.270       173
58.280       133
58.290       113
58.300       120
58.310        80
58.320       147
58.330        93
58.340       107
58.350       153
58.360       180
58.370       180
58.380       113
58.390       107
58.400       160
58.410       113
58.420       107
58.430       100
58.440       160
58.450       113
58.460       173
58.470       120
58.480       160
58.490       120
58.500       127
58.510       140
58.520       113
58.530       167
58.540       113
58.550       133
58.560        80
58.570       127
58.580        80
58.590       107
58.600        73
58.610       133
58.620        87
58.630       120
58.640       147
58.650        73
58.660       120
58.670        87
58.680       153
58.690       133
58.700       153
58.710       107
58.720       140
58.730       180
58.740       100
58.750        93
58.760       180
58.770       153
58.780       147
58.790        93
58.800       147
58.810       120
58.820       160
58.830        67
58.840       180
58.850        73
58.860       113
58.870        73
58.880        80
58.890       140
58.900       120
58.910        87
58.920       133
58.930        93
58.940       173
58.950       120
58.960       173
58.970       167
58.980       167
58.990       120
59.000       107
59.010       133
59.020       213
59.030       140
59.040       100
59.050        80
59.060        87
59.070       133
59.080       113
59.090       127
59.100        87
59.110        67
59.120       120
59.130       107
59.140       113
59.150       140
59.160       127
59.170       140
59.180       127
59.190        87
59.200        87
59.210       147
59.220       153
59.230       113
59.240        60
59.250       120
59.260       107
59.270       133
59.280       140
59.290       140
59.300       147
59.310       140
59.320       133
59.330       120
59.340       233
59.350       100
59.360       160
59.370       127
59.380        93
59.390       113
59.400       113
59.410       120
59.420       140
59.430       107
59.440       107
59.450        80
59.460       153
59.470       147
59.480       213
59.490       107
59.500       127
59.510       153
59.520       133
59.530       140
59.540       113
59.550       100
59.560       147
59.570       107
59.580       147
59.590       133
59.600        87
59.610       147
59.620       173
59.630       160
59.640       133
59.650       107
59.660       100
59.670       140
59.680       100
59.690       147
59.700       140
59.710       100
59.720        93
59.730       153
59.740       147
59.750       147
59.760        93
59.770        80
59.780       167
59.790        67
59.800       113
59.810       120
59.820       107
59.830       120
59.840       140
59.850       127
59.860       100
59.870       140
59.880        93
59.890       100
59.900       120
59.910       180
59.920       113
59.930        87
59.940        80
59.950       120
59.960        80
59.970       120
59.980        93
59.990        87
60.000       127
