20.000        60
20.010        60
20.020       187
20.030       120
20.040        80
20.050       127
20.060        80
20.070       147
20.080       113
20.090        93
20.100       100
20.110       147
20.120       133
20.130       113
20.140       160
20.150       107
20.160       107
20.170        93
20.180       127
20.190       120
20.200       140
20.210       153
20.220       153
20.230       120
20.240       127
20.250       127
20.260       160
20.270       107
20.280       140
20.290       120
20.300       107
20.310       127
20.320       100
20.330       140
20.340        67
20.350        80
20.360       120
20.370       100
20.380        87
20.390       127
20.400       107
20.410       113
20.420        80
20.430       113
20.440       180
20.450        67
20.460       120
20.470       113
20.480       100
20.490       127
20.500       113
20.510       147
20.520       133
20.530       107
20.540        67
20.550       100
20.560       127
20.570       113
20.580       113
20.590       153
20.600       167
20.610        73
20.620       167
20.630       113
20.640        87
20.650        93
20.660       120
20.670       193
20.680       133
20.690       113
20.700       153
20.710       127
20.720       127
20.730       127
20.740       127
20.750       100
20.760        80
20.770        93
20.780       107
20.790       147
20.800       140
20.810        67
20.820       120
20.830       160
20.840        80
20.850       113
20.860       113
20.870       167
20.880       100
20.890        87
20.900       107
20.910        80
20.920       107
20.930       100
20.940        87
20.950       100
20.960       133
20.970        73
20.980       127
20.990       120
21.000        87
21.010       113
21.020       153
21.030       120
21.040       167
21.050        80
21.060       120
21.070       100
21.080       113
21.090        93
21.100       133
21.110       100
21.120       100
21.130       153
21.140        93
21.150        80
21.160        87
21.170       113
21.180       120
21.190       140
21.200        80
21.210       107
21.220       120
21.230       120
21.240       140
21.250       120
21.260       100
21.270        87
21.280        67
21.290       113
21.300       107
21.310       120
21.320       107
21.330       120
21.340       127
21.350       120
21.360       107
21.370       133
21.380       120
21.390       100
21.400        60
21.410        93
21.420       140
21.430       147
21.440        93
21.450       100
21.460       100
21.470       127
21.480       187
21.490       120
21.500       100
21.510       140
21.520       100
21.530       107
21.540       147
21.550        60
21.560        73
21.570        80
21.580       167
21.590       133
21.600       113
21.610        87
21.620       100
21.630       153
21.640       127
21.650       167
21.660       167
21.670       120
21.680       180
21.690        93
21.700       140
21.710       200
21.720       100
21.730       133
21.740       127
21.750       133
21.760       127
21.770       127
21.780       120
21.790       133
21.800        87
21.810       113
21.820       127
21.830       127
21.840        60
21.850       113
21.860        93
21.870       133
21.880       153
21.890       140
21.900       153
21.910       187
21.920       133
21.930       133
21.940       100
21.950       127
21.960       147
21.970        87
21.980       107
21.990       133
22.000       147
22.010       127
22.020       107
22.030        87
22.040       127
22.050       180
22.060       133
22.070        93
22.080       193
22.090       107
22.100       160
22.110        80
22.120       147
22.130       133
22.140       140
22.150       133
22.160       107
22.170       160
22.180       140
22.190       113
22.200       180
22.210       153
22.220       133
22.230        93
22.240       160
22.250       120
22.260       167
22.270       147
22.280       127
22.290       173
22.300       187
22.310       193
22.320       180
22.330       107
22.340       147
22.350       127
22.360       200
22.370       173
22.380       180
22.390       173
22.400       153
22.410       187
22.420       127
22.430       180
22.440       140
22.450       207
22.460       173
22.470       127
22.480       173
22.490       180
22.500       147
22.510       187
22.520       140
22.530       153
22.540       173
22.550       267
22.560       140
22.570       153
22.580       200
22.590       133
22.600       160
22.610       167
22.620       127
22.630       167
22.640       227
22.650       213
22.660       107
22.670       193
22.680       160
22.690       147
22.700       173
22.710       133
22.720       113
22.730       127
22.740       173
22.750       160
22.760       233
22.770       147
22.780       200
22.790       247
22.800       187
22.810       133
22.820       140
22.830       167
22.840       127
22.850       220
22.860       213
22.870       200
22.880       180
22.890       220
22.900       220
22.910       287
22.920       293
22.930       293
22.940       227
22.950       267
22.960       240
22.970       247
22.980       213
22.990       273
23.000       307
23.010       233
23.020       240
23.030       327
23.040       307
23.050       380
23.060       506
23.070       853
23.080      1299
23.090      1779
23.100      2053
23.110      2132
23.120      2192
23.130      2112
23.140      1873
23.150      1499
23.160      1140
23.170       733
23.180       460
23.190       380
23.200       453
23.210       353
23.220       260
23.230       307
23.240       320
23.250       240
23.260       280
23.270       253
23.280       280
23.290       287
23.300       200
23.310       227
23.320       247
23.330       247
23.340       267
23.350       247
23.360       173
23.370       287
23.380       227
23.390       207
23.400       213
23.410       200
23.420       227
23.430       187
23.440       187
23.450       253
23.460       187
23.470       220
23.480       227
23.490       313
23.500       147
23.510       200
23.520       187
23.530       233
23.540       160
23.550       213
23.560       147
23.570       153
23.580       200
23.590       207
23.600       187
23.610       153
23.620       220
23.630       227
23.640       167
23.650       213
23.660       140
23.670       207
23.680       127
23.690       240
23.700       247
23.710       180
23.720       220
23.730       227
23.740       107
23.750       173
23.760       160
23.770       173
23.780       220
23.790       240
23.800       153
23.810       227
23.820       200
23.830       113
23.840       180
23.850       200
23.860       253
23.870       253
23.880       180
23.890       273
23.900       227
23.910       180
23.920       180
23.930       200
23.940       240
23.950       147
23.960       220
23.970       213
23.980       200
23.990       173
24.000       260
24.010       180
24.020       193
24.030       267
24.040       187
24.050       173
24.060       180
24.070       120
24.080       280
24.090       173
24.100       200
24.110       200
24.120       220
24.130       220
24.140       187
24.150       227
24.160       220
24.170       167
24.180       207
24.190       267
24.200       227
24.210       233
24.220       160
24.230       273
24.240       127
24.250       213
24.260       193
24.270       193
24.280       187
24.290       220
24.300       140
24.310       160
24.320       187
24.330       207
24.340       193
24.350       273
24.360       153
24.370       247
24.380       133
24.390       160
24.400       200
24.410       227
24.420       207
24.430       167
24.440       180
24.450       180
24.460       180
24.470       160
24.480       180
24.490       200
24.500       227
24.510       160
24.520       287
24.530       160
24.540       193
24.550       187
24.560       213
24.570       280
24.580       240
24.590       260
24.600       200
24.610       260
24.620       247
24.630       253
24.640       220
24.650       227
24.660       260
24.670       160
24.680       260
24.690       253
24.700       340
24.710       493
24.720       453
24.730       626
24.740       646
24.750       773
24.760       880
24.770       926
24.780       980
24.790      1033
24.800       926
24.810       920
24.820      1020
24.830      1020
24.840      1073
24.850      1053
24.860       980
24.870      1060
24.880      1046
24.890       940
24.900      1106
24.910       866
24.920      1033
24.930       960
24.940      1106
24.950       966
24.960      1000
24.970       920
24.980       913
24.990       966
25.000       933
25.010      1000
25.020      1100
25.030       926
25.040      1293
25.050       940
25.060      1140
25.070      1113
25.080      1173
25.090       946
25.100       966
25.110      1100
25.120      1053
25.130      1153
25.140      1113
25.150       940
25.160      1020
25.170      1046
25.180      1226
25.190      1240
25.200      1220
25.210      1186
25.220      1120
25.230      1173
25.240      1146
25.250      1226
25.260      1193
25.270      1206
25.280      1240
25.290      1593
25.300      1346
25.310      1459
25.320      1499
25.330      1433
25.340      1699
25.350      1739
25.360      2386
25.370      2699
25.380      3165
25.390      3619
25.400      4525
25.410      5651
25.420      6371
25.430      6997
25.440      8263
25.450      9370
25.460     10416
25.470     11789
25.480     13121
25.490     13701
25.500     15247
25.510     15727
25.520     16114
25.530     17506
25.540     20179
25.550     25670
25.560     42683
25.570     79008
25.580    123697
25.590    163361
25.600    187465
25.610    198447
25.620    204552
25.630    209856
25.640    209550
25.650    196855
25.660    173770
25.670    150540
25.680    134846
25.690    127369
25.700    120885
25.710    105378
25.720     77816
25.730     48054
25.740     26849
25.750     15987
25.760     12029
25.770      9736
25.780      8423
25.790      6757
25.800      5864
25.810      4905
25.820      4438
25.830      3485
25.840      3192
25.850      2952
25.860      2339
25.870      2332
25.880      1966
25.890      2006
25.900      1813
25.910      1773
25.920      1706
25.930      1626
25.940      1546
25.950      1606
25.960      1319
25.970      1353
25.980      1379
25.990      1386
26.000      1359
26.010      1286
26.020      1240
26.030      1180
26.040      1279
26.050      1086
26.060      1233
26.070      1226
26.080      1133
26.090      1220
26.100      1173
26.110      1113
26.120      1053
26.130      1153
26.140      1080
26.150      1153
26.160      1013
26.170       986
26.180       986
26.190      1086
26.200      1146
26.210      1073
26.220       886
26.230       940
26.240       926
26.250       933
26.260       960
26.270      1013
26.280       886
26.290       933
26.300       940
26.310      1073
26.320       900
26.330       926
26.340       860
26.350       993
26.360       866
26.370       820
26.380      1000
26.390       946
26.400       820
26.410       753
26.420      1020
26.430       873
26.440       773
26.450       613
26.460       866
26.470       806
26.480       873
26.490       953
26.500       840
26.510       766
26.520       866
26.530       780
26.540       846
26.550       866
26.560       926
26.570       600
26.580       840
26.590       786
26.600       740
26.610       686
26.620       733
26.630       746
26.640       866
26.650       933
26.660       840
26.670       620
26.680       760
26.690       726
26.700       760
26.710       740
26.720       773
26.730       653
26.740       720
26.750       780
26.760       653
26.770       800
26.780       680
26.790       653
26.800       726
26.810       726
26.820       740
26.830       793
26.840       800
26.850       480
26.860       813
26.870       706
26.880       686
26.890       666
26.900       753
26.910       700
26.920       573
26.930       666
26.940       720
26.950       660
26.960       760
26.970       713
26.980       673
26.990       560
27.000       646
27.010       813
27.020       633
27.030       613
27.040       700
27.050       766
27.060       680
27.070       653
27.080       633
27.090       673
27.100       573
27.110       613
27.120       646
27.130       760
27.140       586
27.150       640
27.160       673
27.170       666
27.180       713
27.190       620
27.200       680
27.210       626
27.220       660
27.230       566
27.240       620
27.250       653
27.260       533
27.270       666
27.280       633
27.290       593
27.300       660
27.310       633
27.320       620
27.330       653
27.340       580
27.350       580
27.360       666
27.370       546
27.380       586
27.390       560
27.400       620
27.410       646
27.420       633
27.430       566
27.440       653
27.450       566
27.460       646
27.470       660
27.480       640
27.490       686
27.500       626
27.510       533
27.520       566
27.530       580
27.540       580
27.550       593
27.560       593
27.570       520
27.580       480
27.590       493
27.600       473
27.610       646
27.620       653
27.630       760
27.640       513
27.650       580
27.660       660
27.670       553
27.680       606
27.690       646
27.700       580
27.710       640
27.720       653
27.730       553
27.740       486
27.750       533
27.760       606
27.770       606
27.780       533
27.790       593
27.800       466
27.810       493
27.820       553
27.830       566
27.840       626
27.850       493
27.860       506
27.870       606
27.880       473
27.890       546
27.900       593
27.910       606
27.920       540
27.930       713
27.940       660
27.950       480
27.960       620
27.970       573
27.980       573
27.990       520
28.000       533
28.010       566
28.020       546
28.030       546
28.040       560
28.050       486
28.060       466
28.070       533
28.080       640
28.090       506
28.100       486
28.110       480
28.120       613
28.130       580
28.140       486
28.150       466
28.160       686
28.170       620
28.180       473
28.190       526
28.200       566
28.210       540
28.220       473
28.230       593
28.240       440
28.250       440
28.260       486
28.270       446
28.280       480
28.290       500
28.300       526
28.310       540
28.320       506
28.330       533
28.340       533
28.350       433
28.360       493
28.370       720
28.380       553
28.390       420
28.400       500
28.410       466
28.420       540
28.430       526
28.440       466
28.450       486
28.460       473
28.470       466
28.480       486
28.490       413
28.500       560
28.510       493
28.520       540
28.530       500
28.540       433
28.550       520
28.560       426
28.570       586
28.580       506
28.590       480
28.600       486
28.610       473
28.620       513
28.630       580
28.640       433
28.650       553
28.660       553
28.670       500
28.680       407
28.690       560
28.700       526
28.710       586
28.720       460
28.730       420
28.740       440
28.750       540
28.760       466
28.770       400
28.780       526
28.790       446
28.800       453
28.810       480
28.820       440
28.830       580
28.840       480
28.850       453
28.860       466
28.870       433
28.880       466
28.890       613
28.900       506
28.910       473
28.920       373
28.930       446
28.940       446
28.950       506
28.960       613
28.970       393
28.980       460
28.990       493
29.000       500
29.010       526
29.020       446
29.030       440
29.040       553
29.050       546
29.060       393
29.070       440
29.080       407
29.090       466
29.100       493
29.110       513
29.120       446
29.130       413
29.140       446
29.150       407
29.160       506
29.170       460
29.180       400
29.190       433
29.200       453
29.210       393
29.220       393
29.230       400
29.240       353
29.250       440
29.260       380
29.270       413
29.280       446
29.290       440
29.300       486
29.310       380
29.320       460
29.330       433
29.340       340
29.350       466
29.360       407
29.370       420
29.380       327
29.390       380
29.400       353
29.410       500
29.420       433
29.430       486
29.440       393
29.450       440
29.460       367
29.470       387
29.480       480
29.490       393
29.500       513
29.510       473
29.520       440
29.530       426
29.540       546
29.550       393
29.560       380
29.570       466
29.580       426
29.590       407
29.600       313
29.610       347
29.620       393
29.630       426
29.640       466
29.650       526
29.660       426
29.670       433
29.680       340
29.690       433
29.700       400
29.710       380
29.720       480
29.730       407
29.740       420
29.750       473
29.760       420
29.770       393
29.780       413
29.790       360
29.800       347
29.810       347
29.820       353
29.830       446
29.840       387
29.850       333
29.860       473
29.870       486
29.880       433
29.890       460
29.900       387
29.910       287
29.920       493
29.930       293
29.940       546
29.950       420
29.960       426
29.970       473
29.980       400
29.990       420
30.000       446
30.010       453
30.020       313
30.030       460
30.040       407
30.050       400
30.060       506
30.070       393
30.080       373
30.090       433
30.100       367
30.110       420
30.120       407
30.130       327
30.140       367
30.150       373
30.160       426
30.170       453
30.180       426
30.190       387
30.200       407
30.210       373
30.220       367
30.230       360
30.240       393
30.250       433
30.260       360
30.270       387
30.280       400
30.290       320
30.300       367
30.310       380
30.320       340
30.330       333
30.340       353
30.350       426
30.360       280
30.370       446
30.380       393
30.390       407
30.400       380
30.410       307
30.420       320
30.430       393
30.440       367
30.450       360
30.460       327
30.470       333
30.480       333
30.490       426
30.500       300
30.510       300
30.520       373
30.530       413
30.540       420
30.550       353
30.560       313
30.570       380
30.580       307
30.590       340
30.600       347
30.610       453
30.620       320
30.630       373
30.640       367
30.650       313
30.660       413
30.670       440
30.680       320
30.690       400
30.700       327
30.710       300
30.720       327
30.730       300
30.740       360
30.750       293
30.760       360
30.770       360
30.780       327
30.790       367
30.800       327
30.810       367
30.820       300
30.830       287
30.840       300
30.850       373
30.860       380
30.870       320
30.880       393
30.890       373
30.900       280
30.910       287
30.920       287
30.930       273
30.940       373
30.950       300
30.960       380
30.970       287
30.980       313
30.990       393
31.000       307
31.010       293
31.020       333
31.030       287
31.040       347
31.050       287
31.060       340
31.070       327
31.080       327
31.090       387
31.100       287
31.110       320
31.120       233
31.130       340
31.140       300
31.150       333
31.160       260
31.170       313
31.180       220
31.190       260
31.200       293
31.210       360
31.220       347
31.230       333
31.240       400
31.250       253
31.260       287
31.270       333
31.280       353
31.290       313
31.300       333
31.310       327
31.320       300
31.330       260
31.340       327
31.350       353
31.360       413
31.370       280
31.380       313
31.390       333
31.400       253
31.410       300
31.420       333
31.430       313
31.440       373
31.450       267
31.460       273
31.470       280
31.480       207
31.490       313
31.500       353
31.510       287
31.520       233
31.530       360
31.540       280
31.550       247
31.560       300
31.570       327
31.580       327
31.590       327
31.600       180
31.610       333
31.620       280
31.630       287
31.640       267
31.650       180
31.660       267
31.670       313
31.680       307
31.690       280
31.700       287
31.710       307
31.720       287
31.730       253
31.740       353
31.750       300
31.760       313
31.770       380
31.780       267
31.790       307
31.800       307
31.810       373
31.820       393
31.830       287
31.840       360
31.850       280
31.860       426
31.870       360
31.880       400
31.890       440
31.900       413
31.910       353
31.920       560
31.930       327
31.940       473
31.950       473
31.960       453
31.970       573
31.980       466
31.990       500
32.000       540
32.010       613
32.020       533
32.030       546
32.040       553
32.050       526
32.060       586
32.070       560
32.080       407
32.090       387
32.100       486
32.110       393
32.120       426
32.130       387
32.140       500
32.150       473
32.160       373
32.170       287
32.180       307
32.190       387
32.200       340
32.210       327
32.220       340
32.230       367
32.240       307
32.250       353
32.260       167
32.270       287
32.280       227
32.290       300
32.300       340
32.310       227
32.320       367
32.330       307
32.340       240
32.350       267
32.360       253
32.370       253
32.380       367
32.390       253
32.400       233
32.410       280
32.420       327
32.430       227
32.440       280
32.450       233
32.460       260
32.470       240
32.480       253
32.490       247
32.500       247
32.510       273
32.520       247
32.530       247
32.540       227
32.550       300
32.560       207
32.570       233
32.580       273
32.590       240
32.600       327
32.610       253
32.620       320
32.630       280
32.640       200
32.650       220
32.660       247
32.670       280
32.680       140
32.690       273
32.700       273
32.710       220
32.720       227
32.730       187
32.740       193
32.750       260
32.760       260
32.770       267
32.780       233
32.790       273
32.800       187
32.810       227
32.820       207
32.830       173
32.840       240
32.850       207
32.860       200
32.870       187
32.880       193
32.890       240
32.900       187
32.910       220
32.920       253
32.930       253
32.940       227
32.950       260
32.960       193
32.970       200
32.980       267
32.990       180
33.000       187
33.010       240
33.020       180
33.030       153
33.040       253
33.050       233
33.060       187
33.070       220
33.080       187
33.090       200
33.100       253
33.110       227
33.120       147
33.130       220
33.140       207
33.150       213
33.160       193
33.170       233
33.180       253
33.190       213
33.200       187
33.210       160
33.220       200
33.230       227
33.240       220
33.250       173
33.260       240
33.270       200
33.280       253
33.290       213
33.300       220
33.310       227
33.320       213
33.330       187
33.340       287
33.350       220
33.360       200
33.370       180
33.380       240
33.390       193
33.400       253
33.410       200
33.420       200
33.430       260
33.440       240
33.450       273
33.460       213
33.470       227
33.480       200
33.490       193
33.500       147
33.510       207
33.520       193
33.530       173
33.540       133
33.550       227
33.560       220
33.570       153
33.580       220
33.590       120
33.600       180
33.610       207
33.620       220
33.630       200
33.640       207
33.650       167
33.660       213
33.670       187
33.680       173
33.690       180
33.700       300
33.710       213
33.720       240
33.730       233
33.740       213
33.750       193
33.760       133
33.770       167
33.780       200
33.790       193
33.800       193
33.810       167
33.820       247
33.830       140
33.840       180
33.850       213
33.860       167
33.870       193
33.880       180
33.890       173
33.900       167
33.910       213
33.920       187
33.930       227
33.940       200
33.950       167
33.960       133
33.970       180
33.980       160
33.990       200
34.000       267
34.010       240
34.020       147
34.030       173
34.040       220
34.050       207
34.060       213
34.070       213
34.080       147
34.090       180
34.100       227
34.110       160
34.120       207
34.130       227
34.140       147
34.150       240
34.160       180
34.170       120
34.180       173
34.190       167
34.200       213
34.210       213
34.220       107
34.230       220
34.240       227
34.250       213
34.260       107
34.270       200
34.280       153
34.290       180
34.300       193
34.310       147
34.320       240
34.330       120
34.340       213
34.350       213
34.360       193
34.370       167
34.380       200
34.390       247
34.400       173
34.410       247
34.420       173
34.430       147
34.440       147
34.450       147
34.460       173
34.470       200
34.480       180
34.490       100
34.500       220
34.510       193
34.520       167
34.530       147
34.540       160
34.550       173
34.560       120
34.570       160
34.580       133
34.590       187
34.600       167
34.610       100
34.620       153
34.630       200
34.640       147
34.650       187
34.660       167
34.670       180
34.680       140
34.690       173
34.700       140
34.710       120
34.720        80
34.730       120
34.740       160
34.750       153
34.760       133
34.770       180
34.780       100
34.790       173
34.800       113
34.810       167
34.820       133
34.830       147
34.840       227
34.850       140
34.860       167
34.870       187
34.880       167
34.890        87
34.900       113
34.910       133
34.920       153
34.930       173
34.940       173
34.950       120
34.960       147
34.970       147
34.980       140
34.990       133
35.000       127
35.010       187
35.020       120
35.030       153
35.040       127
35.050       153
35.060       107
35.070       113
35.080       167
35.090       167
35.100       113
35.110       153
35.120       107
35.130       140
35.140       173
35.150       120
35.160       193
35.170       153
35.180       187
35.190       127
35.200       180
35.210       120
35.220       173
35.230        93
35.240       127
35.250       173
35.260       173
35.270       133
35.280       200
35.290       120
35.300       147
35.310       100
35.320        87
35.330       187
35.340       133
35.350       193
35.360       167
35.370       200
35.380       133
35.390       127
35.400       160
35.410       193
35.420        80
35.430       120
35.440        87
35.450       133
35.460       140
35.470       140
35.480       127
35.490       160
35.500       187
35.510       153
35.520       127
35.530       127
35.540       133
35.550        87
35.560       100
35.570       193
35.580       113
35.590        67
35.600       127
35.610       173
35.620       147
35.630       140
35.640       160
35.650       147
35.660       133
35.670       153
35.680        80
35.690       193
35.700       133
35.710       153
35.720       180
35.730       133
35.740        93
35.750       180
35.760       113
35.770       147
35.780       127
35.790       133
35.800       127
35.810       107
35.820       180
35.830       120
35.840       173
35.850       127
35.860       193
35.870       113
35.880       107
35.890       100
35.900       207
35.910       113
35.920       127
35.930       153
35.940       127
35.950       120
35.960       153
35.970       133
35.980       107
35.990       153
36.000       120
36.010        87
36.020       133
36.030       160
36.040       113
36.050       153
36.060       100
36.070       100
36.080       107
36.090       127
36.100       173
36.110       120
36.120       127
36.130        67
36.140        87
36.150       140
36.160       180
36.170       147
36.180       127
36.190       127
36.200       140
36.210       127
36.220       147
36.230       140
36.240        80
36.250       127
36.260       187
36.270       127
36.280       140
36.290        93
36.300        93
36.310       113
36.320       120
36.330       127
36.340       100
36.350       113
36.360       133
36.370       147
36.380       100
36.390       220
36.400       107
36.410       180
36.420        93
36.430       213
36.440       180
36.450       113
36.460       120
36.470       113
36.480        87
36.490       107
36.500       120
36.510       127
36.520        87
36.530       140
36.540       120
36.550        80
36.560       140
36.570       100
36.580       100
36.590       120
36.600       113
36.610       120
36.620       107
36.630       120
36.640        93
36.650        93
36.660       107
36.670       167
36.680       133
36.690        80
36.700        93
36.710       113
36.720       100
36.730        60
36.740       113
36.750       100
36.760       133
36.770        73
36.780        93
36.790        93
36.800        67
36.810       100
36.820       140
36.830       127
36.840       100
36.850        80
36.860       100
36.870        60
36.880       107
36.890       133
36.900       100
36.910       107
36.920       127
36.930       113
36.940        80
36.950        93
36.960       113
36.970       107
36.980       100
36.990       120
37.000       133
37.010        80
37.020        93
37.030        87
37.040       113
37.050       107
37.060       113
37.070       113
37.080       140
37.090       147
37.100        87
37.110        67
37.120        80
37.130        93
37.140        93
37.150       107
37.160        53
37.170        80
37.180        80
37.190        73
37.200        87
37.210       113
37.220       113
37.230        93
37.240        87
37.250       113
37.260        80
37.270       120
37.280        73
37.290        93
37.300       160
37.310        73
37.320       113
37.330       100
37.340        80
37.350        80
37.360       100
37.370        87
37.380        73
37.390        73
37.400        80
37.410       107
37.420       107
37.430        93
37.440       107
37.450       100
37.460       113
37.470       100
37.480        60
37.490       120
37.500       147
37.510        73
37.520        53
37.530       127
37.540        73
37.550       107
37.560       160
37.570       127
37.580        93
37.590       113
37.600        73
37.610       113
37.620        73
37.630       127
37.640        67
37.650       133
37.660        73
37.670       100
37.680        67
37.690        93
37.700        60
37.710       120
37.720       133
37.730       120
37.740        80
37.750       120
37.760       100
37.770        73
37.780       100
37.790       107
37.800        67
37.810       107
37.820       140
37.830        93
37.840        80
37.850        67
37.860        73
37.870        87
37.880        87
37.890        93
37.900        80
37.910        80
37.920        93
37.930        73
37.940        87
37.950        87
37.960        53
37.970        93
37.980       107
37.990        67
38.000        67
38.010       100
38.020        73
38.030       100
38.040       127
38.050        73
38.060       100
38.070       100
38.080        80
38.090       100
38.100        67
38.110       107
38.120        73
38.130        80
38.140        60
38.150       133
38.160        47
38.170        80
38.180        67
38.190        67
38.200        93
38.210        93
38.220        40
38.230        47
38.240        33
38.250        60
38.260        93
38.270        60
38.280        73
38.290        60
38.300        67
38.310        80
38.320       100
38.330        67
38.340       107
38.350        73
38.360        40
38.370        60
38.380       133
38.390        80
38.400        60
38.410        93
38.420        27
38.430        67
38.440        40
38.450        60
38.460        73
38.470        67
38.480       100
38.490        73
38.500        87
38.510       107
38.520        80
38.530        53
38.540        53
38.550       127
38.560        87
38.570        67
38.580       107
38.590        93
38.600       100
38.610       107
38.620        40
38.630       113
38.640        93
38.650        80
38.660        73
38.670        87
38.680        93
38.690        53
38.700        80
38.710        53
38.720        53
38.730        80
38.740       127
38.750       100
38.760        67
38.770       107
38.780       127
38.790        80
38.800        93
38.810        33
38.820       107
38.830        80
38.840        73
38.850        60
38.860        80
38.870        67
38.880        87
38.890        87
38.900        73
38.910       100
38.920       100
38.930        80
38.940        53
38.950        73
38.960       100
38.970        93
38.980        87
38.990        60
39.000        40
39.010        47
39.020        40
39.030        67
39.040        53
39.050        47
39.060        53
39.070        67
39.080        53
39.090       107
39.100       100
39.110        73
39.120       100
39.130        73
39.140        47
39.150        67
39.160        87
39.170        53
39.180        67
39.190        67
39.200        87
39.210        80
39.220        73
39.230       120
39.240        67
39.250        67
39.260       113
39.270        93
39.280        60
39.290       107
39.300        33
39.310        87
39.320        67
39.330        93
39.340        60
39.350        93
39.360       107
39.370        60
39.380        93
39.390        87
39.400        87
39.410        73
39.420        93
39.430        67
39.440        40
39.450       120
39.460        60
39.470       107
39.480       120
39.490       107
39.500       153
39.510       147
39.520       160
39.530       153
39.540       127
39.550       147
39.560        80
39.570       120
39.580       113
39.590       140
39.600        73
39.610       113
39.620        87
39.630       160
39.640       127
39.650        93
39.660       113
39.670        93
39.680       107
39.690       100
39.700        87
39.710        87
39.720        80
39.730        80
39.740        73
39.750        67
39.760        87
39.770        73
39.780        53
39.790        60
39.800        73
39.810        60
39.820        73
39.830        93
39.840        87
39.850        87
39.860        80
39.870        67
39.880        47
39.890        93
39.900        73
39.910        47
39.920        53
39.930        47
39.940        40
39.950        33
39.960        47
39.970        67
39.980        53
39.990        27
40.000        80
40.010        87
40.020        47
40.030        60
40.040        87
40.050       107
40.060        73
40.070        53
40.080        73
40.090        73
40.100        47
40.110       100
40.120        73
40.130        67
40.140        60
40.150        67
40.160        40
40.170        53
40.180        47
40.190        60
40.200        73
40.210        33
40.220        47
40.230        53
40.240        60
40.250        73
40.260        27
40.270        53
40.280        60
40.290        53
40.300        67
40.310        47
40.320        73
40.330        47
40.340        60
40.350        73
40.360        67
40.370        67
40.380        60
40.390        53
40.400        40
40.410        67
40.420        47
40.430        73
40.440        60
40.450        40
40.460        73
40.470        80
40.480        47
40.490        73
40.500        60
40.510        67
40.520        53
40.530        73
40.540        40
40.550        60
40.560       100
40.570        47
40.580        87
40.590        53
40.600        87
40.610        20
40.620        53
40.630        47
40.640        60
40.650        53
40.660        53
40.670        53
40.680        27
40.690        40
40.700        60
40.710        47
40.720        47
40.730        53
40.740       113
40.750        40
40.760        73
40.770        80
40.780        27
40.790        80
40.800        47
40.810        40
40.820        33
40.830        40
40.840        80
40.850        47
40.860        20
40.870        40
40.880        53
40.890        33
40.900        47
40.910        27
40.920        47
40.930        53
40.940        33
40.950        47
40.960        47
40.970        60
40.980        80
40.990        93
41.000        80
41.010        27
41.020        67
41.030        80
41.040       100
41.050        27
41.060        47
41.070        13
41.080        47
41.090        33
41.100        80
41.110        73
41.120        40
41.130        53
41.140        33
41.150        73
41.160        27
41.170        73
41.180        47
41.190        67
41.200        13
41.210        73
41.220        80
41.230        87
41.240        47
41.250        40
41.260        40
41.270        80
41.280        93
41.290        47
41.300        93
41.310        33
41.320        47
41.330        40
41.340        60
41.350        40
41.360        60
41.370        33
41.380        53
41.390        53
41.400        73
41.410        60
41.420        47
41.430        60
41.440        47
41.450        40
41.460        33
41.470        60
41.480        47
41.490        40
41.500        60
41.510        67
41.520        60
41.530        60
41.540        47
41.550        33
41.560        53
41.570        47
41.580        47
41.590        80
41.600        47
41.610        40
41.620        47
41.630        47
41.640        40
41.650        67
41.660        27
41.670        67
41.680        47
41.690        60
41.700        33
41.710        60
41.720        47
41.730        60
41.740        67
41.750        67
41.760        40
41.770        60
41.780        60
41.790        67
41.800        33
41.810        60
41.820        47
41.830        20
41.840        27
41.850        60
41.860        53
41.870        40
41.880        33
41.890        53
41.900        33
41.910        80
41.920        67
41.930        53
41.940        73
41.950        47
41.960        47
41.970        47
41.980        40
41.990        73
42.000        47
42.010        27
42.020        53
42.030        73
42.040        20
42.050        40
42.060        53
42.070        53
42.080        53
42.090        47
42.100        40
42.110        47
42.120        67
42.130        47
42.140        47
42.150        27
42.160        33
42.170        47
42.180        40
42.190        47
42.200        60
42.210        40
42.220        53
42.230        40
42.240        53
42.250        73
42.260        60
42.270        47
42.280        47
42.290        33
42.300        53
42.310        67
42.320        53
42.330        67
42.340        20
42.350        33
42.360        40
42.370        53
42.380        60
42.390        47
42.400        40
42.410        53
42.420        13
42.430         7
42.440        93
42.450        40
42.460        53
42.470        47
42.480        40
42.490        47
42.500        33
42.510        67
42.520        40
42.530        33
42.540        67
42.550        13
42.560        47
42.570        87
42.580        33
42.590        33
42.600        67
42.610        47
42.620        60
42.630        47
42.640        47
42.650        47
42.660        40
42.670        53
42.680        60
42.690        60
42.700        33
42.710        13
42.720        40
42.730        33
42.740        20
42.750        47
42.760        53
42.770        40
42.780        13
42.790        53
42.800        40
42.810        47
42.820        60
42.830        60
42.840        27
42.850        47
42.860        27
42.870        47
42.880        33
42.890        13
42.900        27
42.910        20
42.920        13
42.930        73
42.940        47
42.950        53
42.960        87
42.970        67
42.980        33
42.990        13
43.000        53
43.010        33
43.020        67
43.030        53
43.040        47
43.050        47
43.060        53
43.070        40
43.080        33
43.090        47
43.100        20
43.110        53
43.120        27
43.130        53
43.140        53
43.150        93
43.160        53
43.170        27
43.180        40
43.190        60
43.200        60
43.210        73
43.220        20
43.230        40
43.240        53
43.250        60
43.260        53
43.270        53
43.280        33
43.290        67
43.300        73
43.310        60
43.320        53
43.330        60
43.340        60
43.350        20
43.360        47
43.370        47
43.380        53
43.390        47
43.400        47
43.410        13
43.420        13
43.430        27
43.440        27
43.450        40
43.460        20
43.470        40
43.480        53
43.490        20
43.500        40
43.510        33
43.520        53
43.530        27
43.540        67
43.550        27
43.560        27
43.570        20
43.580        27
43.590        13
43.600        33
43.610        20
43.620        53
43.630        60
43.640        20
43.650        53
43.660        33
43.670        27
43.680        33
43.690        60
43.700        20
43.710        60
43.720        13
43.730        33
43.740        60
43.750        60
43.760        40
43.770        27
43.780        47
43.790        33
43.800        40
43.810        20
43.820        53
43.830        33
43.840        20
43.850        73
43.860        53
43.870         7
43.880        27
43.890        40
43.900        60
43.910        67
43.920        33
43.930        47
43.940        67
43.950        27
43.960        27
43.970        40
43.980        47
43.990        47
44.000        60
44.010        47
44.020        53
44.030        53
44.040        47
44.050        47
44.060        53
44.070        20
44.080        67
44.090        67
44.100        73
44.110        53
44.120        33
44.130        20
44.140        20
44.150        60
44.160        20
44.170        67
44.180        40
44.190        60
44.200        67
44.210        20
44.220        27
44.230        33
44.240        53
44.250        13
44.260        20
44.270        40
44.280        33
44.290        47
44.300        47
44.310        33
44.320        27
44.330        33
44.340        60
44.350        33
44.360        33
44.370        40
44.380        33
44.390        40
44.400        40
44.410        47
44.420        27
44.430        40
44.440        47
44.450        73
44.460        53
44.470        40
44.480        40
44.490        73
44.500        60
44.510        67
44.520        47
44.530        80
44.540        47
44.550        40
44.560        20
44.570        53
44.580        13
44.590        33
44.600        40
44.610        67
44.620        53
44.630        40
44.640        73
44.650        40
44.660        27
44.670        33
44.680        27
44.690        53
44.700        47
44.710        67
44.720        47
44.730        47
44.740        60
44.750        27
44.760        13
44.770        53
44.780        20
44.790        27
44.800        13
44.810        33
44.820        40
44.830        27
44.840        40
44.850        20
44.860        33
44.870        40
44.880        20
44.890        33
44.900        27
44.910        33
44.920        60
44.930        33
44.940        47
44.950        33
44.960        40
44.970        40
44.980        40
44.990        53
45.000        53
45.010        40
45.020        20
45.030        27
45.040        47
45.050         7
45.060        20
45.070        20
45.080        53
45.090        20
45.100        40
45.110        20
45.120        33
45.130        40
45.140        53
45.150        40
45.160        13
45.170        20
45.180        40
45.190        40
45.200        60
45.210        13
45.220        13
45.230        27
45.240        47
45.250        40
45.260        47
45.270        40
45.280        47
45.290        40
45.300        33
45.310        40
45.320        53
45.330        60
45.340        53
45.350        40
45.360        47
45.370        20
45.380        60
45.390        33
45.400        53
45.410        27
45.420        33
45.430        33
45.440        60
45.450        60
45.460        27
45.470        33
45.480        47
45.490        47
45.500        33
45.510        67
45.520        53
45.530        47
45.540        40
45.550        27
45.560        67
45.570        60
45.580        60
45.590        93
45.600        60
45.610        60
45.620        67
45.630        80
45.640        60
45.650        33
45.660        67
45.670        60
45.680        87
45.690        53
45.700        47
45.710        27
45.720        53
45.730        27
45.740        67
45.750        67
45.760        87
45.770        73
45.780       100
45.790        80
45.800        33
45.810        47
45.820        80
45.830       113
45.840       107
45.850       127
45.860       127
45.870       127
45.880        80
45.890        87
45.900        93
45.910       113
45.920        67
45.930        87
45.940       127
45.950        33
45.960       113
45.970       133
45.980        87
45.990        33
46.000        93
46.010       120
46.020        60
46.030       113
46.040        93
46.050       120
46.060        73
46.070        60
46.080        87
46.090        20
46.100       100
46.110        67
46.120        13
46.130        80
46.140        40
46.150        67
46.160        47
46.170        33
46.180       100
46.190        47
46.200        47
46.210        27
46.220        73
46.230        60
46.240       107
46.250        67
46.260        20
46.270        80
46.280        33
46.290         7
46.300        40
46.310        67
46.320        47
46.330        27
46.340        40
46.350        47
46.360        53
46.370        53
46.380        40
46.390        13
46.400        73
46.410        53
46.420        20
46.430        60
46.440        33
46.450        60
46.460        40
46.470        47
46.480        67
46.490        20
46.500        73
46.510        53
46.520        27
46.530        33
46.540         0
46.550        60
46.560        27
46.570        53
46.580        67
46.590        53
46.600        27
46.610        33
46.620        47
46.630        47
46.640        47
46.650        67
46.660        53
46.670        53
46.680        27
46.690        60
46.700        53
46.710        60
46.720        53
46.730        80
46.740        53
46.750        33
46.760        93
46.770        93
46.780       120
46.790       140
46.800        80
46.810       187
46.820        93
46.830        80
46.840        87
46.850        80
46.860        87
46.870       120
46.880        87
46.890        93
46.900        93
46.910        67
46.920        80
46.930       127
46.940        73
46.950        73
46.960       133
46.970       120
46.980       107
46.990        60
47.000        93
47.010       107
47.020       107
47.030       180
47.040       187
47.050       107
47.060       180
47.070       160
47.080       240
47.090       160
47.100       173
47.110       220
47.120       353
47.130       393
47.140       446
47.150       793
47.160       833
47.170      1339
47.180      1573
47.190      1833
47.200      2192
47.210      2046
47.220      2073
47.230      1766
47.240      1499
47.250      1313
47.260       940
47.270       480
47.280       466
47.290       407
47.300       240
47.310       260
47.320       267
47.330       193
47.340       167
47.350       173
47.360       133
47.370        67
47.380       120
47.390       153
47.400        80
47.410       107
47.420       127
47.430        93
47.440       120
47.450        80
47.460        67
47.470        47
47.480        80
47.490       120
47.500       120
47.510       100
47.520       120
47.530        87
47.540        40
47.550        67
47.560        67
47.570        73
47.580       100
47.590       140
47.600        80
47.610        47
47.620        73
47.630        80
47.640       100
47.650        53
47.660        47
47.670        60
47.680        53
47.690        47
47.700        67
47.710        93
47.720        67
47.730        40
47.740        60
47.750       107
47.760        53
47.770        67
47.780        33
47.790       107
47.800        60
47.810        47
47.820        73
47.830        93
47.840        40
47.850        60
47.860        27
47.870        53
47.880        40
47.890        20
47.900        33
47.910        47
47.920        60
47.930        87
47.940        67
47.950        67
47.960       100
47.970        53
47.980        67
47.990        73
48.000        20
48.010        40
48.020        67
48.030        47
48.040        93
48.050        33
48.060        73
48.070        40
48.080        33
48.090        40
48.100        40
48.110        47
48.120        67
48.130        60
48.140        47
48.150        33
48.160        60
48.170        60
48.180        53
48.190        40
48.200        67
48.210        33
48.220        27
48.230        40
48.240        40
48.250        60
48.260        73
48.270        67
48.280        33
48.290        53
48.300        60
48.310        47
48.320        40
48.330        60
48.340        27
48.350        33
48.360        60
48.370        60
48.380        67
48.390        60
48.400        47
48.410        20
48.420        47
48.430        27
48.440        93
48.450        33
48.460        40
48.470        80
48.480        27
48.490        53
48.500        47
48.510        53
48.520        27
48.530        20
48.540        47
48.550        53
48.560        53
48.570        47
48.580        27
48.590        40
48.600        40
48.610        53
48.620        60
48.630        47
48.640        60
48.650        60
48.660        33
48.670        20
48.680        47
48.690        47
48.700        47
48.710        67
48.720        40
48.730        27
48.740         7
48.750        20
48.760        40
48.770        33
48.780        47
48.790        53
48.800        27
48.810        40
48.820        53
48.830        60
48.840        73
48.850        47
48.860        53
48.870        47
48.880        40
48.890        33
48.900         7
48.910        47
48.920        20
48.930        47
48.940        40
48.950        67
48.960        20
48.970        40
48.980        53
48.990        53
49.000        47
49.010        33
49.020        67
49.030        40
49.040        47
49.050        60
49.060        27
49.070        80
49.080        47
49.090        33
49.100        27
49.110        33
49.120        20
49.130        67
49.140        33
49.150        47
49.160        33
49.170        20
49.180        60
49.190        27
49.200        60
49.210        53
49.220        33
49.230        33
49.240        20
49.250        27
49.260        40
49.270        40
49.280        20
49.290        33
49.300        27
49.310        33
49.320        53
49.330        47
49.340        60
49.350        33
49.360        27
49.370        33
49.380        33
49.390        47
49.400        33
49.410        27
49.420        27
49.430        60
49.440        33
49.450        53
49.460        53
49.470        53
49.480        40
49.490        60
49.500        33
49.510        33
49.520        33
49.530        33
49.540        47
49.550        20
49.560        53
49.570        33
49.580        60
49.590        40
49.600        47
49.610        33
49.620        73
49.630        33
49.640        60
49.650         7
49.660        27
49.670        20
49.680        40
49.690        47
49.700        53
49.710        47
49.720        20
49.730        60
49.740        33
49.750        33
49.760        27
49.770        47
49.780        47
49.790        53
49.800        60
49.810        27
49.820        33
49.830        53
49.840        47
49.850        33
49.860        40
49.870        67
49.880        27
49.890        27
49.900        20
49.910        47
49.920        33
49.930        27
49.940        27
49.950        40
49.960         7
49.970        27
49.980        27
49.990        33
50.000        47
50.010        47
50.020        20
50.030        33
50.040        40
50.050        27
50.060        20
50.070        73
50.080        33
50.090        40
50.100        33
50.110        20
50.120        60
50.130        47
50.140        73
50.150        33
50.160         7
50.170        53
50.180        20
50.190        53
50.200        47
50.210        47
50.220        33
50.230        20
50.240        20
50.250        67
50.260        53
50.270        33
50.280        33
50.290        53
50.300        27
50.310        40
50.320        33
50.330        27
50.340        33
50.350        53
50.360        40
50.370        53
50.380        40
50.390        33
50.400        27
50.410        27
50.420        20
50.430        33
50.440        53
50.450        60
50.460        47
50.470        47
50.480        33
50.490        47
50.500        33
50.510        27
50.520        67
50.530        47
50.540        40
50.550       107
50.560        87
50.570        93
50.580        27
50.590        60
50.600        47
50.610        87
50.620        80
50.630        93
50.640        73
50.650       147
50.660       187
50.670       247
50.680       407
50.690       300
50.700       420
50.710       380
50.720       540
50.730       460
50.740       513
50.750       526
50.760       513
50.770       513
50.780       493
50.790       526
50.800       553
50.810       473
50.820       586
50.830       606
50.840       433
50.850       586
50.860       493
50.870       480
50.880       486
50.890       480
50.900       660
50.910       646
50.920       526
50.930       620
50.940       566
50.950       513
50.960       546
50.970       573
50.980       580
50.990       513
51.000       526
51.010       526
51.020       566
51.030       473
51.040       520
51.050       486
51.060       673
51.070       580
51.080       620
51.090       606
51.100       646
51.110       626
51.120       693
51.130       493
51.140       546
51.150       706
51.160       593
51.170       500
51.180       700
51.190       513
51.200       620
51.210       480
51.220       486
51.230       566
51.240       626
51.250       546
51.260       686
51.270       500
51.280       566
51.290       660
51.300       533
51.310       560
51.320       540
51.330       546
51.340       486
51.350       540
51.360       520
51.370       620
51.380       580
51.390       660
51.400       420
51.410       493
51.420       586
51.430       653
51.440       513
51.450       586
51.460       566
51.470       573
51.480       593
51.490       640
51.500       633
51.510       546
51.520       540
51.530       606
51.540       653
51.550       593
51.560       660
51.570       480
51.580       593
51.590       633
51.600       606
51.610       640
51.620       593
51.630       573
51.640       573
51.650       526
51.660       606
51.670       620
51.680       586
51.690       580
51.700       526
51.710       566
51.720       713
51.730       606
51.740       580
51.750       666
51.760       606
51.770       626
51.780       553
51.790       666
51.800       706
51.810       666
51.820       586
51.830       600
51.840       660
51.850       613
51.860       726
51.870       766
51.880       793
51.890       586
51.900       553
51.910       820
51.920       780
51.930       700
51.940       733
51.950       726
51.960       866
51.970       800
51.980       773
51.990       733
52.000       760
52.010       786
52.020       760
52.030       800
52.040       700
52.050       880
52.060       900
52.070       913
52.080       840
52.090      1013
52.100       920
52.110       960
52.120      1020
52.130       946
52.140      1080
52.150      1013
52.160      1133
52.170      1126
52.180      1160
52.190      1453
52.200      1173
52.210      1279
52.220      1373
52.230      1526
52.240      1573
52.250      1473
52.260      1779
52.270      1999
52.280      2053
52.290      2486
52.300      2692
52.310      2992
52.320      3472
52.330      3765
52.340      4538
52.350      5338
52.360      6144
52.370      6724
52.380      7704
52.390      8543
52.400      8910
52.410      9709
52.420     10329
52.430     11182
52.440     12262
52.450     12815
52.460     13575
52.470     14001
52.480     15934
52.490     17426
52.500     20092
52.510     23211
52.520     29455
52.530     39511
52.540     57444
52.550     87152
52.560    126376
52.570    163914
52.580    190650
52.590    208930
52.600    217100
52.610    216293
52.620    206684
52.630    187079
52.640    149007
52.650    108916
52.660     78362
52.670     60403
52.680     56597
52.690     64801
52.700     81088
52.710    100760
52.720    118346
52.730    129215
52.740    134380
52.750    133027
52.760    123664
52.770    108550
52.780     82920
52.790     59276
52.800     39911
52.810     26609
52.820     18073
52.830     13621
52.840     11189
52.850      9183
52.860      7897
52.870      7150
52.880      6524
52.890      5738
52.900      4671
52.910      4078
52.920      3525
52.930      3272
52.940      2985
52.950      2672
52.960      2412
52.970      2272
52.980      2506
52.990      1899
53.000      1946
53.010      2039
53.020      1773
53.030      1673
53.040      1713
53.050      1446
53.060      1526
53.070      1240
53.080      1313
53.090      1379
53.100      1186
53.110      1306
53.120      1173
53.130      1226
53.140      1186
53.150      1006
53.160      1106
53.170       900
53.180      1073
53.190      1033
53.200       966
53.210       993
53.220      1046
53.230      1113
53.240       946
53.250       926
53.260       913
53.270       853
53.280      1066
53.290       926
53.300       780
53.310       840
53.320       920
53.330       820
53.340       793
53.350       860
53.360       780
53.370       753
53.380       820
53.390       873
53.400       813
53.410       740
53.420       786
53.430       893
53.440       593
53.450       660
53.460       673
53.470       780
53.480       700
53.490       633
53.500       620
53.510       720
53.520       666
53.530       626
53.540       626
53.550       673
53.560       586
53.570       706
53.580       640
53.590       540
53.600       606
53.610       726
53.620       640
53.630       766
53.640       660
53.650       626
53.660       486
53.670       566
53.680       653
53.690       546
53.700       540
53.710       473
53.720       780
53.730       606
53.740       566
53.750       586
53.760       506
53.770       606
53.780       413
53.790       486
53.800       546
53.810       540
53.820       480
53.830       573
53.840       486
53.850       673
53.860       453
53.870       586
53.880       520
53.890       513
53.900       460
53.910       540
53.920       500
53.930       420
53.940       453
53.950       433
53.960       533
53.970       460
53.980       413
53.990       486
54.000       466
54.010       593
54.020       466
54.030       440
54.040       486
54.050       460
54.060       480
54.070       426
54.080       493
54.090       540
54.100       513
54.110       473
54.120       387
54.130       460
54.140       420
54.150       460
54.160       460
54.170       353
54.180       560
54.190       420
54.200       546
54.210       440
54.220       393
54.230       440
54.240       387
54.250       433
54.260       413
54.270       500
54.280       360
54.290       400
54.300       373
54.310       300
54.320       327
54.330       407
54.340       433
54.350       407
54.360       426
54.370       426
54.380       407
54.390       407
54.400       393
54.410       407
54.420       440
54.430       373
54.440       287
54.450       387
54.460       500
54.470       367
54.480       353
54.490       373
54.500       480
54.510       440
54.520       473
54.530       353
54.540       333
54.550       407
54.560       426
54.570       500
54.580       320
54.590       340
54.600       287
54.610       400
54.620       380
54.630       426
54.640       327
54.650       367
54.660       240
54.670       453
54.680       307
54.690       253
54.700       367
54.710       307
54.720       293
54.730       380
54.740       373
54.750       380
54.760       407
54.770       333
54.780       333
54.790       387
54.800       413
54.810       460
54.820       273
54.830       273
54.840       333
54.850       353
54.860       360
54.870       347
54.880       373
54.890       287
54.900       347
54.910       347
54.920       393
54.930       307
54.940       320
54.950       280
54.960       473
54.970       413
54.980       313
54.990       367
55.000       393
55.010       320
55.020       280
55.030       280
55.040       413
55.050       353
55.060       327
55.070       426
55.080       233
55.090       360
55.100       313
55.110       387
55.120       353
55.130       293
55.140       247
55.150       387
55.160       313
55.170       353
55.180       273
55.190       267
55.200       373
55.210       313
55.220       353
55.230       367
55.240       313
55.250       307
55.260       253
55.270       307
55.280       373
55.290       387
55.300       293
55.310       307
55.320       380
55.330       333
55.340       327
55.350       320
55.360       267
55.370       340
55.380       327
55.390       287
55.400       320
55.410       340
55.420       380
55.430       287
55.440       367
55.450       293
55.460       380
55.470       360
55.480       407
55.490       327
55.500       347
55.510       360
55.520       240
55.530       300
55.540       260
55.550       347
55.560       273
55.570       287
55.580       227
55.590       220
55.600       353
55.610       260
55.620       293
55.630       300
55.640       273
55.650       333
55.660       313
55.670       287
55.680       360
55.690       287
55.700       313
55.710       313
55.720       340
55.730       400
55.740       320
55.750       327
55.760       253
55.770       207
55.780       313
55.790       187
55.800       293
55.810       313
55.820       253
55.830       347
55.840       240
55.850       300
55.860       307
55.870       347
55.880       347
55.890       280
55.900       187
55.910       233
55.920       287
55.930       293
55.940       313
55.950       300
55.960       293
55.970       207
55.980       280
55.990       240
56.000       327
56.010       247
56.020       273
56.030       333
56.040       327
56.050       267
56.060       267
56.070       293
56.080       327
56.090       193
56.100       213
56.110       267
56.120       307
56.130       253
56.140       180
56.150       273
56.160       273
56.170       240
56.180       360
56.190       373
56.200       333
56.210       260
56.220       347
56.230       273
56.240       253
56.250       307
56.260       320
56.270       293
56.280       260
56.290       293
56.300       353
56.310       253
56.320       327
56.330       340
56.340       273
56.350       233
56.360       233
56.370       220
56.380       253
56.390       253
56.400       253
56.410       207
56.420       273
56.430       227
56.440       240
56.450       280
56.460       293
56.470       340
56.480       280
56.490       253
56.500       300
56.510       267
56.520       300
56.530       340
56.540       260
56.550       280
56.560       273
56.570       233
56.580       233
56.590       220
56.600       247
56.610       200
56.620       273
56.630       193
56.640       320
56.650       307
56.660       253
56.670       227
56.680       313
56.690       240
56.700       320
56.710       233
56.720       273
56.730       313
56.740       220
56.750       280
56.760       240
56.770       393
56.780       260
56.790       220
56.800       213
56.810       307
56.820       267
56.830       220
56.840       260
56.850       273
56.860       280
56.870       307
56.880       240
56.890       353
56.900       260
56.910       333
56.920       267
56.930       220
56.940       307
56.950       313
56.960       267
56.970       340
56.980       360
56.990       367
57.000       233
57.010       213
57.020       327
57.030       287
57.040       333
57.050       320
57.060       353
57.070       333
57.080       413
57.090       287
57.100       267
57.110       320
57.120       360
57.130       353
57.140       347
57.150       260
57.160       300
57.170       360
57.180       360
57.190       240
57.200       360
57.210       327
57.220       233
57.230       273
57.240       320
57.250       420
57.260       267
57.270       273
57.280       273
57.290       273
57.300       287
57.310       207
57.320       267
57.330       293
57.340       313
57.350       253
57.360       313
57.370       260
57.380       240
57.390       213
57.400       200
57.410       213
57.420       280
57.430       267
57.440       320
57.450       253
57.460       293
57.470       247
57.480       273
57.490       300
57.500       247
57.510       167
57.520       233
57.530       180
57.540       200
57.550       207
57.560       213
57.570       273
57.580       253
57.590       167
57.600       273
57.610       240
57.620       200
57.630       220
57.640       280
57.650       227
57.660       253
57.670       253
57.680       200
57.690       247
57.700       233
57.710       273
57.720       240
57.730       233
57.740       213
57.750       193
57.760       213
57.770       240
57.780       227
57.790       193
57.800       247
57.810       233
57.820       220
57.830       247
57.840       193
57.850       227
57.860       173
57.870       247
57.880       193
57.890       180
57.900       267
57.910       213
57.920       193
57.930       213
57.940       240
57.950       227
57.960       233
57.970       233
57.980       147
57.990       207
58.000       213
58.010       200
58.020       227
58.030       153
58.040       233
58.050       187
58.060       233
58.070       253
58.080       160
58.090       220
58.100       227
58.110       213
58.120       193
58.130       267
58.140       213
58.150       213
58.160       220
58.170       180
58.180       167
58.190       220
58.200       227
58.210       213
58.220       187
58.230       193
58.240       180
58.250       193
58.260       187
58.270       227
58.280       267
58.290       160
58.300       193
58.310       193
58.320       193
58.330       193
58.340       167
58.350       227
58.360       167
58.370       167
58.380       140
58.390       227
58.400       287
58.410       213
58.420       227
58.430       113
58.440       193
58.450       240
58.460       213
58.470       207
58.480       160
58.490       240
58.500       227
58.510       180
58.520       247
58.530       187
58.540       280
58.550       207
58.560       180
58.570       220
58.580       147
58.590       180
58.600       233
58.610       227
58.620       220
58.630       160
58.640       113
58.650       140
58.660       187
58.670       233
58.680       253
58.690       193
58.700       147
58.710       147
58.720       213
58.730       293
58.740       167
58.750       153
58.760       113
58.770       167
58.780       187
58.790       193
58.800       233
58.810       167
58.820       173
58.830       260
58.840       220
58.850       213
58.860       240
58.870       147
58.880       233
58.890       187
58.900       167
58.910       233
58.920       253
58.930       153
58.940       220
58.950       213
58.960       147
58.970       220
58.980       153
58.990       227
59.000       153
59.010       173
59.020       220
59.030       200
59.040       160
59.050       207
59.060       233
59.070       220
59.080       193
59.090       160
59.100       167
59.110       200
59.120       147
59.130       147
59.140       167
59.150       147
59.160       173
59.170       180
59.180       193
59.190       213
59.200       160
59.210       180
59.220       193
59.230       193
59.240       133
59.250       120
59.260       153
59.270       180
59.280       200
59.290       133
59.300       207
59.310       173
59.320       173
59.330       167
59.340       153
59.350       180
59.360       180
59.370       260
59.380       153
59.390       220
59.400       160
59.410       153
59.420       213
59.430       280
59.440       213
59.450       167
59.460       207
59.470       233
59.480       193
59.490       180
59.500       187
59.510       147
59.520       167
59.530       173
59.540       167
59.550       173
59.560       153
59.570       153
59.580       160
59.590       220
59.600       160
59.610       120
59.620       200
59.630       160
59.640       193
59.650       160
59.660       253
59.670       227
59.680       173
59.690       227
59.700       140
59.710       240
59.720       220
59.730       180
59.740       193
59.750       193
59.760       193
59.770       193
59.780       167
59.790       180
59.800       200
59.810       213
59.820       120
59.830       187
59.840       160
59.850       167
59.860       127
59.870       147
59.880       153
59.890       120
59.900       147
59.910       173
59.920       220
59.930       233
59.940       200
59.950       120
59.960       173
59.970       187
59.980       133
59.990       160
60.000       160
