20.000         0
20.010         0
20.020         0
20.030        13
20.040        27
20.050       107
20.060        27
20.070        93
20.080        40
20.090        53
20.100        13
20.110        27
20.120        53
20.130        13
20.140        27
20.150        53
20.160        40
20.170        27
20.180        67
20.190        53
20.200        27
20.210        67
20.220        67
20.230        67
20.240       107
20.250        40
20.260        13
20.270        40
20.280        53
20.290        67
20.300        53
20.310        13
20.320        27
20.330        13
20.340        27
20.350        53
20.360         0
20.370        80
20.380        13
20.390        13
20.400        67
20.410        27
20.420        40
20.430        27
20.440        53
20.450        27
20.460        13
20.470        53
20.480        27
20.490        40
20.500        40
20.510        27
20.520        27
20.530        67
20.540        40
20.550        80
20.560        27
20.570        13
20.580        67
20.590        27
20.600        67
20.610        13
20.620         0
20.630        27
20.640        40
20.650        53
20.660        40
20.670        40
20.680        27
20.690        27
20.700        13
20.710        13
20.720         0
20.730         0
20.740        40
20.750        40
20.760        53
20.770        13
20.780        27
20.790        27
20.800        40
20.810        27
20.820        27
20.830        40
20.840        27
20.850        13
20.860        27
20.870        27
20.880        27
20.890        53
20.900        27
20.910        40
20.920        27
20.930         0
20.940        53
20.950        13
20.960        27
20.970        80
20.980        13
20.990        27
21.000        40
21.010        27
21.020        13
21.030        27
21.040        93
21.050        53
21.060        13
21.070        27
21.080        67
21.090        67
21.100        40
21.110        80
21.120        67
21.130        13
21.140         0
21.150        27
21.160        27
21.170        13
21.180        27
21.190        53
21.200        27
21.210        80
21.220        27
21.230        53
21.240        13
21.250        53
21.260       107
21.270        40
21.280        40
21.290        13
21.300        27
21.310         0
21.320        13
21.330        67
21.340        27
21.350        53
21.360        13
21.370        13
21.380        80
21.390        53
21.400        40
21.410        13
21.420        80
21.430        93
21.440        53
21.450        40
21.460        40
21.470        40
21.480        27
21.490        53
21.500        27
21.510        27
21.520        13
21.530        27
21.540        13
21.550        80
21.560        53
21.570        27
21.580        53
21.590        40
21.600        40
21.610        67
21.620        27
21.630        40
21.640        67
21.650        13
21.660        53
21.670         0
21.680        40
21.690        27
21.700        40
21.710        27
21.720        13
21.730        27
21.740        53
21.750        40
21.760        13
21.770        27
21.780        80
21.790        93
21.800        40
21.810        67
21.820        27
21.830        80
21.840        13
21.850        53
21.860        53
21.870        27
21.880        40
21.890        27
21.900        40
21.910        53
21.920        40
21.930        53
21.940        80
21.950        40
21.960        13
21.970        67
21.980        40
21.990        13
22.000        13
22.010        67
22.020        67
22.030        27
22.040        40
22.050        13
22.060        13
22.070        40
22.080        27
22.090        40
22.100        13
22.110        53
22.120        27
22.130        80
22.140        13
22.150        27
22.160        67
22.170        53
22.180        80
22.190        27
22.200        53
22.210        93
22.220        53
22.230        40
22.240        53
22.250         0
22.260       133
22.270       107
22.280        93
22.290        67
22.300        67
22.310        53
22.320        80
22.330        93
22.340        93
22.350        40
22.360       133
22.370       160
22.380       147
22.390       160
22.400       133
22.410       267
22.420       227
22.430       333
22.440       173
22.450       213
22.460       267
22.470       320
22.480       360
22.490       360
22.500       213
22.510       227
22.520       347
22.530       320
22.540       213
22.550       213
22.560       147
22.570       147
22.580       133
22.590       187
22.600        67
22.610        67
22.620       120
22.630       107
22.640        53
22.650        40
22.660        80
22.670        80
22.680        67
22.690        40
22.700        67
22.710        13
22.720        80
22.730        53
22.740        40
22.750        80
22.760        53
22.770        13
22.780        13
22.790        67
22.800        13
22.810        53
22.820        40
22.830        27
22.840        80
22.850        13
22.860        13
22.870        27
22.880         0
22.890        40
22.900        27
22.910        80
22.920        53
22.930        27
22.940        27
22.950        80
22.960        27
22.970        53
22.980         0
22.990        53
23.000        13
23.010        67
23.020        27
23.030        40
23.040        13
23.050        53
23.060        40
23.070        13
23.080        53
23.090        13
23.100        40
23.110        53
23.120         0
23.130        27
23.140         0
23.150        13
23.160        40
23.170        40
23.180        93
23.190        53
23.200        27
23.210         0
23.220        27
23.230        40
23.240        80
23.250        53
23.260        53
23.270        13
23.280         0
23.290        40
23.300        67
23.310        67
23.320       107
23.330        53
23.340        27
23.350         0
23.360        67
23.370        40
23.380        13
23.390        27
23.400        40
23.410        40
23.420        40
23.430        53
23.440        53
23.450        40
23.460         0
23.470        40
23.480        27
23.490        80
23.500         0
23.510        13
23.520        27
23.530         0
23.540        80
23.550        27
23.560         0
23.570        27
23.580        67
23.590        13
23.600         0
23.610        40
23.620        53
23.630        40
23.640        40
23.650        40
23.660        27
23.670        13
23.680        40
23.690        13
23.700        80
23.710        40
23.720        40
23.730        27
23.740        27
23.750        27
23.760        53
23.770        53
23.780        40
23.790        53
23.800        13
23.810        27
23.820        40
23.830        13
23.840        13
23.850        13
23.860        53
23.870        80
23.880        13
23.890        27
23.900        53
23.910        13
23.920        27
23.930        27
23.940       107
23.950        67
23.960        13
23.970        53
23.980        27
23.990         0
24.000        27
24.010        53
24.020        13
24.030        80
24.040         0
24.050        40
24.060        40
24.070        13
24.080        27
24.090        27
24.100        27
24.110        40
24.120        13
24.130        53
24.140        13
24.150        27
24.160        40
24.170        40
24.180        27
24.190        40
24.200         0
24.210        27
24.220        40
24.230        40
24.240        27
24.250        13
24.260        27
24.270        27
24.280        13
24.290        40
24.300        80
24.310        27
24.320        13
24.330       120
24.340        13
24.350        27
24.360        27
24.370        40
24.380        27
24.390        13
24.400        13
24.410        27
24.420        40
24.430        27
24.440        13
24.450         0
24.460        53
24.470        67
24.480        13
24.490        27
24.500        13
24.510        53
24.520         0
24.530        53
24.540        27
24.550        53
24.560        40
24.570        27
24.580        40
24.590        40
24.600        53
24.610        40
24.620        27
24.630        27
24.640        40
24.650        27
24.660        27
24.670        13
24.680        40
24.690         0
24.700        13
24.710        40
24.720        40
24.730        27
24.740        27
24.750        40
24.760        27
24.770        40
24.780        27
24.790        67
24.800        53
24.810        53
24.820        13
24.830        27
24.840        40
24.850        27
24.860        27
24.870        13
24.880        53
24.890        27
24.900        40
24.910        67
24.920        67
24.930        80
24.940        53
24.950        40
24.960        67
24.970        80
24.980        27
24.990        13
25.000        53
25.010        27
25.020        40
25.030        13
25.040        27
25.050         0
25.060        13
25.070        13
25.080        13
25.090        40
25.100        40
25.110        53
25.120        53
25.130         0
25.140        27
25.150        40
25.160        27
25.170        13
25.180        13
25.190        27
25.200        13
25.210        53
25.220        40
25.230        40
25.240        53
25.250        27
25.260         0
25.270        27
25.280        13
25.290        27
25.300        67
25.310        27
25.320        27
25.330        53
25.340        13
25.350        13
25.360        40
25.370        27
25.380        53
25.390        40
25.400        80
25.410        13
25.420        53
25.430        53
25.440        27
25.450        53
25.460        27
25.470        13
25.480        27
25.490         0
25.500        40
25.510        27
25.520        27
25.530        53
25.540        40
25.550        40
25.560         0
25.570        27
25.580        27
25.590        80
25.600        53
25.610        53
25.620        80
25.630        53
25.640        53
25.650        27
25.660        53
25.670        80
25.680        13
25.690        53
25.700        27
25.710        13
25.720        40
25.730        27
25.740        40
25.750        13
25.760        27
25.770        67
25.780        40
25.790        40
25.800        67
25.810        13
25.820        40
25.830        27
25.840        27
25.850         0
25.860        27
25.870        53
25.880        13
25.890        13
25.900        40
25.910        40
25.920        13
25.930        40
25.940        53
25.950        93
25.960        40
25.970        53
25.980        67
25.990        40
26.000        40
26.010        27
26.020        40
26.030        13
26.040        13
26.050        53
26.060        80
26.070        40
26.080         0
26.090         0
26.100        40
26.110         0
26.120        13
26.130        40
26.140        53
26.150        40
26.160         0
26.170        27
26.180        40
26.190        27
26.200        27
26.210        13
26.220        67
26.230        40
26.240        13
26.250        40
26.260        27
26.270        27
26.280        13
26.290        13
26.300        27
26.310        13
26.320        53
26.330         0
26.340        53
26.350        53
26.360        27
26.370        13
26.380        13
26.390        53
26.400        27
26.410        27
26.420        27
26.430        67
26.440        27
26.450        40
26.460        27
26.470        13
26.480        13
26.490        40
26.500        67
26.510        27
26.520        67
26.530        13
26.540        40
26.550        13
26.560        40
26.570        40
26.580        13
26.590        40
26.600        53
26.610        53
26.620        13
26.630         0
26.640        67
26.650        27
26.660        27
26.670        27
26.680        40
26.690        40
26.700        13
26.710        40
26.720        27
26.730        13
26.740        53
26.750        13
26.760        13
26.770         0
26.780        13
26.790        80
26.800        27
26.810        67
26.820        67
26.830        13
26.840         0
26.850        27
26.860         0
26.870        53
26.880        40
26.890        13
26.900        40
26.910         0
26.920        13
26.930        53
26.940         0
26.950        40
26.960        27
26.970        40
26.980        27
26.990        27
27.000        27
27.010        40
27.020        27
27.030        27
27.040        13
27.050        40
27.060        27
27.070        27
27.080        13
27.090        40
27.100        27
27.110        13
27.120         0
27.130        40
27.140        27
27.150        27
27.160         0
27.170        27
27.180        27
27.190         0
27.200        27
27.210        27
27.220        13
27.230        13
27.240        13
27.250        40
27.260        27
27.270         0
27.280        13
27.290        40
27.300        27
27.310        53
27.320        40
27.330        27
27.340         0
27.350         0
27.360         0
27.370        53
27.380        40
27.390        27
27.400        40
27.410        27
27.420        67
27.430        40
27.440        67
27.450        27
27.460        27
27.470        13
27.480        53
27.490        53
27.500        40
27.510        40
27.520        40
27.530        27
27.540        53
27.550        40
27.560        13
27.570        13
27.580        27
27.590        27
27.600        53
27.610        53
27.620        40
27.630        27
27.640        40
27.650        40
27.660        27
27.670        13
27.680         0
27.690        27
27.700        27
27.710        27
27.720         0
27.730        27
27.740        13
27.750        53
27.760        40
27.770        67
27.780        13
27.790        27
27.800         0
27.810        53
27.820        13
27.830        27
27.840        27
27.850        27
27.860        40
27.870         0
27.880        40
27.890        13
27.900        13
27.910        13
27.920        67
27.930        53
27.940        40
27.950         0
27.960        40
27.970        40
27.980        13
27.990        13
28.000        27
28.010        53
28.020        40
28.030        40
28.040        40
28.050        27
28.060        13
28.070         0
28.080         0
28.090        13
28.100        13
28.110         0
28.120        13
28.130        27
28.140        27
28.150        67
28.160        80
28.170        13
28.180        13
28.190        40
28.200        27
28.210        27
28.220        27
28.230        13
28.240        13
28.250         0
28.260        13
28.270        27
28.280        13
28.290         0
28.300        27
28.310        13
28.320        13
28.330        13
28.340        27
28.350        13
28.360        13
28.370        40
28.380        27
28.390        27
28.400        13
28.410        27
28.420        53
28.430        13
28.440        40
28.450        53
28.460         0
28.470        40
28.480        13
28.490        27
28.500        27
28.510        27
28.520        27
28.530        27
28.540        27
28.550        40
28.560        40
28.570         0
28.580        40
28.590        40
28.600        40
28.610         0
28.620        27
28.630        27
28.640        13
28.650        80
28.660        40
28.670        40
28.680        27
28.690        67
28.700        13
28.710        27
28.720        27
28.730        13
28.740        53
28.750        27
28.760        40
28.770        27
28.780        40
28.790        13
28.800        53
28.810        13
28.820         0
28.830        40
28.840        27
28.850        40
28.860        40
28.870        67
28.880        40
28.890         0
28.900        40
28.910        27
28.920        27
28.930        40
28.940        27
28.950        13
28.960        27
28.970        40
28.980        27
28.990        13
29.000         0
29.010        40
29.020        40
29.030        13
29.040        40
29.050        40
29.060        27
29.070        40
29.080         0
29.090        40
29.100        13
29.110         0
29.120        13
29.130        27
29.140        67
29.150        40
29.160        27
29.170        40
29.180         0
29.190        93
29.200        27
29.210        40
29.220        40
29.230        13
29.240         0
29.250        40
29.260        27
29.270        53
29.280        53
29.290        40
29.300        40
29.310        40
29.320         0
29.330        27
29.340        13
29.350        13
29.360        13
29.370        40
29.380        13
29.390        40
29.400         0
29.410        13
29.420        13
29.430        27
29.440        40
29.450        40
29.460        27
29.470        40
29.480        40
29.490        13
29.500        40
29.510        13
29.520        40
29.530        53
29.540         0
29.550        27
29.560        27
29.570        27
29.580        27
29.590        27
29.600        13
29.610        13
29.620        40
29.630        40
29.640        13
29.650        13
29.660        13
29.670        40
29.680        27
29.690        13
29.700         0
29.710         0
29.720        13
29.730        67
29.740        13
29.750        40
29.760        40
29.770        53
29.780        40
29.790        27
29.800        53
29.810        40
29.820        53
29.830        13
29.840         0
29.850        13
29.860        13
29.870        40
29.880        27
29.890        27
29.900        53
29.910        13
29.920         0
29.930        27
29.940        27
29.950        13
29.960        40
29.970        27
29.980         0
29.990        40
30.000        13
30.010        27
30.020        13
30.030        13
30.040         0
30.050        40
30.060        40
30.070        27
30.080        40
30.090        13
30.100        40
30.110        27
30.120        40
30.130        27
30.140        13
30.150        13
30.160        40
30.170        67
30.180        13
30.190         0
30.200        13
30.210        27
30.220         0
30.230        13
30.240        27
30.250         0
30.260         0
30.270        13
30.280        27
30.290        27
30.300        40
30.310        13
30.320        53
30.330        27
30.340        53
30.350        40
30.360        27
30.370        27
30.380        27
30.390         0
30.400        13
30.410         0
30.420        13
30.430        27
30.440        13
30.450        53
30.460        13
30.470        40
30.480        13
30.490        67
30.500        40
30.510        27
30.520        13
30.530         0
30.540        40
30.550        27
30.560        13
30.570        27
30.580        13
30.590        40
30.600        27
30.610        27
30.620        40
30.630        27
30.640        27
30.650        27
30.660        13
30.670        40
30.680        27
30.690         0
30.700        40
30.710         0
30.720        40
30.730        53
30.740        40
30.750        27
30.760        40
30.770        53
30.780        13
30.790        40
30.800        13
30.810        27
30.820        27
30.830        13
30.840        13
30.850        13
30.860        40
30.870        40
30.880        13
30.890        27
30.900        53
30.910        40
30.920         0
30.930         0
30.940        13
30.950         0
30.960        53
30.970        13
30.980        40
30.990        13
31.000        13
31.010         0
31.020         0
31.030         0
31.040        27
31.050        40
31.060        40
31.070        13
31.080        13
31.090        13
31.100        27
31.110        27
31.120        27
31.130        40
31.140        13
31.150        40
31.160        13
31.170        27
31.180         0
31.190        40
31.200         0
31.210         0
31.220        27
31.230        53
31.240        13
31.250        13
31.260        13
31.270        27
31.280        13
31.290        13
31.300        40
31.310        53
31.320        13
31.330        13
31.340        40
31.350        40
31.360        27
31.370        40
31.380        27
31.390         0
31.400        67
31.410        53
31.420        13
31.430         0
31.440        40
31.450        27
31.460        53
31.470        13
31.480        40
31.490        27
31.500         0
31.510        13
31.520        27
31.530        27
31.540        93
31.550         0
31.560        13
31.570        13
31.580        67
31.590        40
31.600        80
31.610        27
31.620        67
31.630        40
31.640        40
31.650        13
31.660       107
31.670        13
31.680        40
31.690        53
31.700        40
31.710        53
31.720        27
31.730        53
31.740        53
31.750        40
31.760        93
31.770        93
31.780        53
31.790       120
31.800        80
31.810       107
31.820        80
31.830       107
31.840       160
31.850       147
31.860       200
31.870       173
31.880       160
31.890       160
31.900       147
31.910       133
31.920       120
31.930       200
31.940       133
31.950       307
31.960       307
31.970       267
31.980       107
31.990       240
32.000       200
32.010       147
32.020       160
32.030       227
32.040        93
32.050       133
32.060       147
32.070        93
32.080       120
32.090       147
32.100       147
32.110        40
32.120       120
32.130        67
32.140        93
32.150        40
32.160       147
32.170        80
32.180        53
32.190         0
32.200        67
32.210        40
32.220        67
32.230         0
32.240        13
32.250        53
32.260        53
32.270        53
32.280        40
32.290        27
32.300        53
32.310        67
32.320        53
32.330        27
32.340        27
32.350        13
32.360        40
32.370         0
32.380        27
32.390         0
32.400        27
32.410        13
32.420         0
32.430        27
32.440        40
32.450        13
32.460        40
32.470        13
32.480        13
32.490        40
32.500        27
32.510         0
32.520        27
32.530        40
32.540        27
32.550        27
32.560        40
32.570         0
32.580        53
32.590        67
32.600        53
32.610        27
32.620        27
32.630        40
32.640        40
32.650        40
32.660        13
32.670        13
32.680         0
32.690         0
32.700        53
32.710        27
32.720        13
32.730        80
32.740        27
32.750        27
32.760        53
32.770        67
32.780        27
32.790        13
32.800        27
32.810        40
32.820        13
32.830        27
32.840        13
32.850        27
32.860        27
32.870        40
32.880        40
32.890        27
32.900        53
32.910        40
32.920        40
32.930        27
32.940        13
32.950        53
32.960        13
32.970         0
32.980        27
32.990        13
33.000        13
33.010         0
33.020        27
33.030         0
33.040        40
33.050         0
33.060        27
33.070        13
33.080        27
33.090        13
33.100        40
33.110        40
33.120         0
33.130        27
33.140        13
33.150        40
33.160        27
33.170        13
33.180        13
33.190         0
33.200        27
33.210        13
33.220         0
33.230        27
33.240        27
33.250        53
33.260        13
33.270        53
33.280        67
33.290        13
33.300        13
33.310        27
33.320        27
33.330        27
33.340         0
33.350        67
33.360         0
33.370        27
33.380        13
33.390        27
33.400        27
33.410        13
33.420        13
33.430        13
33.440        40
33.450        67
33.460        27
33.470        27
33.480        27
33.490        27
33.500        27
33.510        13
33.520        27
33.530        27
33.540         0
33.550        13
33.560        13
33.570         0
33.580        53
33.590         0
33.600        27
33.610        53
33.620        27
33.630         0
33.640        13
33.650        13
33.660         0
33.670         0
33.680        27
33.690         0
33.700        27
33.710        53
33.720         0
33.730        13
33.740        13
33.750        27
33.760        13
33.770        27
33.780        27
33.790        27
33.800        13
33.810        27
33.820        13
33.830        27
33.840         0
33.850        27
33.860        27
33.870        13
33.880        27
33.890         0
33.900        53
33.910        13
33.920        27
33.930         0
33.940         0
33.950        53
33.960        93
33.970        27
33.980        13
33.990         0
34.000        13
34.010        13
34.020        13
34.030        40
34.040        53
34.050        13
34.060        27
34.070        40
34.080        53
34.090        13
34.100        27
34.110         0
34.120        40
34.130        53
34.140        67
34.150         0
34.160        27
34.170        53
34.180        13
34.190        27
34.200         0
34.210        27
34.220         0
34.230        13
34.240        27
34.250        53
34.260         0
34.270         0
34.280        27
34.290        27
34.300        53
34.310        40
34.320        40
34.330        27
34.340        27
34.350         0
34.360        13
34.370        40
34.380        13
34.390        27
34.400        53
34.410         0
34.420        13
34.430        27
34.440        93
34.450        27
34.460         0
34.470        27
34.480        40
34.490        40
34.500        80
34.510        13
34.520        53
34.530        53
34.540        40
34.550        40
34.560         0
34.570         0
34.580        13
34.590        40
34.600        13
34.610         0
34.620        53
34.630        27
34.640        27
34.650        40
34.660        27
34.670        27
34.680        13
34.690        40
34.700        13
34.710        13
34.720        40
34.730        40
34.740        53
34.750        27
34.760         0
34.770        27
34.780        13
34.790        53
34.800         0
34.810         0
34.820        27
34.830        27
34.840        13
34.850        53
34.860        40
34.870        13
34.880        27
34.890         0
34.900        13
34.910        27
34.920         0
34.930        27
34.940        40
34.950        27
34.960        27
34.970        40
34.980         0
34.990        13
35.000        93
35.010        27
35.020        67
35.030        67
35.040        27
35.050        13
35.060        13
35.070        53
35.080        93
35.090        53
35.100       107
35.110        67
35.120       280
35.130       160
35.140       280
35.150       267
35.160       280
35.170       560
35.180       387
35.190       506
35.200       600
35.210       387
35.220       293
35.230       373
35.240       333
35.250       280
35.260       253
35.270       280
35.280       307
35.290       173
35.300       213
35.310       120
35.320       160
35.330        27
35.340        27
35.350        40
35.360        40
35.370        13
35.380        40
35.390        27
35.400        67
35.410        27
35.420        13
35.430         0
35.440        27
35.450        13
35.460        27
35.470        13
35.480        53
35.490        27
35.500        13
35.510        53
35.520        40
35.530        13
35.540        13
35.550        40
35.560        13
35.570         0
35.580         0
35.590        13
35.600        27
35.610        13
35.620        27
35.630        27
35.640        13
35.650        13
35.660        13
35.670        13
35.680        13
35.690        40
35.700        13
35.710        27
35.720         0
35.730        13
35.740        53
35.750        13
35.760        13
35.770        13
35.780         0
35.790         0
35.800         0
35.810        53
35.820        27
35.830        13
35.840        67
35.850        27
35.860        13
35.870        13
35.880        67
35.890        27
35.900        13
35.910         0
35.920        27
35.930        27
35.940        13
35.950        13
35.960        27
35.970         0
35.980         0
35.990         0
36.000        13
36.010        13
36.020        27
36.030        13
36.040        40
36.050        40
36.060        13
36.070        27
36.080        27
36.090         0
36.100        27
36.110        13
36.120        13
36.130        13
36.140        27
36.150        13
36.160        13
36.170        53
36.180        13
36.190        13
36.200        13
36.210        13
36.220        53
36.230        13
36.240        13
36.250        13
36.260        13
36.270        53
36.280        13
36.290        40
36.300         0
36.310        40
36.320        13
36.330        40
36.340        27
36.350        27
36.360        27
36.370        67
36.380         0
36.390        27
36.400        27
36.410        40
36.420        27
36.430        13
36.440        27
36.450        27
36.460        53
36.470        13
36.480        40
36.490        40
36.500        13
36.510         0
36.520         0
36.530        13
36.540        13
36.550         0
36.560        27
36.570        13
36.580        40
36.590         0
36.600         0
36.610        13
36.620         0
36.630         0
36.640        13
36.650        13
36.660        27
36.670        13
36.680         0
36.690        13
36.700        13
36.710        13
36.720        67
36.730        13
36.740         0
36.750         0
36.760        27
36.770        27
36.780        27
36.790        27
36.800        13
36.810        13
36.820        13
36.830         0
36.840         0
36.850         0
36.860        27
36.870        40
36.880        27
36.890        27
36.900        27
36.910        13
36.920        40
36.930        40
36.940        27
36.950        27
36.960        13
36.970        40
36.980        13
36.990       107
37.000        13
37.010        40
37.020        40
37.030        40
37.040        53
37.050        40
37.060        27
37.070        27
37.080        13
37.090        40
37.100        40
37.110         0
37.120        13
37.130         0
37.140        27
37.150         0
37.160        13
37.170        13
37.180         0
37.190        13
37.200         0
37.210        27
37.220         0
37.230        13
37.240         0
37.250         0
37.260        13
37.270        27
37.280        40
37.290        27
37.300        13
37.310        13
37.320         0
37.330         0
37.340         0
37.350        13
37.360         0
37.370        13
37.380        13
37.390        13
37.400        13
37.410        27
37.420        13
37.430         0
37.440        13
37.450        67
37.460        40
37.470        53
37.480        27
37.490        40
37.500        27
37.510        40
37.520        27
37.530        27
37.540        13
37.550        27
37.560        40
37.570         0
37.580        53
37.590        40
37.600        13
37.610        40
37.620         0
37.630        27
37.640         0
37.650        27
37.660        27
37.670         0
37.680        13
37.690         0
37.700        13
37.710        27
37.720        13
37.730        40
37.740        40
37.750        27
37.760        27
37.770        13
37.780         0
37.790         0
37.800        93
37.810        27
37.820        13
37.830        40
37.840        53
37.850        40
37.860        40
37.870        13
37.880        27
37.890        13
37.900         0
37.910        13
37.920        40
37.930         0
37.940        27
37.950         0
37.960        27
37.970        13
37.980        27
37.990         0
38.000        13
38.010        13
38.020        27
38.030         0
38.040        27
38.050        27
38.060        27
38.070        13
38.080        27
38.090        40
38.100        40
38.110        13
38.120        13
38.130         0
38.140         0
38.150        27
38.160        13
38.170        13
38.180        27
38.190        40
38.200        40
38.210        27
38.220        67
38.230        40
38.240        13
38.250        27
38.260        13
38.270        80
38.280        27
38.290        13
38.300        27
38.310        40
38.320        27
38.330        27
38.340        40
38.350        27
38.360        53
38.370         0
38.380        13
38.390        27
38.400        53
38.410        13
38.420        13
38.430        27
38.440         0
38.450         0
38.460        27
38.470        27
38.480        27
38.490        67
38.500        13
38.510         0
38.520        40
38.530        27
38.540        40
38.550        27
38.560        13
38.570         0
38.580        13
38.590        40
38.600         0
38.610        13
38.620        27
38.630         0
38.640        27
38.650        13
38.660        13
38.670         0
38.680        13
38.690        13
38.700        13
38.710        27
38.720        27
38.730        27
38.740         0
38.750        40
38.760        27
38.770        40
38.780        53
38.790         0
38.800        13
38.810        13
38.820        27
38.830        27
38.840        40
38.850        27
38.860        13
38.870        27
38.880        13
38.890        53
38.900        53
38.910        53
38.920        40
38.930        40
38.940         0
38.950        13
38.960        13
38.970        53
38.980        40
38.990        27
39.000        13
39.010         0
39.020        40
39.030        27
39.040        13
39.050        13
39.060        27
39.070         0
39.080         0
39.090         0
39.100        13
39.110         0
39.120        27
39.130        13
39.140        13
39.150        27
39.160        27
39.170         0
39.180        27
39.190        27
39.200         0
39.210        13
39.220        13
39.230        27
39.240         0
39.250         0
39.260        40
39.270        40
39.280        40
39.290        27
39.300        67
39.310        13
39.320        27
39.330        40
39.340        53
39.350        27
39.360        13
39.370        53
39.380        53
39.390        40
39.400        27
39.410        40
39.420        67
39.430        80
39.440        93
39.450        67
39.460       147
39.470        93
39.480        93
39.490        93
39.500        93
39.510        27
39.520       187
39.530       200
39.540       133
39.550        80
39.560       120
39.570        93
39.580       120
39.590       120
39.600        80
39.610       107
39.620        13
39.630        27
39.640        67
39.650        67
39.660        80
39.670       107
39.680        93
39.690        27
39.700        93
39.710        53
39.720        27
39.730        67
39.740        13
39.750        40
39.760        13
39.770        27
39.780        13
39.790        27
39.800        27
39.810        13
39.820         0
39.830        13
39.840        53
39.850        27
39.860        27
39.870        27
39.880        27
39.890        13
39.900         0
39.910        40
39.920         0
39.930        40
39.940         0
39.950        13
39.960        27
39.970        27
39.980        27
39.990        13
40.000        13
40.010         0
40.020         0
40.030        13
40.040        13
40.050         0
40.060        53
40.070        13
40.080        13
40.090        27
40.100        40
40.110        53
40.120        13
40.130        27
40.140        13
40.150        27
40.160         0
40.170        13
40.180        13
40.190        13
40.200        13
40.210        13
40.220        40
40.230        40
40.240        13
40.250         0
40.260        13
40.270        13
40.280        27
40.290        13
40.300         0
40.310        27
40.320        13
40.330        40
40.340         0
40.350        13
40.360        27
40.370        27
40.380        13
40.390        27
40.400         0
40.410        13
40.420         0
40.430         0
40.440         0
40.450        13
40.460        27
40.470         0
40.480        27
40.490        53
40.500        13
40.510        13
40.520         0
40.530        27
40.540        67
40.550         0
40.560        13
40.570        13
40.580        53
40.590        13
40.600        13
40.610        40
40.620        27
40.630        27
40.640         0
40.650        13
40.660        67
40.670        13
40.680        40
40.690        27
40.700        13
40.710        53
40.720         0
40.730        40
40.740        27
40.750        13
40.760         0
40.770        27
40.780        13
40.790         0
40.800        13
40.810        13
40.820        27
40.830         0
40.840        40
40.850        53
40.860        53
40.870        13
40.880        13
40.890        13
40.900        40
40.910        53
40.920        27
40.930         0
40.940        27
40.950         0
40.960        27
40.970        13
40.980        13
40.990         0
41.000        27
41.010        13
41.020         0
41.030        27
41.040        27
41.050        13
41.060        13
41.070        13
41.080        40
41.090         0
41.100         0
41.110        67
41.120         0
41.130        13
41.140        13
41.150         0
41.160        13
41.170        13
41.180        40
41.190        40
41.200        27
41.210        13
41.220         0
41.230        40
41.240        53
41.250        53
41.260        27
41.270        13
41.280         0
41.290        13
41.300         0
41.310         0
41.320        13
41.330         0
41.340         0
41.350        53
41.360        27
41.370         0
41.380        13
41.390        13
41.400         0
41.410        27
41.420        13
41.430         0
41.440         0
41.450        27
41.460         0
41.470        53
41.480        27
41.490        27
41.500        40
41.510        13
41.520        13
41.530        53
41.540        27
41.550        40
41.560        13
41.570        40
41.580         0
41.590        67
41.600        27
41.610        40
41.620        40
41.630        13
41.640        53
41.650        67
41.660        53
41.670       120
41.680        67
41.690        80
41.700        67
41.710       147
41.720        93
41.730        93
41.740        80
41.750       107
41.760        80
41.770        93
41.780        53
41.790        67
41.800        53
41.810        80
41.820        67
41.830        53
41.840        13
41.850        27
41.860        67
41.870        67
41.880        13
41.890        40
41.900        27
41.910        13
41.920        27
41.930        27
41.940        13
41.950        40
41.960        13
41.970        13
41.980        40
41.990        27
42.000        27
42.010        27
42.020        53
42.030        27
42.040        53
42.050         0
42.060        13
42.070        13
42.080        13
42.090        13
42.100        40
42.110        40
42.120        27
42.130        13
42.140        40
42.150        27
42.160        13
42.170        13
42.180        13
42.190         0
42.200        27
42.210        27
42.220        40
42.230        13
42.240        27
42.250        13
42.260        27
42.270        27
42.280         0
42.290        13
42.300        40
42.310        13
42.320        27
42.330         0
42.340        40
42.350         0
42.360         0
42.370        27
42.380        67
42.390        40
42.400        40
42.410        27
42.420         0
42.430        27
42.440         0
42.450        40
42.460        27
42.470         0
42.480        27
42.490        13
42.500        13
42.510        13
42.520        13
42.530        27
42.540         0
42.550        13
42.560        13
42.570        40
42.580        27
42.590        13
42.600        13
42.610        27
42.620        27
42.630        27
42.640         0
42.650        13
42.660        40
42.670         0
42.680        53
42.690         0
42.700        40
42.710        13
42.720         0
42.730        40
42.740        27
42.750        40
42.760        13
42.770        27
42.780         0
42.790        13
42.800        40
42.810        27
42.820        40
42.830        13
42.840         0
42.850        13
42.860        53
42.870         0
42.880        13
42.890        13
42.900        13
42.910        40
42.920        27
42.930         0
42.940        13
42.950        27
42.960        40
42.970        53
42.980        67
42.990        40
43.000        13
43.010        40
43.020        53
43.030        27
43.040        13
43.050        13
43.060        40
43.070        27
43.080         0
43.090        27
43.100        13
43.110        13
43.120        40
43.130        67
43.140        67
43.150        13
43.160        27
43.170        40
43.180        27
43.190        40
43.200        27
43.210        80
43.220         0
43.230        27
43.240        67
43.250        40
43.260        40
43.270        40
43.280        27
43.290        40
43.300        93
43.310        13
43.320        40
43.330        80
43.340        40
43.350        93
43.360       107
43.370       133
43.380       107
43.390       120
43.400        80
43.410       267
43.420       147
43.430       280
43.440       120
43.450       240
43.460       133
43.470       133
43.480        67
43.490        67
43.500        67
43.510       133
43.520       107
43.530        93
43.540       107
43.550       107
43.560       120
43.570        67
43.580        53
43.590        67
43.600        13
43.610        13
43.620        67
43.630        27
43.640        13
43.650        27
43.660        13
43.670        27
43.680         0
43.690        53
43.700        27
43.710         0
43.720        13
43.730         0
43.740        13
43.750        53
43.760        40
43.770        40
43.780        40
43.790        27
43.800        53
43.810        40
43.820         0
43.830         0
43.840        27
43.850        40
43.860        13
43.870        27
43.880        40
43.890         0
43.900        27
43.910        40
43.920        13
43.930        67
43.940        27
43.950        13
43.960        13
43.970        13
43.980        13
43.990        13
44.000        13
44.010        13
44.020        13
44.030        27
44.040         0
44.050        53
44.060        13
44.070        40
44.080        27
44.090        13
44.100         0
44.110        27
44.120        40
44.130        27
44.140        27
44.150        13
44.160        40
44.170        53
44.180        40
44.190        27
44.200        13
44.210         0
44.220        13
44.230        13
44.240        40
44.250        13
44.260        40
44.270        13
44.280        27
44.290         0
44.300        27
44.310        13
44.320        27
44.330        13
44.340        27
44.350        13
44.360        53
44.370        27
44.380        13
44.390        27
44.400        13
44.410        13
44.420        13
44.430        53
44.440        27
44.450        13
44.460        40
44.470        40
44.480        13
44.490         0
44.500        27
44.510        27
44.520        13
44.530        40
44.540        27
44.550         0
44.560        40
44.570        13
44.580        27
44.590        13
44.600        53
44.610        27
44.620         0
44.630        40
44.640        40
44.650        13
44.660        27
44.670        27
44.680        40
44.690        27
44.700        13
44.710        13
44.720        27
44.730        53
44.740        13
44.750        13
44.760        40
44.770        27
44.780        40
44.790         0
44.800        27
44.810        27
44.820        27
44.830        27
44.840        13
44.850         0
44.860        13
44.870        53
44.880        40
44.890        27
44.900        93
44.910        27
44.920        40
44.930        53
44.940        13
44.950        27
44.960        40
44.970        67
44.980        53
44.990        27
45.000        40
45.010        13
45.020        13
45.030        40
45.040        40
45.050        53
45.060        80
45.070        40
45.080        13
45.090        27
45.100        80
45.110        40
45.120        53
45.130        40
45.140        53
45.150        53
45.160        53
45.170        13
45.180        13
45.190        13
45.200         0
45.210        13
45.220        40
45.230        40
45.240        53
45.250        40
45.260        40
45.270        27
45.280        53
45.290        67
45.300        40
45.310        40
45.320        40
45.330        93
45.340        53
45.350        67
45.360        27
45.370        13
45.380       120
45.390        53
45.400        27
45.410        27
45.420        53
45.430        27
45.440        93
45.450        27
45.460       107
45.470        93
45.480       213
45.490       107
45.500       107
45.510        93
45.520       200
45.530       107
45.540        80
45.550       107
45.560       147
45.570       133
45.580       173
45.590       213
45.600       160
45.610       187
45.620       333
45.630       267
45.640       200
45.650       253
45.660       307
45.670       333
45.680       387
45.690       387
45.700       360
45.710       267
45.720       347
45.730       426
45.740       307
45.750       426
45.760       533
45.770       546
45.780       600
45.790       853
45.800       546
45.810       720
45.820       826
45.830       986
45.840       813
45.850       773
45.860       640
45.870       826
45.880       773
45.890       613
45.900       733
45.910       613
45.920       653
45.930       613
45.940       560
45.950       506
45.960       613
45.970       493
45.980       320
45.990       440
46.000       400
46.010       466
46.020       320
46.030       280
46.040       213
46.050       200
46.060       213
46.070       267
46.080       133
46.090        93
46.100       147
46.110       147
46.120       120
46.130       120
46.140        67
46.150        53
46.160        40
46.170        40
46.180        80
46.190        27
46.200        93
46.210        80
46.220        93
46.230       120
46.240        67
46.250        27
46.260        13
46.270        67
46.280        40
46.290        53
46.300        40
46.310        53
46.320        67
46.330        53
46.340        80
46.350        27
46.360        40
46.370        53
46.380        67
46.390        53
46.400        80
46.410        67
46.420        53
46.430        13
46.440        93
46.450        40
46.460        53
46.470        67
46.480        53
46.490        80
46.500        40
46.510        13
46.520        27
46.530        40
46.540        40
46.550        13
46.560       120
46.570        67
46.580        40
46.590        27
46.600        27
46.610        13
46.620         0
46.630        40
46.640        13
46.650        13
46.660        53
46.670        13
46.680        27
46.690        13
46.700        27
46.710        40
46.720        13
46.730        27
46.740        40
46.750        27
46.760        27
46.770        13
46.780        27
46.790        27
46.800        40
46.810        67
46.820        40
46.830        13
46.840        53
46.850        40
46.860        27
46.870        40
46.880        40
46.890        53
46.900        13
46.910        40
46.920        13
46.930        13
46.940        27
46.950        40
46.960        27
46.970        40
46.980        40
46.990        13
47.000        40
47.010        13
47.020        13
47.030        27
47.040        13
47.050        40
47.060        27
47.070        40
47.080        40
47.090        27
47.100        53
47.110        27
47.120         0
47.130        13
47.140        40
47.150        27
47.160         0
47.170        13
47.180        27
47.190        27
47.200        53
47.210        13
47.220        80
47.230        13
47.240        13
47.250        40
47.260        40
47.270        13
47.280        40
47.290        27
47.300        27
47.310         0
47.320        27
47.330        27
47.340        40
47.350        13
47.360        67
47.370        40
47.380        40
47.390        40
47.400        27
47.410        53
47.420        40
47.430        27
47.440        13
47.450        13
47.460         0
47.470        13
47.480        13
47.490        40
47.500        13
47.510        13
47.520        27
47.530        13
47.540        67
47.550        13
47.560        53
47.570        27
47.580        27
47.590         0
47.600        13
47.610        40
47.620         0
47.630        53
47.640        40
47.650        40
47.660        27
47.670        67
47.680         0
47.690         0
47.700        27
47.710         0
47.720        80
47.730         0
47.740        13
47.750        40
47.760        27
47.770        13
47.780        27
47.790        67
47.800        27
47.810        40
47.820        13
47.830        40
47.840        13
47.850        40
47.860        13
47.870        13
47.880        13
47.890        27
47.900        27
47.910        27
47.920        13
47.930        13
47.940         0
47.950        53
47.960         0
47.970        40
47.980        40
47.990        53
48.000         0
48.010        13
48.020        27
48.030         0
48.040        13
48.050        27
48.060        13
48.070         0
48.080         0
48.090        13
48.100        53
48.110        27
48.120         0
48.130        13
48.140        27
48.150        13
48.160        40
48.170        40
48.180        27
48.190         0
48.200        53
48.210        27
48.220         0
48.230        40
48.240        27
48.250         0
48.260        13
48.270        53
48.280        13
48.290        27
48.300        80
48.310        13
48.320        27
48.330        27
48.340         0
48.350         0
48.360         0
48.370        13
48.380        93
48.390        27
48.400        13
48.410        13
48.420        40
48.430        13
48.440         0
48.450        53
48.460        27
48.470         0
48.480        13
48.490         0
48.500        13
48.510        13
48.520        27
48.530        53
48.540        40
48.550        40
48.560        53
48.570        13
48.580        40
48.590         0
48.600        13
48.610        27
48.620        27
48.630        67
48.640        13
48.650        27
48.660        53
48.670         0
48.680         0
48.690        40
48.700        40
48.710        40
48.720        27
48.730         0
48.740         0
48.750        27
48.760        13
48.770        13
48.780        27
48.790        13
48.800         0
48.810        67
48.820         0
48.830        13
48.840        13
48.850        13
48.860        40
48.870        27
48.880        13
48.890        13
48.900        53
48.910        13
48.920        13
48.930         0
48.940        27
48.950        13
48.960        13
48.970         0
48.980         0
48.990        27
49.000        40
49.010        13
49.020        40
49.030        13
49.040        27
49.050         0
49.060        13
49.070        13
49.080        13
49.090        13
49.100        53
49.110         0
49.120         0
49.130        40
49.140        13
49.150        13
49.160        13
49.170        40
49.180        53
49.190        13
49.200        40
49.210        13
49.220        40
49.230        13
49.240        40
49.250         0
49.260         0
49.270         0
49.280         0
49.290         0
49.300        40
49.310        27
49.320        27
49.330        53
49.340         0
49.350        40
49.360        27
49.370         0
49.380        13
49.390        27
49.400         0
49.410         0
49.420        40
49.430         0
49.440        40
49.450        13
49.460         0
49.470        13
49.480        53
49.490        13
49.500        40
49.510        13
49.520        13
49.530         0
49.540        53
49.550         0
49.560        27
49.570         0
49.580        40
49.590         0
49.600        13
49.610        27
49.620         0
49.630        13
49.640        13
49.650        27
49.660        13
49.670         0
49.680        27
49.690         0
49.700        27
49.710        13
49.720         0
49.730         0
49.740        13
49.750        53
49.760         0
49.770        27
49.780        13
49.790        13
49.800        13
49.810        13
49.820        13
49.830        13
49.840        40
49.850        13
49.860        13
49.870         0
49.880         0
49.890        13
49.900        67
49.910        13
49.920        13
49.930        13
49.940         0
49.950        13
49.960        13
49.970         0
49.980         0
49.990        13
50.000        40
50.010        13
50.020        13
50.030         0
50.040        40
50.050        13
50.060        13
50.070        13
50.080        13
50.090        13
50.100        40
50.110        27
50.120        13
50.130         0
50.140        40
50.150        13
50.160         0
50.170         0
50.180        53
50.190         0
50.200        27
50.210        13
50.220        13
50.230         0
50.240         0
50.250         0
50.260        27
50.270        13
50.280         0
50.290        27
50.300         0
50.310        40
50.320        27
50.330        27
50.340        13
50.350        27
50.360        40
50.370        53
50.380        27
50.390        27
50.400        27
50.410        13
50.420        27
50.430        27
50.440        13
50.450        27
50.460        27
50.470        13
50.480         0
50.490        13
50.500        13
50.510        27
50.520        40
50.530        27
50.540        53
50.550         0
50.560         0
50.570        13
50.580        27
50.590        13
50.600        13
50.610        40
50.620        27
50.630         0
50.640        13
50.650        40
50.660        27
50.670       573
50.680        27
50.690        13
50.700        27
50.710        53
50.720         0
50.730        13
50.740        40
50.750        13
50.760        13
50.770        13
50.780         0
50.790        40
50.800         0
50.810        40
50.820        13
50.830        13
50.840         0
50.850        13
50.860         0
50.870        13
50.880        40
50.890        27
50.900        27
50.910        13
50.920        13
50.930        27
50.940        40
50.950         0
50.960         0
50.970        27
50.980        13
50.990        13
51.000        27
51.010        13
51.020         0
51.030        13
51.040        13
51.050        13
51.060         0
51.070        27
51.080        40
51.090        27
51.100         0
51.110         0
51.120        13
51.130        53
51.140        13
51.150        40
51.160        40
51.170        27
51.180        40
51.190        27
51.200        13
51.210        13
51.220        13
51.230        13
51.240        40
51.250        13
51.260         0
51.270        13
51.280         0
51.290        13
51.300        40
51.310        27
51.320        27
51.330        27
51.340        27
51.350        13
51.360        13
51.370        27
51.380        27
51.390        27
51.400         0
51.410        53
51.420         0
51.430         0
51.440         0
51.450        27
51.460        13
51.470        40
51.480        53
51.490        13
51.500        40
51.510         0
51.520        27
51.530        13
51.540        27
51.550        27
51.560        27
51.570        13
51.580        13
51.590        40
51.600        40
51.610        53
51.620         0
51.630        40
51.640        67
51.650        27
51.660        27
51.670        40
51.680        13
51.690        40
51.700        53
51.710         0
51.720        13
51.730        13
51.740        27
51.750        27
51.760        27
51.770        27
51.780        13
51.790        13
51.800        13
51.810        13
51.820        53
51.830        13
51.840         0
51.850        27
51.860        40
51.870         0
51.880        27
51.890        27
51.900         0
51.910        13
51.920        13
51.930        53
51.940         0
51.950         0
51.960        13
51.970        27
51.980         0
51.990        13
52.000        13
52.010         0
52.020        27
52.030        13
52.040         0
52.050         0
52.060        13
52.070        53
52.080        27
52.090        13
52.100        27
52.110         0
52.120         0
52.130        13
52.140        27
52.150        13
52.160        13
52.170        40
52.180        40
52.190        13
52.200         0
52.210        27
52.220        53
52.230        13
52.240         0
52.250        13
52.260        27
52.270        27
52.280        27
52.290        13
52.300        13
52.310        27
52.320        13
52.330        27
52.340        27
52.350        40
52.360        13
52.370        13
52.380        13
52.390         0
52.400        13
52.410        40
52.420         0
52.430        13
52.440        27
52.450        27
52.460         0
52.470        27
52.480        27
52.490        27
52.500        93
52.510        53
52.520        40
52.530        53
52.540        53
52.550        27
52.560        40
52.570        27
52.580        67
52.590        40
52.600        40
52.610        80
52.620       147
52.630        27
52.640        80
52.650       147
52.660        27
52.670        80
52.680        40
52.690        40
52.700        27
52.710        53
52.720        53
52.730        27
52.740        53
52.750        27
52.760        53
52.770       107
52.780        53
52.790        53
52.800        53
52.810        80
52.820        13
52.830        13
52.840        27
52.850         0
52.860        13
52.870        13
52.880        13
52.890        27
52.900        27
52.910        27
52.920         0
52.930        13
52.940        13
52.950        53
52.960        27
52.970        13
52.980         0
52.990        27
53.000        67
53.010         0
53.020        13
53.030        27
53.040        13
53.050        27
53.060        13
53.070        40
53.080        40
53.090         0
53.100        13
53.110        53
53.120        27
53.130        13
53.140        13
53.150        13
53.160        13
53.170        13
53.180        13
53.190        13
53.200         0
53.210        27
53.220         0
53.230        40
53.240        40
53.250        40
53.260         0
53.270        40
53.280         0
53.290        27
53.300         0
53.310        13
53.320         0
53.330        40
53.340         0
53.350        40
53.360        27
53.370         0
53.380         0
53.390        13
53.400        53
53.410         0
53.420         0
53.430        13
53.440         0
53.450        27
53.460        27
53.470        27
53.480        13
53.490        27
53.500        13
53.510         0
53.520         0
53.530        13
53.540        13
53.550         0
53.560        13
53.570         0
53.580        27
53.590        13
53.600        13
53.610        13
53.620        53
53.630        13
53.640         0
53.650        13
53.660        27
53.670        53
53.680        13
53.690        27
53.700         0
53.710        27
53.720        27
53.730        13
53.740        27
53.750        27
53.760        13
53.770        13
53.780        13
53.790         0
53.800        13
53.810        13
53.820         0
53.830        13
53.840        27
53.850        27
53.860        53
53.870         0
53.880        13
53.890        27
53.900        13
53.910        40
53.920        13
53.930        27
53.940         0
53.950        13
53.960         0
53.970        27
53.980        13
53.990        13
54.000        53
54.010        13
54.020        13
54.030        27
54.040         0
54.050        40
54.060        13
54.070        13
54.080        67
54.090        27
54.100        27
54.110        27
54.120         0
54.130         0
54.140        27
54.150        53
54.160        13
54.170         0
54.180        13
54.190        27
54.200        13
54.210        13
54.220        13
54.230        40
54.240        13
54.250        27
54.260        27
54.270        40
54.280        13
54.290         0
54.300        13
54.310        40
54.320         0
54.330         0
54.340         0
54.350         0
54.360        27
54.370        27
54.380         0
54.390         0
54.400        27
54.410        13
54.420        27
54.430        13
54.440         0
54.450         0
54.460         0
54.470        27
54.480        27
54.490        40
54.500        13
54.510         0
54.520        13
54.530         0
54.540        40
54.550        13
54.560        13
54.570        53
54.580        40
54.590         0
54.600        53
54.610        40
54.620         0
54.630        27
54.640        27
54.650        27
54.660         0
54.670        53
54.680        53
54.690        27
54.700         0
54.710        13
54.720         0
54.730        67
54.740         0
54.750        40
54.760        13
54.770        13
54.780         0
54.790         0
54.800        27
54.810        40
54.820         0
54.830        40
54.840        13
54.850        27
54.860         0
54.870        13
54.880        27
54.890         0
54.900         0
54.910        27
54.920        40
54.930        67
54.940        27
54.950        53
54.960        13
54.970        13
54.980         0
54.990         0
55.000        27
55.010        13
55.020        13
55.030        53
55.040        13
55.050        40
55.060        13
55.070         0
55.080        13
55.090        40
55.100        13
55.110        40
55.120         0
55.130         0
55.140         0
55.150         0
55.160        27
55.170         0
55.180        27
55.190        27
55.200        13
55.210         0
55.220        53
55.230        13
55.240        27
55.250        13
55.260         0
55.270        27
55.280        40
55.290         0
55.300         0
55.310        13
55.320        53
55.330        40
55.340        13
55.350         0
55.360        27
55.370        27
55.380        27
55.390        13
55.400         0
55.410        13
55.420        27
55.430        13
55.440        13
55.450         0
55.460         0
55.470         0
55.480        27
55.490         0
55.500        27
55.510        27
55.520         0
55.530        13
55.540        13
55.550         0
55.560         0
55.570        13
55.580         0
55.590        27
55.600         0
55.610        13
55.620        13
55.630         0
55.640        27
55.650         0
55.660        13
55.670         0
55.680         0
55.690        13
55.700        13
55.710         0
55.720        13
55.730        27
55.740        27
55.750        13
55.760         0
55.770         0
55.780        13
55.790        13
55.800        27
55.810        40
55.820        27
55.830        40
55.840        13
55.850        27
55.860         0
55.870        53
55.880        27
55.890        27
55.900        40
55.910        27
55.920        13
55.930        13
55.940        27
55.950        13
55.960        13
55.970        40
55.980        13
55.990        13
56.000        13
56.010        27
56.020        53
56.030        13
56.040        13
56.050        27
56.060        53
56.070        13
56.080        27
56.090        13
56.100         0
56.110         0
56.120        27
56.130        40
56.140        40
56.150        13
56.160        27
56.170        13
56.180        27
56.190        13
56.200        27
56.210        13
56.220        27
56.230        13
56.240        40
56.250        13
56.260         0
56.270        13
56.280        27
56.290        27
56.300        27
56.310        13
56.320        13
56.330        53
56.340        53
56.350        27
56.360        27
56.370        13
56.380        40
56.390        13
56.400        13
56.410        13
56.420        13
56.430        40
56.440        40
56.450         0
56.460        27
56.470        40
56.480        13
56.490         0
56.500        13
56.510        13
56.520        13
56.530         0
56.540        27
56.550        13
56.560        27
56.570         0
56.580        40
56.590         0
56.600         0
56.610         0
56.620        13
56.630        40
56.640        53
56.650        13
56.660         0
56.670        27
56.680        27
56.690         0
56.700        27
56.710         0
56.720         0
56.730        67
56.740        27
56.750        13
56.760        40
56.770        27
56.780        27
56.790        27
56.800        27
56.810        27
56.820        40
56.830        27
56.840        13
56.850        13
56.860        27
56.870        13
56.880        13
56.890        40
56.900        40
56.910        27
56.920        40
56.930        67
56.940        27
56.950        40
56.960        40
56.970        53
56.980        27
56.990        27
57.000        40
57.010        40
57.020        27
57.030        53
57.040        53
57.050        53
57.060        27
57.070        53
57.080        67
57.090        80
57.100        67
57.110        27
57.120        93
57.130        13
57.140        27
57.150        93
57.160        27
57.170        40
57.180        53
57.190        40
57.200        40
57.210        27
57.220        67
57.230        53
57.240        13
57.250        53
57.260        13
57.270        40
57.280        53
57.290        53
57.300        40
57.310        67
57.320        67
57.330        53
57.340        40
57.350        40
57.360        13
57.370        27
57.380        53
57.390        67
57.400         0
57.410        40
57.420        67
57.430        40
57.440        27
57.450        80
57.460        27
57.470       120
57.480       187
57.490       147
57.500       200
57.510       200
57.520       280
57.530       347
57.540       333
57.550       373
57.560       506
57.570       506
57.580       533
57.590       253
57.600       293
57.610       227
57.620       173
57.630       147
57.640        93
57.650        93
57.660       147
57.670        40
57.680        67
57.690       107
57.700        67
57.710       213
57.720       173
57.730       187
57.740       173
57.750       147
57.760       187
57.770       120
57.780       120
57.790        53
57.800        13
57.810        27
57.820        93
57.830        27
57.840        13
57.850        53
57.860        27
57.870        13
57.880        13
57.890        40
57.900        27
57.910        67
57.920        13
57.930        40
57.940        40
57.950         0
57.960        80
57.970        13
57.980         0
57.990         0
58.000        53
58.010         0
58.020        40
58.030        53
58.040        40
58.050        27
58.060        53
58.070        13
58.080        13
58.090        27
58.100        27
58.110         0
58.120        13
58.130         0
58.140        27
58.150        27
58.160        13
58.170         0
58.180        13
58.190        13
58.200         0
58.210         0
58.220         0
58.230         0
58.240        40
58.250        13
58.260         0
58.270         0
58.280        13
58.290         0
58.300        40
58.310         0
58.320         0
58.330        13
58.340         0
58.350        13
58.360        27
58.370        27
58.380         0
58.390        13
58.400        27
58.410        27
58.420        13
58.430        13
58.440         0
58.450        40
58.460         0
58.470        13
58.480        13
58.490        53
58.500        13
58.510        40
58.520        27
58.530        40
58.540        13
58.550         0
58.560        27
58.570         0
58.580         0
58.590         0
58.600         0
58.610        27
58.620         0
58.630         0
58.640        13
58.650        13
58.660         0
58.670         0
58.680        27
58.690         0
58.700        13
58.710        53
58.720        27
58.730        27
58.740        13
58.750         0
58.760         0
58.770        27
58.780        13
58.790        27
58.800        27
58.810        13
58.820         0
58.830        27
58.840        27
58.850         0
58.860        27
58.870        40
58.880        13
58.890        13
58.900        40
58.910        27
58.920        40
58.930         0
58.940        27
58.950        53
58.960         0
58.970        13
58.980        27
58.990        13
59.000        27
59.010        40
59.020        13
59.030        40
59.040         0
59.050        13
59.060         0
59.070         0
59.080         0
59.090         0
59.100         0
59.110         0
59.120        53
59.130        13
59.140        40
59.150         0
59.160        27
59.170         0
59.180         0
59.190        40
59.200        13
59.210        13
59.220        13
59.230        27
59.240        27
59.250        13
59.260        27
59.270        27
59.280        40
59.290         0
59.300        13
59.310        13
59.320        53
59.330        27
59.340        13
59.350         0
59.360        27
59.370        27
59.380        13
59.390        13
59.400        27
59.410        13
59.420        27
59.430         0
59.440        27
59.450         0
59.460        13
59.470        27
59.480        27
59.490         0
59.500        13
59.510        13
59.520        13
59.530        27
59.540         0
59.550        13
59.560        40
59.570        40
59.580        40
59.590        53
59.600        13
59.610        13
59.620        40
59.630        27
59.640        27
59.650         0
59.660        27
59.670        27
59.680        27
59.690        13
59.700        27
59.710         0
59.720         0
59.730        27
59.740         0
59.750        13
59.760         0
59.770        27
59.780         0
59.790        13
59.800         0
59.810         0
59.820        13
59.830         0
59.840        13
59.850         0
59.860        13
59.870         0
59.880        13
59.890        13
59.900         0
59.910         0
59.920         0
59.930         0
59.940         0
59.950         0
59.960        67
59.970        67
59.980        53
59.990        27
60.000        13
