20.000       453
20.010       307
20.020       347
20.030       426
20.040       187
20.050       413
20.060       347
20.070       440
20.080       213
20.090       267
20.100       347
20.110       187
20.120       320
20.130       213
20.140       280
20.150       253
20.160       373
20.170       253
20.180       160
20.190       320
20.200       293
20.210       307
20.220       253
20.230       267
20.240       347
20.250       387
20.260       307
20.270       253
20.280       373
20.290       293
20.300       280
20.310       293
20.320       240
20.330       280
20.340       280
20.350       200
20.360       387
20.370       320
20.380       360
20.390       293
20.400       440
20.410       440
20.420       240
20.430       347
20.440       387
20.450       387
20.460       400
20.470       307
20.480       307
20.490       227
20.500       227
20.510       320
20.520       387
20.530       360
20.540       373
20.550       280
20.560       333
20.570       253
20.580       333
20.590       347
20.600       360
20.610       387
20.620       293
20.630       293
20.640       493
20.650       400
20.660       453
20.670       466
20.680       347
20.690       400
20.700       413
20.710       333
20.720       360
20.730       453
20.740       400
20.750       213
20.760       333
20.770       307
20.780       347
20.790       480
20.800       320
20.810       426
20.820       360
20.830       493
20.840       400
20.850       387
20.860       387
20.870       426
20.880       413
20.890       360
20.900       387
20.910       426
20.920       413
20.930       573
20.940       453
20.950       373
20.960       320
20.970       320
20.980       480
20.990       493
21.000       426
21.010       520
21.020       373
21.030       586
21.040       413
21.050       440
21.060       493
21.070       360
21.080       586
21.090       626
21.100       546
21.110       520
21.120       493
21.130       560
21.140       466
21.150       586
21.160       666
21.170      1080
21.180      1519
21.190      1386
21.200      1946
21.210      1933
21.220      2106
21.230      2119
21.240      1879
21.250      1479
21.260      1306
21.270       853
21.280       626
21.290       680
21.300       626
21.310       826
21.320       453
21.330       733
21.340       613
21.350       453
21.360       586
21.370       600
21.380       773
21.390       573
21.400       546
21.410       666
21.420       680
21.430       653
21.440       706
21.450       613
21.460       653
21.470       720
21.480       586
21.490       760
21.500       520
21.510       600
21.520       626
21.530       426
21.540       666
21.550       746
21.560       560
21.570       600
21.580       640
21.590       893
21.600       693
21.610       786
21.620       693
21.630       666
21.640       613
21.650       680
21.660       586
21.670       760
21.680       680
21.690       720
21.700       853
21.710       813
21.720       773
21.730       600
21.740       640
21.750       680
21.760       466
21.770       666
21.780       720
21.790       773
21.800       973
21.810       746
21.820       800
21.830       813
21.840       986
21.850       853
21.860       973
21.870       813
21.880      1160
21.890      1093
21.900      1253
21.910      1359
21.920      1293
21.930      1639
21.940      1706
21.950      2039
21.960      2186
21.970      2599
21.980      2879
21.990      3292
22.000      3505
22.010      3825
22.020      3998
22.030      5265
22.040      5691
22.050      7784
22.060      9490
22.070     13701
22.080     19406
22.090     25883
22.100     31601
22.110     38358
22.120     42770
22.130     45315
22.140     47648
22.150     45075
22.160     41383
22.170     37145
22.180     33093
22.190     29575
22.200     23737
22.210     20045
22.220     15620
22.230     11262
22.240      8876
22.250      5984
22.260      4465
22.270      3892
22.280      3372
22.290      2759
22.300      2799
22.310      2852
22.320      2932
22.330      2186
22.340      2172
22.350      2186
22.360      1786
22.370      1573
22.380      1719
22.390      1519
22.400      1493
22.410      1386
22.420      1333
22.430      1386
22.440      1346
22.450      1519
22.460      1333
22.470      1146
22.480      1053
22.490      1359
22.500      1173
22.510      1120
22.520      1066
22.530      1106
22.540       960
22.550      1240
22.560      1133
22.570      1093
22.580      1160
22.590       920
22.600      1106
22.610      1200
22.620      1093
22.630      1160
22.640       973
22.650       880
22.660      1066
22.670      1266
22.680       933
22.690      1479
22.700      1253
22.710      1493
22.720      1493
22.730      1559
22.740      1653
22.750      1493
22.760      1493
22.770      1586
22.780      1293
22.790      1546
22.800      1399
22.810      1413
22.820      1506
22.830      1586
22.840      1666
22.850      1559
22.860      1586
22.870      1386
22.880      1240
22.890      1399
22.900      1599
22.910      1386
22.920      1519
22.930      1506
22.940      1533
22.950      1666
22.960      1426
22.970      1293
22.980      1626
22.990      1359
23.000      1346
23.010      1359
23.020      1653
23.030      1399
23.040      1453
23.050      1666
23.060      1279
23.070      1386
23.080      1453
23.090      1306
23.100      1399
23.110      1279
23.120      1573
23.130      1479
23.140      1586
23.150      1413
23.160      1733
23.170      1666
23.180      1586
23.190      1559
23.200      1773
23.210      1679
23.220      1933
23.230      2092
23.240      1986
23.250      2106
23.260      2439
23.270      2626
23.280      3172
23.290      3452
23.300      4185
23.310      5025
23.320      5185
23.330      6944
23.340      7197
23.350      8117
23.360     10356
23.370     11062
23.380     11542
23.390     13048
23.400     13968
23.410     16194
23.420     17766
23.430     19499
23.440     24897
23.450     38385
23.460     71025
23.470    110876
23.480    144729
23.490    166600
23.500    175397
23.510    181874
23.520    189857
23.530    188778
23.540    172744
23.550    148607
23.560    125523
23.570    113715
23.580    108250
23.590     94376
23.600     72984
23.610     46475
23.620     27989
23.630     17620
23.640     14074
23.650     11755
23.660     10249
23.670      8690
23.680      7597
23.690      6571
23.700      5238
23.710      5331
23.720      4025
23.730      3905
23.740      3292
23.750      2866
23.760      2799
23.770      2332
23.780      2386
23.790      2199
23.800      2332
23.810      1853
23.820      1919
23.830      1706
23.840      1653
23.850      1493
23.860      1399
23.870      1799
23.880      1653
23.890      1479
23.900      1386
23.910      1453
23.920      1319
23.930      1493
23.940      1519
23.950      1226
23.960      1200
23.970      1426
23.980      1466
23.990      1200
24.000      1413
24.010      1306
24.020      1000
24.030      1146
24.040      1319
24.050      1000
24.060      1160
24.070      1093
24.080      1133
24.090      1319
24.100      1386
24.110      1279
24.120      1040
24.130      1359
24.140      1186
24.150      1319
24.160      1200
24.170       986
24.180      1173
24.190      1080
24.200      1093
24.210      1319
24.220      1186
24.230       973
24.240       973
24.250       840
24.260      1026
24.270      1186
24.280      1026
24.290       960
24.300      1053
24.310      1066
24.320      1120
24.330      1013
24.340      1000
24.350      1106
24.360      1253
24.370       960
24.380       933
24.390      1000
24.400      1053
24.410       960
24.420      1000
24.430      1093
24.440       973
24.450      1040
24.460       933
24.470      1026
24.480      1186
24.490       933
24.500      1186
24.510      1026
24.520       866
24.530      1146
24.540       840
24.550      1080
24.560      1013
24.570      1146
24.580       920
24.590      1106
24.600      1000
24.610       813
24.620      1213
24.630      1160
24.640      1040
24.650       986
24.660       760
24.670      1093
24.680       786
24.690       853
24.700       853
24.710       933
24.720       906
24.730      1013
24.740      1080
24.750      1120
24.760       906
24.770      1106
24.780       973
24.790       893
24.800       866
24.810      1040
24.820       986
24.830       813
24.840       906
24.850       773
24.860       920
24.870       760
24.880       906
24.890       906
24.900       800
24.910      1053
24.920       906
24.930       880
24.940       933
24.950       893
24.960       693
24.970       733
24.980       933
24.990       893
25.000       800
25.010       893
25.020       880
25.030       960
25.040       826
25.050      1093
25.060       826
25.070       840
25.080      1053
25.090       933
25.100       800
25.110       893
25.120       826
25.130       933
25.140       840
25.150       920
25.160       866
25.170       826
25.180       773
25.190       986
25.200       773
25.210       720
25.220       680
25.230       720
25.240      1053
25.250       880
25.260       733
25.270       720
25.280       960
25.290       720
25.300       720
25.310       720
25.320       840
25.330       893
25.340       813
25.350       800
25.360       906
25.370       773
25.380       826
25.390       960
25.400       880
25.410       800
25.420       920
25.430       800
25.440       773
25.450       946
25.460       826
25.470       933
25.480       733
25.490       760
25.500       786
25.510      1000
25.520       960
25.530       760
25.540       840
25.550       893
25.560       720
25.570       840
25.580       893
25.590       800
25.600       693
25.610       786
25.620       960
25.630       880
25.640       920
25.650       773
25.660       626
25.670       720
25.680       773
25.690       866
25.700       813
25.710       800
25.720       680
25.730       666
25.740      1026
25.750       946
25.760       733
25.770       653
25.780       893
25.790       640
25.800       946
25.810       880
25.820       626
25.830       786
25.840       946
25.850       920
25.860       680
25.870       893
25.880       653
25.890       840
25.900       613
25.910       786
25.920      1013
25.930       506
25.940       840
25.950       920
25.960       760
25.970       720
25.980       866
25.990       893
26.000       680
26.010       586
26.020       840
26.030       906
26.040       773
26.050       666
26.060       733
26.070       866
26.080       640
26.090       813
26.100       773
26.110       840
26.120       853
26.130       680
26.140       640
26.150       760
26.160       706
26.170       720
26.180       853
26.190       786
26.200       866
26.210       746
26.220       600
26.230       760
26.240       733
26.250       746
26.260       826
26.270       773
26.280       920
26.290       786
26.300       813
26.310       720
26.320       706
26.330       786
26.340       720
26.350       773
26.360       813
26.370       760
26.380       613
26.390       613
26.400       693
26.410       666
26.420       826
26.430       773
26.440       733
26.450       693
26.460       746
26.470       560
26.480       813
26.490       746
26.500       653
26.510       520
26.520       866
26.530       626
26.540       533
26.550       560
26.560       813
26.570       653
26.580       720
26.590       506
26.600       813
26.610       826
26.620       813
26.630       706
26.640       546
26.650       613
26.660       733
26.670       600
26.680       773
26.690       520
26.700       653
26.710       653
26.720       680
26.730       506
26.740       613
26.750       733
26.760       826
26.770       693
26.780       680
26.790       813
26.800       786
26.810       586
26.820       760
26.830       693
26.840       653
26.850       680
26.860       866
26.870       866
26.880       706
26.890       733
26.900       786
26.910       560
26.920       773
26.930       720
26.940       560
26.950       640
26.960       800
26.970       640
26.980       613
26.990       680
27.000       613
27.010       626
27.020       773
27.030       480
27.040       640
27.050       680
27.060       653
27.070       546
27.080       826
27.090       760
27.100       613
27.110       786
27.120       520
27.130       813
27.140       586
27.150       653
27.160       560
27.170       573
27.180       680
27.190       640
27.200       573
27.210       760
27.220       746
27.230       720
27.240       653
27.250       600
27.260       520
27.270       613
27.280       640
27.290       600
27.300       746
27.310       653
27.320       586
27.330       600
27.340       866
27.350       506
27.360       640
27.370       626
27.380       640
27.390       626
27.400       893
27.410       773
27.420       613
27.430       653
27.440       613
27.450       586
27.460       573
27.470       746
27.480       893
27.490       600
27.500       533
27.510       706
27.520       560
27.530       586
27.540       546
27.550       626
27.560       693
27.570       720
27.580       680
27.590       546
27.600       640
27.610       560
27.620       680
27.630       680
27.640       640
27.650       480
27.660       626
27.670       626
27.680       520
27.690       506
27.700       706
27.710       626
27.720       626
27.730       613
27.740       733
27.750       440
27.760       546
27.770       626
27.780       640
27.790       546
27.800       520
27.810       786
27.820       453
27.830       453
27.840       560
27.850       626
27.860       546
27.870       640
27.880       653
27.890       520
27.900       786
27.910       720
27.920       586
27.930       600
27.940       413
27.950       653
27.960       573
27.970       600
27.980       626
27.990       360
28.000       560
28.010       613
28.020       533
28.030       506
28.040       613
28.050       506
28.060       493
28.070       640
28.080       466
28.090       613
28.100       560
28.110       546
28.120       493
28.130       506
28.140       546
28.150       640
28.160       440
28.170       493
28.180       573
28.190       600
28.200       560
28.210       453
28.220       546
28.230       520
28.240       546
28.250       560
28.260       626
28.270       387
28.280       653
28.290       733
28.300       626
28.310       466
28.320       493
28.330       626
28.340       480
28.350       360
28.360       493
28.370       440
28.380       653
28.390       533
28.400       533
28.410       520
28.420       546
28.430       680
28.440       600
28.450       387
28.460       506
28.470       613
28.480       600
28.490       440
28.500       440
28.510       586
28.520       426
28.530       520
28.540       586
28.550       573
28.560       533
28.570       586
28.580       640
28.590       586
28.600       586
28.610       546
28.620       387
28.630       480
28.640       426
28.650       387
28.660       746
28.670       600
28.680       560
28.690       640
28.700       440
28.710       626
28.720       493
28.730       573
28.740       520
28.750       520
28.760       440
28.770       426
28.780       493
28.790       413
28.800       333
28.810       333
28.820       506
28.830       533
28.840       626
28.850       440
28.860       506
28.870       400
28.880       426
28.890       613
28.900       413
28.910       466
28.920       520
28.930       546
28.940       480
28.950       387
28.960       413
28.970       413
28.980       480
28.990       586
29.000       413
29.010       400
29.020       320
29.030       373
29.040       387
29.050       573
29.060       493
29.070       573
29.080       347
29.090       440
29.100       453
29.110       680
29.120       400
29.130       546
29.140       466
29.150       600
29.160       347
29.170       573
29.180       440
29.190       320
29.200       480
29.210       400
29.220       533
29.230       387
29.240       520
29.250       560
29.260       546
29.270       440
29.280       413
29.290       320
29.300       506
29.310       440
29.320       560
29.330       440
29.340       413
29.350       426
29.360       400
29.370       440
29.380       400
29.390       413
29.400       466
29.410       480
29.420       440
29.430       360
29.440       426
29.450       466
29.460       347
29.470       347
29.480       347
29.490       267
29.500       400
29.510       387
29.520       440
29.530       413
29.540       360
29.550       400
29.560       387
29.570       466
29.580       373
29.590       373
29.600       360
29.610       387
29.620       440
29.630       360
29.640       387
29.650       466
29.660       440
29.670       387
29.680       480
29.690       400
29.700       387
29.710       466
29.720       400
29.730       560
29.740       360
29.750       426
29.760       400
29.770       333
29.780       373
29.790       360
29.800       347
29.810       293
29.820       347
29.830       493
29.840       466
29.850       426
29.860       520
29.870       506
29.880       267
29.890       466
29.900       360
29.910       387
29.920       360
29.930       293
29.940       293
29.950       387
29.960       320
29.970       347
29.980       307
29.990       347
30.000       426
30.010       253
30.020       400
30.030       440
30.040       453
30.050       480
30.060       426
30.070       453
30.080       440
30.090       400
30.100       373
30.110       347
30.120       426
30.130       520
30.140       293
30.150       373
30.160       426
30.170       307
30.180       373
30.190       347
30.200       453
30.210       426
30.220       440
30.230       466
30.240       227
30.250       387
30.260       387
30.270       360
30.280       413
30.290       480
30.300       333
30.310       493
30.320       373
30.330       400
30.340       333
30.350       387
30.360       347
30.370       453
30.380       413
30.390       347
30.400       413
30.410       333
30.420       413
30.430       253
30.440       373
30.450       466
30.460       520
30.470       440
30.480       440
30.490       413
30.500       440
30.510       387
30.520       387
30.530       293
30.540       280
30.550       347
30.560       293
30.570       320
30.580       280
30.590       267
30.600       373
30.610       333
30.620       293
30.630       400
30.640       426
30.650       240
30.660       360
30.670       347
30.680       253
30.690       293
30.700       360
30.710       387
30.720       347
30.730       293
30.740       307
30.750       333
30.760       320
30.770       333
30.780       280
30.790       333
30.800       253
30.810       466
30.820       347
30.830       320
30.840       213
30.850       387
30.860       267
30.870       426
30.880       413
30.890       466
30.900       333
30.910       333
30.920       426
30.930       426
30.940       400
30.950       267
30.960       320
30.970       293
30.980       347
30.990       307
31.000       333
31.010       267
31.020       347
31.030       347
31.040       347
31.050       347
31.060       400
31.070       307
31.080       520
31.090       333
31.100       373
31.110       400
31.120       413
31.130       320
31.140       373
31.150       320
31.160       227
31.170       400
31.180       293
31.190       413
31.200       360
31.210       320
31.220       267
31.230       227
31.240       387
31.250       227
31.260       360
31.270       293
31.280       413
31.290       227
31.300       373
31.310       240
31.320       426
31.330       387
31.340       360
31.350       253
31.360       307
31.370       320
31.380       253
31.390       453
31.400       360
31.410       213
31.420       213
31.430       320
31.440       307
31.450       387
31.460       213
31.470       280
31.480       307
31.490       360
31.500       466
31.510       387
31.520       387
31.530       320
31.540       240
31.550       200
31.560       333
31.570       253
31.580       213
31.590       307
31.600       347
31.610       307
31.620       240
31.630       373
31.640       360
31.650       347
31.660       400
31.670       333
31.680       387
31.690       293
31.700       200
31.710       253
31.720       453
31.730       333
31.740       280
31.750       240
31.760       387
31.770       347
31.780       267
31.790       360
31.800       347
31.810       360
31.820       320
31.830       280
31.840       307
31.850       293
31.860       373
31.870       227
31.880       360
31.890       307
31.900       227
31.910       387
31.920       320
31.930       360
31.940       253
31.950       387
31.960       227
31.970       187
31.980       307
31.990       333
32.000       320
32.010       387
32.020       240
32.030       173
32.040       426
32.050       426
32.060       280
32.070       347
32.080       227
32.090       293
32.100       280
32.110       360
32.120       267
32.130       307
32.140       280
32.150       400
32.160       320
32.170       373
32.180       267
32.190       187
32.200       333
32.210       253
32.220       267
32.230       320
32.240       267
32.250       240
32.260       440
32.270       347
32.280       320
32.290       267
32.300       320
32.310       453
32.320       293
32.330       280
32.340       280
32.350       293
32.360       320
32.370       293
32.380       147
32.390       213
32.400       373
32.410       387
32.420       280
32.430       200
32.440       267
32.450       307
32.460       347
32.470       267
32.480       307
32.490       280
32.500       373
32.510       213
32.520       187
32.530       253
32.540       253
32.550       227
32.560       320
32.570       373
32.580       187
32.590       280
32.600       307
32.610       227
32.620       293
32.630       240
32.640       307
32.650       227
32.660       213
32.670       333
32.680       280
32.690       213
32.700       360
32.710       333
32.720       347
32.730       240
32.740       187
32.750       253
32.760       227
32.770       293
32.780       133
32.790       280
32.800       293
32.810       200
32.820       267
32.830       320
32.840       253
32.850       227
32.860       360
32.870       373
32.880       200
32.890       160
32.900       227
32.910       320
32.920       200
32.930       293
32.940       307
32.950       293
32.960       253
32.970       213
32.980       213
32.990       173
33.000       227
33.010       293
33.020       187
33.030       227
33.040       280
33.050       253
33.060       213
33.070       293
33.080       267
33.090       240
33.100       240
33.110       307
33.120       200
33.130       293
33.140       293
33.150       227
33.160       200
33.170       187
33.180       187
33.190       213
33.200       227
33.210       200
33.220       253
33.230       147
33.240       200
33.250       253
33.260       267
33.270       320
33.280       187
33.290       373
33.300       160
33.310       227
33.320       307
33.330       307
33.340       253
33.350       213
33.360       280
33.370       240
33.380       293
33.390       240
33.400       267
33.410       213
33.420       107
33.430       213
33.440       213
33.450       267
33.460       293
33.470       240
33.480       280
33.490       187
33.500       333
33.510       267
33.520       187
33.530       173
33.540       280
33.550       187
33.560       267
33.570       187
33.580       267
33.590       173
33.600       267
33.610       187
33.620       307
33.630       187
33.640       147
33.650       227
33.660       267
33.670       253
33.680       147
33.690       333
33.700       160
33.710       253
33.720       253
33.730       227
33.740       200
33.750       173
33.760       227
33.770       347
33.780       200
33.790       227
33.800       307
33.810       253
33.820       253
33.830       240
33.840       200
33.850       213
33.860       107
33.870       213
33.880       253
33.890       187
33.900       227
33.910       240
33.920       147
33.930       200
33.940       200
33.950       240
33.960       240
33.970       107
33.980       280
33.990       253
34.000       240
34.010       280
34.020       253
34.030       200
34.040       240
34.050       147
34.060       160
34.070       147
34.080       280
34.090       227
34.100       160
34.110       213
34.120       253
34.130       213
34.140       240
34.150       200
34.160       147
34.170       173
34.180       187
34.190       293
34.200       200
34.210       293
34.220       120
34.230       213
34.240       333
34.250       267
34.260       160
34.270       187
34.280       227
34.290       280
34.300       360
34.310       200
34.320       200
34.330       173
34.340       253
34.350       187
34.360       187
34.370       413
34.380       187
34.390       187
34.400       227
34.410       160
34.420       253
34.430       187
34.440       200
34.450       160
34.460       267
34.470       173
34.480       187
34.490       200
34.500       227
34.510       213
34.520        80
34.530       200
34.540       253
34.550       213
34.560       147
34.570       120
34.580       160
34.590       253
34.600       267
34.610       133
34.620       187
34.630       120
34.640       173
34.650       147
34.660       160
34.670       133
34.680        80
34.690       133
34.700       227
34.710       320
34.720        93
34.730       187
34.740       173
34.750       107
34.760       200
34.770       107
34.780       213
34.790       227
34.800        80
34.810        93
34.820       200
34.830        93
34.840       187
34.850       133
34.860       213
34.870       253
34.880       147
34.890       160
34.900       213
34.910       253
34.920       173
34.930       160
34.940        93
34.950       133
34.960       187
34.970       107
34.980       160
34.990       200
35.000       107
35.010       187
35.020       147
35.030       173
35.040       200
35.050       187
35.060       147
35.070       173
35.080       120
35.090       187
35.100       267
35.110       147
35.120       147
35.130       187
35.140       200
35.150       200
35.160       120
35.170        93
35.180       173
35.190        93
35.200       187
35.210       120
35.220       253
35.230       147
35.240       133
35.250       187
35.260        93
35.270       147
35.280       120
35.290        93
35.300        67
35.310        27
35.320       133
35.330       187
35.340       107
35.350       200
35.360       213
35.370       147
35.380       187
35.390       133
35.400       187
35.410        67
35.420       200
35.430       160
35.440       160
35.450       120
35.460       200
35.470       227
35.480       173
35.490       173
35.500       147
35.510       120
35.520       133
35.530       120
35.540       160
35.550       187
35.560       200
35.570        93
35.580       120
35.590       173
35.600       213
35.610       160
35.620       213
35.630       213
35.640       213
35.650       147
35.660       173
35.670       133
35.680       160
35.690       173
35.700       120
35.710       173
35.720        93
35.730       293
35.740       120
35.750        53
35.760       133
35.770       160
35.780       187
35.790       120
35.800       133
35.810       200
35.820       107
35.830       173
35.840       173
35.850       213
35.860       187
35.870       160
35.880       120
35.890       120
35.900       147
35.910       120
35.920        53
35.930       120
35.940       200
35.950       160
35.960       133
35.970       120
35.980       147
35.990       213
36.000        80
36.010       160
36.020        93
36.030       173
36.040       147
36.050       147
36.060       173
36.070        80
36.080       240
36.090       173
36.100       200
36.110       120
36.120       160
36.130       187
36.140       187
36.150       107
36.160       200
36.170       160
36.180       173
36.190        93
36.200       147
36.210        93
36.220       173
36.230        80
36.240        93
36.250       160
36.260       213
36.270        93
36.280       120
36.290       160
36.300       200
36.310       160
36.320        93
36.330       133
36.340       187
36.350       187
36.360       160
36.370       147
36.380        80
36.390       147
36.400       147
36.410       147
36.420       147
36.430       160
36.440       147
36.450       160
36.460       200
36.470       120
36.480        67
36.490        93
36.500       173
36.510       187
36.520        80
36.530       147
36.540       213
36.550       200
36.560       187
36.570       173
36.580       173
36.590       187
36.600       147
36.610       107
36.620       173
36.630       147
36.640        93
36.650       147
36.660       173
36.670       147
36.680       187
36.690        93
36.700        80
36.710        80
36.720       107
36.730       160
36.740        93
36.750       147
36.760       173
36.770       160
36.780       120
36.790       107
36.800       133
36.810       133
36.820       107
36.830       213
36.840       173
36.850       133
36.860        67
36.870       107
36.880        67
36.890       173
36.900        53
36.910       133
36.920       187
36.930       120
36.940        93
36.950        67
36.960       120
36.970       187
36.980        80
36.990       187
37.000        93
37.010        53
37.020       133
37.030        80
37.040       160
37.050       147
37.060       133
37.070        93
37.080       120
37.090       213
37.100       147
37.110       107
37.120       107
37.130       120
37.140       240
37.150        67
37.160       147
37.170       147
37.180       120
37.190       227
37.200        80
37.210        93
37.220       133
37.230       120
37.240       120
37.250       147
37.260       120
37.270        80
37.280       120
37.290       107
37.300        93
37.310       133
37.320        80
37.330        93
37.340       133
37.350       107
37.360       133
37.370       173
37.380       173
37.390       107
37.400       133
37.410        93
37.420       147
37.430       213
37.440       133
37.450        80
37.460       107
37.470        80
37.480       133
37.490        93
37.500       133
37.510        80
37.520       107
37.530        93
37.540        53
37.550        93
37.560       173
37.570       147
37.580       133
37.590        53
37.600       187
37.610        67
37.620        80
37.630       120
37.640       160
37.650        80
37.660       200
37.670        27
37.680       147
37.690       107
37.700       147
37.710       133
37.720       133
37.730       107
37.740       160
37.750       120
37.760       160
37.770        67
37.780       107
37.790       133
37.800       173
37.810       160
37.820       200
37.830       120
37.840       133
37.850        67
37.860       120
37.870       160
37.880       187
37.890        53
37.900       133
37.910        53
37.920       133
37.930       107
37.940        40
37.950       173
37.960        80
37.970        80
37.980        93
37.990       120
38.000       107
38.010        67
38.020       147
38.030       187
38.040       187
38.050        67
38.060       120
38.070        67
38.080       160
38.090        80
38.100       120
38.110       107
38.120       160
38.130       107
38.140       120
38.150        67
38.160       160
38.170       133
38.180       120
38.190       107
38.200        93
38.210       120
38.220       107
38.230       213
38.240       120
38.250       147
38.260       120
38.270        93
38.280       107
38.290        80
38.300       133
38.310       147
38.320        93
38.330       133
38.340       107
38.350        93
38.360       120
38.370       147
38.380        93
38.390       107
38.400       120
38.410       120
38.420       107
38.430       160
38.440       160
38.450       120
38.460        53
38.470       120
38.480       107
38.490        67
38.500       133
38.510        93
38.520       120
38.530       173
38.540       120
38.550        93
38.560       187
38.570       107
38.580        27
38.590        80
38.600        93
38.610       107
38.620        93
38.630        93
38.640        80
38.650       107
38.660       187
38.670        93
38.680        93
38.690        93
38.700       173
38.710        93
38.720       120
38.730        93
38.740        67
38.750       147
38.760       133
38.770       120
38.780        93
38.790       107
38.800       147
38.810        40
38.820       160
38.830        67
38.840       120
38.850       227
38.860       187
38.870       227
38.880       213
38.890       120
38.900       160
38.910        27
38.920       107
38.930       107
38.940       120
38.950       133
38.960       107
38.970       120
38.980       107
38.990       133
39.000        27
39.010       147
39.020        53
39.030       133
39.040        80
39.050       107
39.060       107
39.070        27
39.080       147
39.090       160
39.100       147
39.110       120
39.120       107
39.130       133
39.140       147
39.150       120
39.160        93
39.170       120
39.180       147
39.190        93
39.200        67
39.210        93
39.220        93
39.230        93
39.240       173
39.250        93
39.260       107
39.270        93
39.280       133
39.290       173
39.300       173
39.310        67
39.320        93
39.330        67
39.340        80
39.350       107
39.360       120
39.370       187
39.380       173
39.390       160
39.400       213
39.410       107
39.420       200
39.430        67
39.440        93
39.450       133
39.460        80
39.470        53
39.480       160
39.490       133
39.500       107
39.510        93
39.520       133
39.530       107
39.540       107
39.550       147
39.560        93
39.570       133
39.580        80
39.590        27
39.600       173
39.610       120
39.620       147
39.630       173
39.640       160
39.650       120
39.660       133
39.670        93
39.680       107
39.690       120
39.700       187
39.710       107
39.720       173
39.730        80
39.740       120
39.750        93
39.760       120
39.770       120
39.780        53
39.790       133
39.800       173
39.810       147
39.820        67
39.830       133
39.840        80
39.850        80
39.860       173
39.870       200
39.880       107
39.890       147
39.900       173
39.910       107
39.920        53
39.930       147
39.940       160
39.950       160
39.960       107
39.970        93
39.980       107
39.990       160
40.000       120
40.010       200
40.020       133
40.030       187
40.040       120
40.050       107
40.060       107
40.070        40
40.080       147
40.090        67
40.100        80
40.110       120
40.120       133
40.130       107
40.140        53
40.150       120
40.160       133
40.170       160
40.180       147
40.190       107
40.200       120
40.210       107
40.220       227
40.230       133
40.240       107
40.250       227
40.260       107
40.270       107
40.280        80
40.290       227
40.300       240
40.310       227
40.320       200
40.330       187
40.340       200
40.350       253
40.360       253
40.370       227
40.380       200
40.390       347
40.400       227
40.410       213
40.420       253
40.430       333
40.440       280
40.450       293
40.460       387
40.470       333
40.480       373
40.490       573
40.500       413
40.510       506
40.520       760
40.530       720
40.540       786
40.550       533
40.560       600
40.570       653
40.580       626
40.590       760
40.600       640
40.610       520
40.620       387
40.630       426
40.640       387
40.650       400
40.660       347
40.670       280
40.680       200
40.690       227
40.700       240
40.710       253
40.720       213
40.730       373
40.740       187
40.750       227
40.760       147
40.770       387
40.780       133
40.790       240
40.800       213
40.810       160
40.820       160
40.830       147
40.840       187
40.850       213
40.860       267
40.870       280
40.880       240
40.890       187
40.900       187
40.910       293
40.920       160
40.930       187
40.940       107
40.950       227
40.960       200
40.970       213
40.980       187
40.990       267
41.000       147
41.010       213
41.020       173
41.030        93
41.040       147
41.050       107
41.060       160
41.070       133
41.080       200
41.090       147
41.100       120
41.110        53
41.120        93
41.130       173
41.140       187
41.150        93
41.160        93
41.170       147
41.180       187
41.190       133
41.200       120
41.210       160
41.220       160
41.230       173
41.240       200
41.250       187
41.260       107
41.270       160
41.280       133
41.290       160
41.300        67
41.310        80
41.320        80
41.330       200
41.340       120
41.350       120
41.360       133
41.370       120
41.380       147
41.390       187
41.400       120
41.410        53
41.420        67
41.430       187
41.440       160
41.450       107
41.460        40
41.470       160
41.480        53
41.490        67
41.500       107
41.510        80
41.520        80
41.530        93
41.540       160
41.550       133
41.560       120
41.570       120
41.580       133
41.590       133
41.600       133
41.610       107
41.620        27
41.630       160
41.640       200
41.650       120
41.660        80
41.670       133
41.680       120
41.690        53
41.700        80
41.710        93
41.720       160
41.730        53
41.740        67
41.750        53
41.760       147
41.770        80
41.780       107
41.790       107
41.800        93
41.810       160
41.820       253
41.830       187
41.840        67
41.850       120
41.860       147
41.870        80
41.880       160
41.890       200
41.900       107
41.910       120
41.920        53
41.930        93
41.940       160
41.950       120
41.960       133
41.970       107
41.980       120
41.990       253
42.000       120
42.010       133
42.020        80
42.030       213
42.040       107
42.050       107
42.060       173
42.070       133
42.080        67
42.090        93
42.100       173
42.110       147
42.120        93
42.130       160
42.140        80
42.150       107
42.160        53
42.170        80
42.180       133
42.190       133
42.200       120
42.210        80
42.220       120
42.230       160
42.240        93
42.250       107
42.260        67
42.270        67
42.280        93
42.290        93
42.300        67
42.310       120
42.320        93
42.330       173
42.340       160
42.350       133
42.360       107
42.370       133
42.380       120
42.390       147
42.400        67
42.410        53
42.420        67
42.430       120
42.440       187
42.450        80
42.460        80
42.470       147
42.480       133
42.490        67
42.500       240
42.510       147
42.520       187
42.530       120
42.540       187
42.550       133
42.560        93
42.570       173
42.580        67
42.590       133
42.600       147
42.610        53
42.620       147
42.630       213
42.640        67
42.650       147
42.660       120
42.670       160
42.680        80
42.690        67
42.700       173
42.710       147
42.720       173
42.730       133
42.740       160
42.750       173
42.760       160
42.770       253
42.780       160
42.790       213
42.800       213
42.810       200
42.820       160
42.830       187
42.840       147
42.850       280
42.860       187
42.870       240
42.880       173
42.890       227
42.900       227
42.910       227
42.920       133
42.930       307
42.940       333
42.950       160
42.960       227
42.970       267
42.980       227
42.990       293
43.000       187
43.010       213
43.020       307
43.030       360
43.040       387
43.050       360
43.060       347
43.070       400
43.080       560
43.090       800
43.100       840
43.110      1186
43.120      1959
43.130      2186
43.140      2372
43.150      2866
43.160      3239
43.170      2759
43.180      2839
43.190      2226
43.200      1866
43.210      1133
43.220       906
43.230       680
43.240       546
43.250       560
43.260       560
43.270       373
43.280       453
43.290       307
43.300       360
43.310       360
43.320       413
43.330       253
43.340       240
43.350       293
43.360       293
43.370       213
43.380       347
43.390       400
43.400       320
43.410       360
43.420       253
43.430       347
43.440       307
43.450       373
43.460       426
43.470       347
43.480       360
43.490       466
43.500       333
43.510       453
43.520       466
43.530       347
43.540       440
43.550       693
43.560       307
43.570       546
43.580       600
43.590       466
43.600       480
43.610       626
43.620       573
43.630       440
43.640       546
43.650       693
43.660       626
43.670       640
43.680       640
43.690       546
43.700       680
43.710       773
43.720       520
43.730       666
43.740       426
43.750       586
43.760       626
43.770       613
43.780       586
43.790       680
43.800       640
43.810       760
43.820       746
43.830       520
43.840       613
43.850       613
43.860       786
43.870       746
43.880       600
43.890       693
43.900       626
43.910       613
43.920       586
43.930       680
43.940       640
43.950       520
43.960       653
43.970       626
43.980       840
43.990       720
44.000       706
44.010       666
44.020       826
44.030       720
44.040       746
44.050       880
44.060       613
44.070       786
44.080       760
44.090       960
44.100       746
44.110       786
44.120       693
44.130       866
44.140      1093
44.150       853
44.160       906
44.170       946
44.180       933
44.190       880
44.200      1000
44.210       920
44.220       960
44.230       840
44.240      1120
44.250      1040
44.260      1040
44.270       960
44.280      1333
44.290      1000
44.300      1213
44.310      1026
44.320      1066
44.330      1226
44.340      1146
44.350      1186
44.360      1066
44.370      1426
44.380      1200
44.390      1519
44.400      1080
44.410      1479
44.420      1306
44.430      1706
44.440      1413
44.450      1306
44.460      1786
44.470      1719
44.480      1693
44.490      1773
44.500      2026
44.510      2013
44.520      2239
44.530      1866
44.540      2186
44.550      2092
44.560      2319
44.570      2332
44.580      2546
44.590      2359
44.600      2439
44.610      2599
44.620      2945
44.630      2679
44.640      3385
44.650      3012
44.660      3172
44.670      3212
44.680      3639
44.690      3305
44.700      3985
44.710      4238
44.720      3985
44.730      4492
44.740      4771
44.750      4478
44.760      5211
44.770      5464
44.780      5664
44.790      6504
44.800      6624
44.810      6811
44.820      7570
44.830      8717
44.840      9463
44.850     10263
44.860     10329
44.870     11995
44.880     12715
44.890     14194
44.900     14901
44.910     15687
44.920     17646
44.930     17700
44.940     19779
44.950     20485
44.960     21378
44.970     23577
44.980     27056
44.990     29255
45.000     33986
45.010     40251
45.020     49434
45.030     60602
45.040     70025
45.050     78049
45.060     85539
45.070     89298
45.080     92550
45.090     92150
45.100     88884
45.110     85606
45.120     83180
45.130     79901
45.140     78155
45.150     73837
45.160     71678
45.170     69292
45.180     67613
45.190     65081
45.200     63068
45.210     61029
45.220     57537
45.230     52992
45.240     50660
45.250     45902
45.260     40264
45.270     38385
45.280     34146
45.290     30148
45.300     27776
45.310     23937
45.320     22258
45.330     21791
45.340     19845
45.350     19246
45.360     18673
45.370     18379
45.380     18579
45.390     19259
45.400     17886
45.410     17086
45.420     17406
45.430     16473
45.440     16247
45.450     15780
45.460     15381
45.470     15714
45.480     15047
45.490     14168
45.500     14821
45.510     13581
45.520     13568
45.530     13235
45.540     13421
45.550     12648
45.560     12422
45.570     11942
45.580     11542
45.590     10409
45.600     10782
45.610     10809
45.620      9916
45.630      9716
45.640      9370
45.650      8890
45.660      8330
45.670      8197
45.680      7837
45.690      7051
45.700      7637
45.710      6331
45.720      6784
45.730      6504
45.740      5904
45.750      6051
45.760      4865
45.770      5238
45.780      4918
45.790      4918
45.800      4572
45.810      4118
45.820      4132
45.830      3758
45.840      4038
45.850      3585
45.860      3439
45.870      3332
45.880      2919
45.890      3319
45.900      3079
45.910      2959
45.920      3212
45.930      2732
45.940      3052
45.950      2839
45.960      2919
45.970      2452
45.980      2852
45.990      2519
46.000      2559
46.010      2346
46.020      2186
46.030      2186
46.040      2559
46.050      2479
46.060      2332
46.070      2266
46.080      2039
46.090      2159
46.100      2186
46.110      2066
46.120      2119
46.130      2399
46.140      1719
46.150      2239
46.160      2226
46.170      1959
46.180      2146
46.190      2119
46.200      1973
46.210      1719
46.220      1706
46.230      2106
46.240      1999
46.250      1986
46.260      1973
46.270      1973
46.280      1946
46.290      1973
46.300      2066
46.310      2079
46.320      2399
46.330      2199
46.340      2346
46.350      2146
46.360      2066
46.370      2492
46.380      2439
46.390      2186
46.400      2212
46.410      2452
46.420      2106
46.430      2159
46.440      2212
46.450      1786
46.460      2172
46.470      2119
46.480      1826
46.490      2039
46.500      2132
46.510      2212
46.520      1879
46.530      2172
46.540      1919
46.550      1906
46.560      2306
46.570      2132
46.580      1986
46.590      1999
46.600      2039
46.610      1959
46.620      2039
46.630      1719
46.640      1706
46.650      1813
46.660      1559
46.670      1813
46.680      1586
46.690      1533
46.700      1519
46.710      1679
46.720      1479
46.730      1599
46.740      1773
46.750      1706
46.760      1386
46.770      1573
46.780      1746
46.790      1453
46.800      1293
46.810      1346
46.820      1479
46.830      1559
46.840      1519
46.850      1426
46.860      1373
46.870      1586
46.880      1653
46.890      1639
46.900      1546
46.910      1506
46.920      1293
46.930      1386
46.940      1639
46.950      1519
46.960      1653
46.970      1573
46.980      1226
46.990      1346
47.000      1359
47.010      1346
47.020      1346
47.030      1413
47.040      1399
47.050      1426
47.060      1746
47.070      1506
47.080      1573
47.090      1559
47.100      1359
47.110      1466
47.120      1626
47.130      1266
47.140      1559
47.150      1279
47.160      1333
47.170      1599
47.180      1546
47.190      1426
47.200      1493
47.210      1506
47.220      1413
47.230      1399
47.240      1426
47.250      1306
47.260      1253
47.270      1226
47.280      1306
47.290      1666
47.300      1333
47.310      1266
47.320      1613
47.330      1346
47.340      1533
47.350      1319
47.360      1466
47.370      1160
47.380      1253
47.390      1546
47.400      1306
47.410      1519
47.420      1386
47.430      1466
47.440      1613
47.450      1479
47.460      1333
47.470      1666
47.480      1639
47.490      1293
47.500      1586
47.510      1626
47.520      1679
47.530      1519
47.540      1639
47.550      1866
47.560      1893
47.570      1759
47.580      1839
47.590      1599
47.600      1959
47.610      1613
47.620      1999
47.630      1973
47.640      1893
47.650      1879
47.660      2026
47.670      2226
47.680      2132
47.690      2452
47.700      2546
47.710      2866
47.720      3065
47.730      3385
47.740      3918
47.750      3679
47.760      4332
47.770      4825
47.780      6024
47.790      6664
47.800      8077
47.810      8637
47.820      9849
47.830     11169
47.840     11862
47.850     13075
47.860     13701
47.870     15820
47.880     17086
47.890     18553
47.900     18792
47.910     20952
47.920     24337
47.930     26323
47.940     32374
47.950     39571
47.960     52312
47.970     81061
47.980    118539
47.990    160549
48.000    199174
48.010    223764
48.020    237345
48.030    245928
48.040    240664
48.050    231587
48.060    203065
48.070    167999
48.080    124697
48.090     95935
48.100     86552
48.110     96202
48.120    113741
48.130    135439
48.140    146661
48.150    156577
48.160    161162
48.170    154365
48.180    143023
48.190    122404
48.200     91403
48.210     63441
48.220     42650
48.230     29402
48.240     21871
48.250     17566
48.260     15327
48.270     13568
48.280     11635
48.290     11129
48.300      9863
48.310      7757
48.320      7677
48.330      6344
48.340      5664
48.350      5198
48.360      4052
48.370      4305
48.380      3505
48.390      3332
48.400      2666
48.410      2559
48.420      2706
48.430      2559
48.440      2506
48.450      2252
48.460      2159
48.470      2199
48.480      2266
48.490      1839
48.500      1706
48.510      1973
48.520      1639
48.530      1933
48.540      1786
48.550      1639
48.560      1466
48.570      1613
48.580      1586
48.590      1413
48.600      1559
48.610      1573
48.620      1533
48.630      1346
48.640      1493
48.650      1479
48.660      1439
48.670      1333
48.680      1466
48.690      1306
48.700      1573
48.710      1293
48.720      1226
48.730      1240
48.740      1240
48.750      1306
48.760      1200
48.770      1013
48.780      1466
48.790      1439
48.800      1160
48.810      1319
48.820      1253
48.830      1106
48.840      1373
48.850      1226
48.860      1053
48.870      1000
48.880      1080
48.890       733
48.900      1106
48.910      1160
48.920      1133
48.930       986
48.940      1106
48.950      1120
48.960      1160
48.970       960
48.980       893
48.990      1066
49.000      1080
49.010       973
49.020       946
49.030       853
49.040       826
49.050       866
49.060       920
49.070       986
49.080      1106
49.090       760
49.100      1146
49.110       773
49.120       773
49.130       826
49.140       920
49.150       840
49.160       786
49.170       813
49.180       746
49.190       906
49.200       920
49.210       946
49.220       760
49.230       906
49.240       853
49.250       800
49.260       920
49.270       960
49.280       960
49.290       840
49.300       746
49.310       786
49.320       720
49.330       813
49.340       840
49.350       840
49.360       933
49.370       853
49.380       800
49.390       893
49.400       746
49.410       973
49.420       800
49.430       733
49.440       853
49.450       706
49.460       866
49.470       666
49.480       786
49.490       906
49.500       880
49.510       893
49.520       826
49.530       813
49.540       760
49.550       906
49.560       826
49.570       706
49.580       680
49.590       866
49.600       600
49.610       613
49.620       786
49.630       973
49.640       960
49.650       720
49.660       706
49.670       666
49.680       746
49.690       613
49.700       773
49.710       586
49.720       693
49.730       786
49.740       733
49.750       746
49.760       746
49.770       813
49.780       866
49.790       506
49.800       626
49.810       773
49.820       613
49.830       720
49.840       760
49.850       693
49.860       693
49.870       760
49.880       653
49.890       693
49.900       453
49.910       613
49.920       746
49.930       666
49.940       906
49.950       666
49.960       853
49.970       613
49.980       626
49.990       720
50.000       520
50.010       613
50.020       706
50.030       720
50.040       800
50.050       520
50.060       640
50.070       693
50.080       653
50.090       573
50.100       706
50.110       773
50.120       546
50.130       600
50.140       626
50.150       600
50.160       813
50.170       586
50.180       586
50.190       653
50.200       760
50.210       493
50.220       760
50.230       586
50.240       693
50.250       600
50.260       720
50.270       600
50.280       813
50.290       760
50.300       520
50.310       440
50.320       773
50.330       653
50.340       586
50.350       613
50.360       506
50.370       560
50.380       613
50.390       613
50.400       840
50.410       453
50.420       706
50.430       506
50.440       680
50.450       520
50.460       520
50.470       546
50.480       680
50.490       560
50.500       733
50.510       520
50.520       413
50.530       613
50.540       533
50.550       773
50.560       573
50.570       573
50.580       520
50.590       586
50.600       600
50.610       613
50.620       506
50.630       520
50.640       600
50.650       600
50.660       653
50.670       506
50.680       600
50.690       586
50.700       533
50.710       613
50.720       533
50.730       626
50.740       706
50.750       640
50.760       680
50.770       600
50.780       546
50.790       426
50.800       506
50.810       600
50.820       506
50.830       426
50.840       506
50.850       546
50.860       613
50.870       546
50.880       520
50.890       466
50.900       453
50.910       586
50.920       586
50.930       426
50.940       626
50.950       400
50.960       480
50.970       640
50.980       573
50.990       586
51.000       440
51.010       693
51.020       533
51.030       826
51.040       586
51.050       720
51.060       626
51.070       586
51.080       546
51.090       666
51.100       573
51.110       520
51.120       653
51.130       613
51.140       453
51.150       533
51.160       466
51.170       533
51.180       373
51.190       426
51.200       533
51.210       387
51.220       546
51.230       426
51.240       613
51.250       453
51.260       426
51.270       640
51.280       400
51.290       546
51.300       533
51.310       653
51.320       480
51.330       493
51.340       506
51.350       533
51.360       560
51.370       466
51.380       546
51.390       546
51.400       626
51.410       387
51.420       400
51.430       466
51.440       480
51.450       600
51.460       440
51.470       653
51.480       480
51.490       440
51.500       560
51.510       440
51.520       533
51.530       400
51.540       533
51.550       506
51.560       453
51.570       493
51.580       586
51.590       506
51.600       440
51.610       506
51.620       453
51.630       506
51.640       440
51.650       466
51.660       480
51.670       413
51.680       546
51.690       466
51.700       533
51.710       413
51.720       373
51.730       520
51.740       533
51.750       466
51.760       493
51.770       320
51.780       440
51.790       360
51.800       320
51.810       426
51.820       413
51.830       400
51.840       493
51.850       373
51.860       453
51.870       640
51.880       426
51.890       640
51.900       480
51.910       400
51.920       360
51.930       453
51.940       480
51.950       493
51.960       546
51.970       466
51.980       466
51.990       373
52.000       546
52.010       573
52.020       533
52.030       333
52.040       573
52.050       520
52.060       440
52.070       426
52.080       426
52.090       320
52.100       533
52.110       333
52.120       413
52.130       493
52.140       426
52.150       426
52.160       373
52.170       480
52.180       440
52.190       466
52.200       520
52.210       520
52.220       400
52.230       520
52.240       520
52.250       480
52.260       400
52.270       426
52.280       426
52.290       426
52.300       400
52.310       466
52.320       387
52.330       506
52.340       387
52.350       533
52.360       520
52.370       480
52.380       360
52.390       387
52.400       347
52.410       267
52.420       533
52.430       573
52.440       533
52.450       360
52.460       400
52.470       520
52.480       680
52.490       520
52.500       373
52.510       293
52.520       453
52.530       387
52.540       533
52.550       520
52.560       640
52.570       347
52.580       280
52.590       440
52.600       440
52.610       533
52.620       267
52.630       320
52.640       480
52.650       347
52.660       293
52.670       506
52.680       520
52.690       440
52.700       440
52.710       480
52.720       373
52.730       466
52.740       280
52.750       387
52.760       413
52.770       466
52.780       453
52.790       280
52.800       333
52.810       586
52.820       426
52.830       400
52.840       387
52.850       493
52.860       387
52.870       347
52.880       400
52.890       320
52.900       440
52.910       333
52.920       400
52.930       373
52.940       307
52.950       293
52.960       293
52.970       400
52.980       307
52.990       347
53.000       560
53.010       333
53.020       466
53.030       280
53.040       280
53.050       453
53.060       426
53.070       347
53.080       267
53.090       413
53.100       453
53.110       426
53.120       426
53.130       373
53.140       400
53.150       400
53.160       400
53.170       333
53.180       293
53.190       400
53.200       387
53.210       400
53.220       280
53.230       333
53.240       440
53.250       333
53.260       333
53.270       413
53.280       347
53.290       413
53.300       400
53.310       387
53.320       493
53.330       426
53.340       426
53.350       520
53.360       373
53.370       240
53.380       453
53.390       426
53.400       426
53.410       413
53.420       400
53.430       426
53.440       360
53.450       347
53.460       280
53.470       333
53.480       453
53.490       373
53.500       440
53.510       320
53.520       440
53.530       227
53.540       333
53.550       347
53.560       413
53.570       413
53.580       520
53.590       387
53.600       320
53.610       387
53.620       333
53.630       400
53.640       320
53.650       333
53.660       387
53.670       187
53.680       466
53.690       373
53.700       347
53.710       347
53.720       387
53.730       360
53.740       320
53.750       333
53.760       440
53.770       307
53.780       307
53.790       426
53.800       333
53.810       360
53.820       546
53.830       267
53.840       347
53.850       333
53.860       307
53.870       333
53.880       400
53.890       387
53.900       453
53.910       347
53.920       227
53.930       213
53.940       333
53.950       373
53.960       373
53.970       280
53.980       307
53.990       506
54.000       267
54.010       320
54.020       307
54.030       480
54.040       227
54.050       426
54.060       200
54.070       320
54.080       360
54.090       347
54.100       267
54.110       413
54.120       320
54.130       440
54.140       307
54.150       387
54.160       480
54.170       307
54.180       160
54.190       347
54.200       413
54.210       280
54.220       293
54.230       253
54.240       307
54.250       240
54.260       213
54.270       280
54.280       387
54.290       267
54.300       440
54.310       387
54.320       373
54.330       333
54.340       227
54.350       347
54.360       307
54.370       320
54.380       267
54.390       347
54.400       360
54.410       240
54.420       347
54.430       320
54.440       253
54.450       253
54.460       347
54.470       387
54.480       253
54.490       293
54.500       280
54.510       307
54.520       413
54.530       240
54.540       347
54.550       413
54.560       227
54.570       280
54.580       187
54.590       373
54.600       413
54.610       360
54.620       426
54.630       320
54.640       307
54.650       333
54.660       347
54.670       187
54.680       240
54.690       240
54.700       267
54.710       227
54.720       360
54.730       307
54.740       307
54.750       360
54.760       320
54.770       360
54.780       293
54.790       253
54.800       360
54.810       293
54.820       440
54.830       160
54.840       213
54.850       173
54.860       280
54.870       240
54.880       293
54.890       267
54.900       307
54.910       280
54.920       373
54.930       160
54.940       293
54.950       293
54.960       200
54.970       387
54.980       333
54.990       267
55.000       267
55.010       360
55.020       293
55.030       307
55.040       413
55.050       333
55.060       293
55.070       213
55.080       280
55.090       213
55.100       293
55.110       240
55.120       293
55.130       267
55.140       240
55.150       240
55.160       213
55.170       387
55.180       293
55.190       307
55.200       293
55.210       267
55.220       360
55.230       360
55.240       267
55.250       293
55.260       280
55.270       280
55.280       267
55.290       267
55.300       293
55.310       293
55.320       227
55.330       280
55.340       333
55.350       240
55.360       240
55.370       347
55.380       240
55.390       200
55.400       240
55.410       280
55.420       280
55.430       227
55.440       200
55.450       227
55.460       307
55.470       347
55.480       280
55.490       240
55.500       293
55.510       253
55.520       240
55.530       173
55.540       227
55.550       320
55.560       227
55.570       267
55.580       253
55.590       253
55.600       387
55.610       253
55.620       333
55.630       187
55.640       227
55.650       280
55.660       200
55.670       307
55.680       227
55.690       240
55.700       307
55.710       360
55.720       213
55.730       267
55.740       267
55.750       253
55.760       200
55.770       187
55.780       200
55.790       307
55.800       213
55.810       253
55.820       360
55.830       147
55.840       253
55.850       200
55.860       240
55.870       360
55.880       160
55.890       307
55.900       293
55.910       173
55.920       307
55.930       253
55.940       133
55.950       293
55.960       360
55.970       253
55.980       293
55.990       133
56.000       187
56.010       240
56.020       280
56.030       213
56.040       373
56.050       200
56.060       173
56.070       147
56.080       400
56.090       240
56.100       280
56.110       360
56.120       280
56.130       187
56.140       333
56.150       307
56.160       333
56.170       293
56.180       187
56.190       173
56.200       267
56.210       280
56.220       280
56.230       253
56.240       253
56.250       160
56.260       240
56.270       200
56.280       173
56.290       227
56.300       253
56.310       280
56.320       213
56.330       240
56.340       253
56.350       373
56.360       307
56.370       227
56.380       280
56.390       240
56.400       347
56.410       253
56.420       333
56.430       240
56.440       200
56.450       253
56.460       267
56.470       280
56.480       227
56.490       293
56.500       160
56.510       200
56.520       200
56.530       187
56.540       227
56.550       213
56.560       160
56.570       307
56.580       187
56.590       200
56.600       333
56.610       333
56.620       200
56.630       107
56.640       187
56.650       320
56.660       227
56.670       120
56.680       200
56.690       293
56.700       320
56.710       187
56.720       187
56.730       160
56.740       333
56.750       227
56.760       360
56.770       187
56.780       227
56.790       280
56.800       253
56.810       213
56.820       147
56.830       253
56.840       187
56.850       267
56.860       213
56.870       227
56.880       280
56.890       267
56.900       240
56.910       253
56.920       187
56.930       160
56.940       240
56.950       253
56.960       293
56.970       320
56.980       187
56.990       293
57.000       267
57.010       280
57.020       347
57.030       213
57.040       293
57.050       227
57.060       267
57.070       240
57.080       160
57.090       280
57.100       160
57.110       120
57.120       213
57.130       227
57.140       187
57.150       253
57.160       173
57.170       227
57.180       227
57.190       200
57.200       267
57.210       267
57.220       227
57.230       240
57.240       200
57.250       173
57.260       173
57.270       227
57.280       240
57.290       173
57.300       307
57.310       227
57.320       173
57.330       187
57.340       280
57.350       200
57.360       227
57.370       187
57.380       133
57.390       173
57.400       200
57.410       280
57.420       133
57.430       267
57.440       227
57.450       213
57.460       213
57.470       253
57.480       267
57.490       227
57.500       200
57.510       147
57.520       200
57.530       187
57.540       240
57.550       240
57.560       160
57.570       160
57.580       307
57.590       200
57.600       200
57.610       147
57.620       200
57.630       200
57.640       147
57.650       293
57.660       160
57.670       333
57.680       173
57.690       187
57.700       240
57.710       400
57.720       253
57.730       200
57.740       240
57.750       173
57.760       200
57.770       293
57.780       227
57.790       173
57.800       240
57.810       240
57.820       213
57.830       240
57.840       280
57.850        67
57.860       160
57.870       187
57.880       107
57.890       173
57.900       187
57.910       120
57.920       200
57.930       107
57.940       160
57.950       173
57.960       133
57.970       213
57.980       187
57.990       187
58.000       200
58.010       240
58.020       200
58.030       173
58.040       147
58.050       200
58.060       107
58.070       213
58.080       120
58.090       307
58.100       213
58.110        93
58.120       133
58.130       133
58.140       253
58.150       200
58.160       213
58.170       213
58.180       160
58.190       267
58.200       160
58.210       213
58.220       187
58.230       213
58.240       187
58.250       147
58.260       200
58.270       213
58.280        93
58.290       213
58.300       120
58.310       160
58.320       227
58.330       173
58.340       200
58.350       160
58.360       227
58.370       187
58.380       173
58.390       160
58.400       160
58.410       187
58.420       200
58.430       147
58.440       213
58.450       147
58.460       107
58.470       173
58.480       133
58.490       147
58.500       120
58.510       173
58.520       213
58.530       320
58.540       147
58.550       120
58.560       147
58.570       120
58.580       160
58.590       120
58.600       120
58.610       173
58.620       227
58.630        53
58.640       173
58.650       120
58.660       173
58.670       120
58.680        93
58.690       213
58.700        93
58.710       187
58.720       213
58.730       213
58.740       173
58.750       107
58.760       107
58.770       267
58.780       160
58.790       173
58.800       173
58.810        80
58.820       147
58.830       187
58.840       133
58.850       213
58.860       120
58.870       120
58.880       173
58.890        93
58.900       173
58.910       173
58.920       160
58.930       200
58.940       200
58.950       213
58.960       107
58.970       120
58.980       227
58.990       147
59.000       227
59.010       160
59.020       120
59.030       160
59.040       187
59.050       213
59.060       147
59.070        93
59.080       120
59.090       200
59.100       200
59.110       173
59.120       253
59.130       160
59.140       213
59.150       133
59.160        80
59.170       133
59.180       200
59.190        53
59.200       253
59.210       107
59.220       120
59.230       253
59.240       187
59.250        80
59.260       253
59.270        67
59.280       227
59.290       120
59.300       200
59.310       147
59.320       187
59.330       120
59.340       240
59.350        67
59.360       160
59.370       253
59.380       267
59.390       120
59.400       187
59.410       147
59.420        93
59.430       200
59.440       187
59.450       187
59.460       147
59.470       227
59.480       187
59.490       173
59.500       160
59.510        40
59.520       120
59.530       187
59.540       187
59.550       173
59.560       147
59.570       147
59.580       160
59.590       120
59.600       187
59.610       200
59.620       107
59.630       173
59.640       147
59.650       173
59.660       133
59.670       227
59.680       120
59.690        53
59.700       173
59.710       213
59.720       227
59.730       240
59.740       133
59.750       173
59.760       173
59.770       213
59.780       120
59.790       147
59.800       133
59.810       147
59.820       160
59.830       120
59.840       173
59.850        80
59.860       133
59.870       213
59.880        53
59.890       200
59.900       160
59.910       187
59.920        93
59.930        80
59.940       120
59.950       213
59.960       160
59.970        80
59.980        93
59.990         0
60.000         0
