20.000         0
20.010         0
20.020        53
20.030        80
20.040        53
20.050        53
20.060        40
20.070        40
20.080        27
20.090        67
20.100         0
20.110        27
20.120        67
20.130        67
20.140        27
20.150        40
20.160        27
20.170        40
20.180        67
20.190        13
20.200        67
20.210        40
20.220        53
20.230        67
20.240        27
20.250        40
20.260        40
20.270        53
20.280        67
20.290        40
20.300        93
20.310        67
20.320        40
20.330         0
20.340        13
20.350        80
20.360        27
20.370        53
20.380        67
20.390        40
20.400        27
20.410        93
20.420        93
20.430        53
20.440        53
20.450        80
20.460        67
20.470        53
20.480        27
20.490        53
20.500        93
20.510        53
20.520        40
20.530        27
20.540        67
20.550        67
20.560         0
20.570        40
20.580        93
20.590        53
20.600        40
20.610        27
20.620        40
20.630        13
20.640        27
20.650        53
20.660        53
20.670        40
20.680        40
20.690        27
20.700        27
20.710        40
20.720        40
20.730        40
20.740        13
20.750        53
20.760        53
20.770        53
20.780        67
20.790        53
20.800         0
20.810        80
20.820        53
20.830        27
20.840        13
20.850        27
20.860        27
20.870        27
20.880        53
20.890        27
20.900        40
20.910        40
20.920        40
20.930        40
20.940        13
20.950        27
20.960        13
20.970        27
20.980        53
20.990        40
21.000        40
21.010       107
21.020        67
21.030        80
21.040        53
21.050        13
21.060        40
21.070        40
21.080        67
21.090        67
21.100        27
21.110        40
21.120        40
21.130        27
21.140        13
21.150        40
21.160        27
21.170        40
21.180        40
21.190        67
21.200         0
21.210        40
21.220        13
21.230        40
21.240        27
21.250        53
21.260        40
21.270        67
21.280        13
21.290        93
21.300        53
21.310        80
21.320        27
21.330        53
21.340        53
21.350        40
21.360        27
21.370        67
21.380        53
21.390        40
21.400        53
21.410        53
21.420        27
21.430         0
21.440        40
21.450         0
21.460        53
21.470        13
21.480        80
21.490        27
21.500        67
21.510        53
21.520        27
21.530        27
21.540        13
21.550        40
21.560        67
21.570        13
21.580        27
21.590        27
21.600        27
21.610        40
21.620        40
21.630        40
21.640        27
21.650        40
21.660        27
21.670        40
21.680        27
21.690        13
21.700        13
21.710         0
21.720        53
21.730        27
21.740        13
21.750        27
21.760        13
21.770        53
21.780        13
21.790         0
21.800        27
21.810        13
21.820        53
21.830        53
21.840         0
21.850        53
21.860        53
21.870        40
21.880        67
21.890        13
21.900        13
21.910         0
21.920        27
21.930        27
21.940        53
21.950        27
21.960        53
21.970        40
21.980        13
21.990        40
22.000        53
22.010        53
22.020        40
22.030        27
22.040        27
22.050        53
22.060        27
22.070        53
22.080        13
22.090        13
22.100         0
22.110        27
22.120         0
22.130        67
22.140        27
22.150        27
22.160        67
22.170        40
22.180        27
22.190        27
22.200        13
22.210        13
22.220        27
22.230        40
22.240        40
22.250         0
22.260        13
22.270        53
22.280        67
22.290        80
22.300        27
22.310        13
22.320        40
22.330        27
22.340        13
22.350        40
22.360        27
22.370        13
22.380        40
22.390        40
22.400        53
22.410        27
22.420        27
22.430        27
22.440         0
22.450        80
22.460        13
22.470        27
22.480        40
22.490        53
22.500        13
22.510        67
22.520        53
22.530        27
22.540       107
22.550        93
22.560        13
22.570        27
22.580        27
22.590        27
22.600        67
22.610        40
22.620        40
22.630        40
22.640        27
22.650        67
22.660        27
22.670        27
22.680        40
22.690        67
22.700        53
22.710        40
22.720        53
22.730        27
22.740        40
22.750         0
22.760        40
22.770        13
22.780        27
22.790        13
22.800        93
22.810        40
22.820         0
22.830        27
22.840       120
22.850        67
22.860        13
22.870        13
22.880        53
22.890        40
22.900        13
22.910         0
22.920        13
22.930        67
22.940        13
22.950        67
22.960        53
22.970        27
22.980        27
22.990        27
23.000         0
23.010         0
23.020        40
23.030        13
23.040        13
23.050        53
23.060        53
23.070        27
23.080        13
23.090        13
23.100        40
23.110        40
23.120        27
23.130        40
23.140        27
23.150         0
23.160        13
23.170        40
23.180        40
23.190        40
23.200        40
23.210        13
23.220        40
23.230        40
23.240        40
23.250        53
23.260        53
23.270        67
23.280        67
23.290        27
23.300        67
23.310        27
23.320        13
23.330         0
23.340        40
23.350        53
23.360        93
23.370        27
23.380        67
23.390        80
23.400        27
23.410        13
23.420        27
23.430        40
23.440        27
23.450        13
23.460        13
23.470        13
23.480        27
23.490        40
23.500        67
23.510        27
23.520        40
23.530        27
23.540        27
23.550        13
23.560        13
23.570        80
23.580        67
23.590        27
23.600        40
23.610        67
23.620        13
23.630        27
23.640        40
23.650         0
23.660        67
23.670        40
23.680        13
23.690        40
23.700        40
23.710        27
23.720        53
23.730        13
23.740        13
23.750        40
23.760         0
23.770        27
23.780        40
23.790        13
23.800        13
23.810        27
23.820        40
23.830        27
23.840        27
23.850        27
23.860        27
23.870        27
23.880        40
23.890        40
23.900        27
23.910         0
23.920        27
23.930        67
23.940         0
23.950        27
23.960        67
23.970        27
23.980        93
23.990         0
24.000        13
24.010        13
24.020        27
24.030        40
24.040        53
24.050        40
24.060        40
24.070        40
24.080        40
24.090        13
24.100        13
24.110        27
24.120        13
24.130        13
24.140        13
24.150        13
24.160        13
24.170        13
24.180        40
24.190        13
24.200        27
24.210        40
24.220        13
24.230        27
24.240        67
24.250        40
24.260        53
24.270        80
24.280        80
24.290        40
24.300        27
24.310        27
24.320        40
24.330        13
24.340        40
24.350        53
24.360        53
24.370        13
24.380        67
24.390        27
24.400        13
24.410        53
24.420        53
24.430        27
24.440        13
24.450        53
24.460        53
24.470        13
24.480        27
24.490        27
24.500        13
24.510        13
24.520        40
24.530        13
24.540        53
24.550         0
24.560        67
24.570        27
24.580        27
24.590        53
24.600        40
24.610        13
24.620        27
24.630         0
24.640        40
24.650        53
24.660        93
24.670        13
24.680        53
24.690        27
24.700        27
24.710         0
24.720        53
24.730        13
24.740        40
24.750        27
24.760        40
24.770        53
24.780        27
24.790        13
24.800         0
24.810        13
24.820        80
24.830         0
24.840        13
24.850        67
24.860        13
24.870        40
24.880        53
24.890        53
24.900         0
24.910        27
24.920        53
24.930        13
24.940        53
24.950         0
24.960        27
24.970        27
24.980        13
24.990        40
25.000        13
25.010        67
25.020        53
25.030         0
25.040        67
25.050        40
25.060        13
25.070        27
25.080        27
25.090         0
25.100        13
25.110        27
25.120        13
25.130        27
25.140        40
25.150        67
25.160        27
25.170        13
25.180        27
25.190        40
25.200        13
25.210        27
25.220        27
25.230        13
25.240        27
25.250        67
25.260        40
25.270        53
25.280        13
25.290        13
25.300        40
25.310        27
25.320        40
25.330        13
25.340        27
25.350        53
25.360        13
25.370        27
25.380         0
25.390        27
25.400        67
25.410        40
25.420        13
25.430        67
25.440        27
25.450        27
25.460        27
25.470        67
25.480        40
25.490        40
25.500        40
25.510        53
25.520        67
25.530        67
25.540         0
25.550        13
25.560       133
25.570       107
25.580        93
25.590        67
25.600       133
25.610        53
25.620        93
25.630        80
25.640        93
25.650       160
25.660        53
25.670        40
25.680       107
25.690        40
25.700        67
25.710        53
25.720        27
25.730        40
25.740        67
25.750        40
25.760        27
25.770        40
25.780         0
25.790        40
25.800        40
25.810        27
25.820        13
25.830        13
25.840        40
25.850        53
25.860        53
25.870        40
25.880         0
25.890        40
25.900        53
25.910         0
25.920        40
25.930        40
25.940        40
25.950        13
25.960        27
25.970        27
25.980        27
25.990        27
26.000        13
26.010        40
26.020        13
26.030        13
26.040        67
26.050         0
26.060         0
26.070        27
26.080        53
26.090        67
26.100        53
26.110         0
26.120        13
26.130         0
26.140        40
26.150        40
26.160        27
26.170        53
26.180         0
26.190         0
26.200        13
26.210        13
26.220        40
26.230        27
26.240        40
26.250         0
26.260        13
26.270        53
26.280        27
26.290        40
26.300        40
26.310        27
26.320        67
26.330        53
26.340        13
26.350         0
26.360        27
26.370        13
26.380        40
26.390        80
26.400        27
26.410        27
26.420        13
26.430        27
26.440        27
26.450         0
26.460        40
26.470        27
26.480        27
26.490        27
26.500        13
26.510        27
26.520        67
26.530        27
26.540        40
26.550        13
26.560        53
26.570        13
26.580        40
26.590         0
26.600        27
26.610        40
26.620        13
26.630        40
26.640        13
26.650        13
26.660        13
26.670        13
26.680        27
26.690        27
26.700        40
26.710        27
26.720        40
26.730        53
26.740        27
26.750        53
26.760        27
26.770        27
26.780        40
26.790        13
26.800         0
26.810        13
26.820        13
26.830        13
26.840        27
26.850        13
26.860        13
26.870        13
26.880        13
26.890        27
26.900        13
26.910        27
26.920        27
26.930        40
26.940        13
26.950        40
26.960        27
26.970        27
26.980        27
26.990        27
27.000        53
27.010        13
27.020        13
27.030        53
27.040         0
27.050        40
27.060        27
27.070        27
27.080        40
27.090        13
27.100        13
27.110        40
27.120        27
27.130        13
27.140        40
27.150        67
27.160        27
27.170         0
27.180        40
27.190        40
27.200         0
27.210        27
27.220        13
27.230        13
27.240        40
27.250         0
27.260        13
27.270        27
27.280        13
27.290        27
27.300        27
27.310        40
27.320        27
27.330        40
27.340        27
27.350        13
27.360        13
27.370         0
27.380        40
27.390        13
27.400        13
27.410        27
27.420        27
27.430        40
27.440        27
27.450        27
27.460        13
27.470        13
27.480        13
27.490         0
27.500        40
27.510        53
27.520        27
27.530        13
27.540        13
27.550        53
27.560        13
27.570        13
27.580        53
27.590        13
27.600         0
27.610        13
27.620        53
27.630        80
27.640        13
27.650        53
27.660        40
27.670        40
27.680         0
27.690        40
27.700        53
27.710        13
27.720        27
27.730        13
27.740        27
27.750        13
27.760        53
27.770         0
27.780         0
27.790        27
27.800        40
27.810        13
27.820        40
27.830        40
27.840        13
27.850        40
27.860        27
27.870        53
27.880        13
27.890        13
27.900        13
27.910        40
27.920        13
27.930        40
27.940        13
27.950        27
27.960        13
27.970        27
27.980        27
27.990        13
28.000         0
28.010        13
28.020        13
28.030        27
28.040        40
28.050        40
28.060        53
28.070         0
28.080         0
28.090        13
28.100        13
28.110        13
28.120        27
28.130         0
28.140        53
28.150        13
28.160        27
28.170        13
28.180        13
28.190        40
28.200        53
28.210        13
28.220        40
28.230        27
28.240        40
28.250        27
28.260        40
28.270         0
28.280        27
28.290        27
28.300         0
28.310        80
28.320        13
28.330        40
28.340        53
28.350        13
28.360        13
28.370        53
28.380        40
28.390        13
28.400        40
28.410        27
28.420        40
28.430        27
28.440        67
28.450        13
28.460        13
28.470        53
28.480        13
28.490        13
28.500        27
28.510        40
28.520        40
28.530        67
28.540         0
28.550        40
28.560        53
28.570        53
28.580        40
28.590        27
28.600         0
28.610        53
28.620        40
28.630        13
28.640        40
28.650        13
28.660         0
28.670        40
28.680         0
28.690        27
28.700        40
28.710        40
28.720        53
28.730        53
28.740        27
28.750        13
28.760        27
28.770        40
28.780        13
28.790        13
28.800        27
28.810        13
28.820        53
28.830        13
28.840        40
28.850        40
28.860        13
28.870        27
28.880        40
28.890        40
28.900         0
28.910        13
28.920        40
28.930        40
28.940        13
28.950         0
28.960        13
28.970         0
28.980        27
28.990        40
29.000        53
29.010        27
29.020         0
29.030        27
29.040        27
29.050        13
29.060        27
29.070        27
29.080        27
29.090        40
29.100        40
29.110        27
29.120         0
29.130        27
29.140         0
29.150         0
29.160         0
29.170        13
29.180        13
29.190        13
29.200        27
29.210        13
29.220        13
29.230        13
29.240        27
29.250        27
29.260         0
29.270        13
29.280        40
29.290        13
29.300        27
29.310        13
29.320         0
29.330        27
29.340        13
29.350         0
29.360        67
29.370        27
29.380        40
29.390        27
29.400        53
29.410        40
29.420        27
29.430         0
29.440        27
29.450        40
29.460        13
29.470         0
29.480        40
29.490        40
29.500         0
29.510         0
29.520        13
29.530        13
29.540         0
29.550        27
29.560         0
29.570        27
29.580        13
29.590        27
29.600        13
29.610        27
29.620        27
29.630         0
29.640        13
29.650        13
29.660        53
29.670         0
29.680        27
29.690        40
29.700         0
29.710         0
29.720        67
29.730        13
29.740        13
29.750        53
29.760        27
29.770        40
29.780         0
29.790        27
29.800        27
29.810        13
29.820        13
29.830        27
29.840        40
29.850        40
29.860        13
29.870         0
29.880        27
29.890        27
29.900        27
29.910         0
29.920        27
29.930         0
29.940         0
29.950         0
29.960        40
29.970         0
29.980         0
29.990        13
30.000        40
30.010        13
30.020         0
30.030        40
30.040        27
30.050         0
30.060        40
30.070        13
30.080        53
30.090        13
30.100        27
30.110        53
30.120        53
30.130        40
30.140        27
30.150        13
30.160        27
30.170        40
30.180        40
30.190        13
30.200        13
30.210        27
30.220        27
30.230        27
30.240        13
30.250        27
30.260        13
30.270        13
30.280         0
30.290        27
30.300        27
30.310        40
30.320        27
30.330        27
30.340        13
30.350        40
30.360         0
30.370        13
30.380        13
30.390        13
30.400        40
30.410        13
30.420        13
30.430         0
30.440        27
30.450        13
30.460        13
30.470         0
30.480        13
30.490         0
30.500        27
30.510        13
30.520        53
30.530        13
30.540        40
30.550        13
30.560        53
30.570         0
30.580         0
30.590        13
30.600         0
30.610        13
30.620        13
30.630        40
30.640        53
30.650        40
30.660         0
30.670        53
30.680        27
30.690         0
30.700        27
30.710        13
30.720         0
30.730        40
30.740        13
30.750        13
30.760        13
30.770        27
30.780        53
30.790        40
30.800        40
30.810        27
30.820        13
30.830        40
30.840        27
30.850         0
30.860         0
30.870        27
30.880        53
30.890        13
30.900        27
30.910        13
30.920        27
30.930        27
30.940        40
30.950        13
30.960         0
30.970        80
30.980        53
30.990        27
31.000        13
31.010        67
31.020        40
31.030        13
31.040        27
31.050        27
31.060        53
31.070        27
31.080        13
31.090        27
31.100        27
31.110        40
31.120         0
31.130         0
31.140        13
31.150        27
31.160        13
31.170        13
31.180        53
31.190        27
31.200        40
31.210        13
31.220        13
31.230         0
31.240        13
31.250        13
31.260        27
31.270         0
31.280        27
31.290        13
31.300        13
31.310        40
31.320        40
31.330        27
31.340        27
31.350        27
31.360         0
31.370        27
31.380        27
31.390        13
31.400        13
31.410        27
31.420        40
31.430        13
31.440        27
31.450        27
31.460        27
31.470        27
31.480        13
31.490        13
31.500        40
31.510        53
31.520        27
31.530         0
31.540         0
31.550        93
31.560        27
31.570         0
31.580        13
31.590        13
31.600        67
31.610        40
31.620        13
31.630        53
31.640        53
31.650        53
31.660        13
31.670        53
31.680        40
31.690        93
31.700        67
31.710        53
31.720        53
31.730        40
31.740        27
31.750        80
31.760       120
31.770        80
31.780       107
31.790       173
31.800       120
31.810       240
31.820       147
31.830       173
31.840       213
31.850       160
31.860       200
31.870       253
31.880       280
31.890       213
31.900       253
31.910       293
31.920       373
31.930       347
31.940       253
31.950       227
31.960       320
31.970       253
31.980       240
31.990       227
32.000       253
32.010       307
32.020       253
32.030       133
32.040       187
32.050       173
32.060       173
32.070       147
32.080        80
32.090        27
32.100       120
32.110       120
32.120       107
32.130        53
32.140        40
32.150       107
32.160        80
32.170        40
32.180        27
32.190        40
32.200        40
32.210        13
32.220        40
32.230        40
32.240        13
32.250        27
32.260        40
32.270        13
32.280        27
32.290        53
32.300        40
32.310        13
32.320        40
32.330        27
32.340        53
32.350        27
32.360        40
32.370        13
32.380        40
32.390         0
32.400        13
32.410         0
32.420        13
32.430         0
32.440         0
32.450         0
32.460        40
32.470        13
32.480        13
32.490        40
32.500        13
32.510         0
32.520        27
32.530        27
32.540        27
32.550        27
32.560        67
32.570        27
32.580        13
32.590        27
32.600        27
32.610        13
32.620        53
32.630        27
32.640        27
32.650        13
32.660         0
32.670        27
32.680         0
32.690        27
32.700        40
32.710        27
32.720        13
32.730         0
32.740         0
32.750        13
32.760        27
32.770        13
32.780        53
32.790        13
32.800        27
32.810        13
32.820        13
32.830        13
32.840         0
32.850        27
32.860         0
32.870        13
32.880        27
32.890         0
32.900         0
32.910        27
32.920        13
32.930        53
32.940        13
32.950        27
32.960        53
32.970         0
32.980         0
32.990        13
33.000        13
33.010         0
33.020        27
33.030         0
33.040        40
33.050        27
33.060        40
33.070         0
33.080        13
33.090         0
33.100        27
33.110         0
33.120        13
33.130        27
33.140         0
33.150        27
33.160        13
33.170        13
33.180        27
33.190        27
33.200         0
33.210        13
33.220        67
33.230        27
33.240        27
33.250        13
33.260         0
33.270         0
33.280        13
33.290        13
33.300        27
33.310        13
33.320        40
33.330        40
33.340         0
33.350         0
33.360        27
33.370         0
33.380        27
33.390        13
33.400        40
33.410        27
33.420        13
33.430        40
33.440        27
33.450         0
33.460        40
33.470        27
33.480        27
33.490        27
33.500        53
33.510        27
33.520        13
33.530         0
33.540        13
33.550         0
33.560         0
33.570         0
33.580         0
33.590        13
33.600        13
33.610        13
33.620        40
33.630        13
33.640         0
33.650         0
33.660        40
33.670        13
33.680        40
33.690        40
33.700         0
33.710        40
33.720        27
33.730        13
33.740        13
33.750        13
33.760        13
33.770         0
33.780        13
33.790        13
33.800        13
33.810        13
33.820         0
33.830        13
33.840        13
33.850         0
33.860        13
33.870        27
33.880        40
33.890        13
33.900         0
33.910         0
33.920        27
33.930        13
33.940        27
33.950        13
33.960        13
33.970        40
33.980        27
33.990         0
34.000        53
34.010        13
34.020        13
34.030         0
34.040         0
34.050        13
34.060         0
34.070        40
34.080        13
34.090        13
34.100        13
34.110        40
34.120        13
34.130        27
34.140         0
34.150        13
34.160        13
34.170         0
34.180        40
34.190        40
34.200        53
34.210         0
34.220        13
34.230         0
34.240         0
34.250         0
34.260         0
34.270        27
34.280        13
34.290        40
34.300         0
34.310        27
34.320        27
34.330        13
34.340         0
34.350        27
34.360        27
34.370        13
34.380         0
34.390         0
34.400         0
34.410        13
34.420        13
34.430        27
34.440         0
34.450        13
34.460        13
34.470        53
34.480        13
34.490         0
34.500        27
34.510        40
34.520        13
34.530        13
34.540        13
34.550        13
34.560        40
34.570         0
34.580        53
34.590         0
34.600         0
34.610        27
34.620        40
34.630        27
34.640        27
34.650        13
34.660        13
34.670        13
34.680        27
34.690        40
34.700        13
34.710        13
34.720        27
34.730         0
34.740        27
34.750        27
34.760        27
34.770        27
34.780        40
34.790        13
34.800         0
34.810         0
34.820        27
34.830         0
34.840         0
34.850        27
34.860        27
34.870        27
34.880        13
34.890        13
34.900        53
34.910        13
34.920         0
34.930         0
34.940         0
34.950        13
34.960        53
34.970         0
34.980         0
34.990        27
35.000        27
35.010        13
35.020        13
35.030        27
35.040        13
35.050        40
35.060        27
35.070         0
35.080        13
35.090        13
35.100        27
35.110        27
35.120        13
35.130        53
35.140        40
35.150        13
35.160        13
35.170        40
35.180        13
35.190        13
35.200        40
35.210         0
35.220        40
35.230        13
35.240        40
35.250         0
35.260        13
35.270         0
35.280        13
35.290         0
35.300        27
35.310        13
35.320        13
35.330        13
35.340        13
35.350         0
35.360        13
35.370        40
35.380        27
35.390        40
35.400        13
35.410         0
35.420        13
35.430        27
35.440        40
35.450        40
35.460        27
35.470        13
35.480         0
35.490         0
35.500        13
35.510         0
35.520        27
35.530        27
35.540        40
35.550        13
35.560        13
35.570        27
35.580         0
35.590         0
35.600         0
35.610        27
35.620        13
35.630        40
35.640        27
35.650        40
35.660         0
35.670        27
35.680         0
35.690        53
35.700         0
35.710        13
35.720        67
35.730        27
35.740        27
35.750         0
35.760        13
35.770        27
35.780        13
35.790        40
35.800        13
35.810        27
35.820        27
35.830        13
35.840        13
35.850         0
35.860        13
35.870        27
35.880         0
35.890        27
35.900        13
35.910        13
35.920        13
35.930        40
35.940        13
35.950        40
35.960        13
35.970         0
35.980        13
35.990         0
36.000         0
36.010        27
36.020         0
36.030        13
36.040        53
36.050         0
36.060        13
36.070         0
36.080        27
36.090        13
36.100         0
36.110        27
36.120        27
36.130        13
36.140        13
36.150        40
36.160        13
36.170        27
36.180        13
36.190        13
36.200         0
36.210        13
36.220         0
36.230        13
36.240        13
36.250        13
36.260         0
36.270        27
36.280         0
36.290        13
36.300        40
36.310        27
36.320         0
36.330        13
36.340        27
36.350        13
36.360         0
36.370        67
36.380        13
36.390        13
36.400         0
36.410        27
36.420        13
36.430        13
36.440        13
36.450        13
36.460        27
36.470        13
36.480        13
36.490        13
36.500        13
36.510        13
36.520        13
36.530        13
36.540        13
36.550        13
36.560        13
36.570        27
36.580        13
36.590        27
36.600        13
36.610        40
36.620        27
36.630         0
36.640        27
36.650        27
36.660        13
36.670        13
36.680        27
36.690        40
36.700        27
36.710        27
36.720        13
36.730         0
36.740        13
36.750         0
36.760         0
36.770        13
36.780        27
36.790        13
36.800        27
36.810        27
36.820        27
36.830        40
36.840         0
36.850        13
36.860        27
36.870        40
36.880        13
36.890        13
36.900        27
36.910         0
36.920        13
36.930        13
36.940        27
36.950        13
36.960         0
36.970         0
36.980        13
36.990         0
37.000        27
37.010        13
37.020        27
37.030        27
37.040         0
37.050        27
37.060         0
37.070         0
37.080         0
37.090         0
37.100        13
37.110         0
37.120        13
37.130         0
37.140        40
37.150        13
37.160         0
37.170        13
37.180        13
37.190        27
37.200        27
37.210        27
37.220        27
37.230        40
37.240        27
37.250        27
37.260        27
37.270        13
37.280        13
37.290        13
37.300         0
37.310        27
37.320        40
37.330        13
37.340        40
37.350        27
37.360        13
37.370         0
37.380        27
37.390        40
37.400        13
37.410        27
37.420        13
37.430         0
37.440        13
37.450        13
37.460         0
37.470        27
37.480        13
37.490        27
37.500        13
37.510        27
37.520         0
37.530        13
37.540        13
37.550        13
37.560        13
37.570        13
37.580        27
37.590         0
37.600        13
37.610        13
37.620         0
37.630        13
37.640        27
37.650         0
37.660        13
37.670        13
37.680         0
37.690         0
37.700        13
37.710        27
37.720        40
37.730        27
37.740        13
37.750        13
37.760        13
37.770        27
37.780         0
37.790        27
37.800        13
37.810        13
37.820        13
37.830        13
37.840        13
37.850         0
37.860         0
37.870        27
37.880        27
37.890        13
37.900        27
37.910         0
37.920        13
37.930        53
37.940        13
37.950        27
37.960        27
37.970         0
37.980        13
37.990        13
38.000        27
38.010         0
38.020        13
38.030         0
38.040        27
38.050        40
38.060        13
38.070         0
38.080        40
38.090         0
38.100        27
38.110        27
38.120        27
38.130        40
38.140        27
38.150        27
38.160        13
38.170        13
38.180        13
38.190        13
38.200        27
38.210         0
38.220         0
38.230        40
38.240         0
38.250        13
38.260         0
38.270        13
38.280        13
38.290        40
38.300         0
38.310        40
38.320        27
38.330        27
38.340        27
38.350        13
38.360        13
38.370        27
38.380        40
38.390        27
38.400        40
38.410         0
38.420         0
38.430         0
38.440        13
38.450        13
38.460        27
38.470        27
38.480        13
38.490        13
38.500        40
38.510        13
38.520        13
38.530        13
38.540        27
38.550        13
38.560         0
38.570        13
38.580         0
38.590        40
38.600        27
38.610        27
38.620         0
38.630        27
38.640         0
38.650         0
38.660         0
38.670         0
38.680         0
38.690         0
38.700        27
38.710        27
38.720        40
38.730        27
38.740        27
38.750        53
38.760        13
38.770        53
38.780        53
38.790        13
38.800        27
38.810         0
38.820        27
38.830        27
38.840         0
38.850        40
38.860         0
38.870         0
38.880        13
38.890         0
38.900        13
38.910        40
38.920        27
38.930         0
38.940        13
38.950        40
38.960         0
38.970        27
38.980        13
38.990        27
39.000        27
39.010        13
39.020        27
39.030        13
39.040         0
39.050        13
39.060        13
39.070         0
39.080        13
39.090        13
39.100        13
39.110        13
39.120         0
39.130        27
39.140         0
39.150         0
39.160         0
39.170        40
39.180        40
39.190        40
39.200         0
39.210        13
39.220        40
39.230        27
39.240        13
39.250        67
39.260        27
39.270        53
39.280         0
39.290        67
39.300        27
39.310        40
39.320        53
39.330        13
39.340        67
39.350        67
39.360        53
39.370        80
39.380        93
39.390        40
39.400        27
39.410        40
39.420        67
39.430        67
39.440       133
39.450        67
39.460        40
39.470        93
39.480        80
39.490        67
39.500        40
39.510        40
39.520        27
39.530        53
39.540        40
39.550        80
39.560        80
39.570        80
39.580        13
39.590        27
39.600        13
39.610         0
39.620         0
39.630        67
39.640         0
39.650        27
39.660        13
39.670        27
39.680        13
39.690        53
39.700        13
39.710        13
39.720        40
39.730        53
39.740        13
39.750        40
39.760         0
39.770        40
39.780        13
39.790         0
39.800         0
39.810        13
39.820        13
39.830        27
39.840        13
39.850         0
39.860        40
39.870        27
39.880        27
39.890        27
39.900        13
39.910        13
39.920         0
39.930        13
39.940         0
39.950        40
39.960        27
39.970        27
39.980         0
39.990        13
40.000        13
40.010        27
40.020        13
40.030         0
40.040        27
40.050        53
40.060        27
40.070        13
40.080        27
40.090        13
40.100        27
40.110        13
40.120        27
40.130        13
40.140         0
40.150         0
40.160        13
40.170         0
40.180        13
40.190         0
40.200        13
40.210        53
40.220        27
40.230        27
40.240        13
40.250         0
40.260        13
40.270         0
40.280        13
40.290        13
40.300         0
40.310        13
40.320        53
40.330        40
40.340        27
40.350        13
40.360        13
40.370        27
40.380        27
40.390        53
40.400        67
40.410        13
40.420        13
40.430        27
40.440        13
40.450         0
40.460         0
40.470        53
40.480         0
40.490        13
40.500        13
40.510        27
40.520        13
40.530         0
40.540         0
40.550        13
40.560        40
40.570         0
40.580        67
40.590         0
40.600        27
40.610        13
40.620         0
40.630        13
40.640        27
40.650        13
40.660        13
40.670        13
40.680        13
40.690        27
40.700        13
40.710         0
40.720        13
40.730         0
40.740        13
40.750        27
40.760        13
40.770        13
40.780        27
40.790        13
40.800        53
40.810         0
40.820        13
40.830        27
40.840         0
40.850        13
40.860        13
40.870        27
40.880        13
40.890        40
40.900        13
40.910        13
40.920        27
40.930        13
40.940        40
40.950        40
40.960        13
40.970         0
40.980        27
40.990         0
41.000        40
41.010         0
41.020        13
41.030        13
41.040        27
41.050        13
41.060        13
41.070         0
41.080         0
41.090        27
41.100        27
41.110         0
41.120        27
41.130        13
41.140        27
41.150         0
41.160        13
41.170        27
41.180        13
41.190         0
41.200        13
41.210        13
41.220        13
41.230         0
41.240        13
41.250        13
41.260        13
41.270        13
41.280         0
41.290         0
41.300        13
41.310        13
41.320        13
41.330         0
41.340        27
41.350        27
41.360        40
41.370        13
41.380         0
41.390        27
41.400         0
41.410         0
41.420        40
41.430         0
41.440        27
41.450        53
41.460        13
41.470        27
41.480         0
41.490        40
41.500        27
41.510        27
41.520         0
41.530        27
41.540        13
41.550        13
41.560         0
41.570        13
41.580        13
41.590         0
41.600        13
41.610        13
41.620        27
41.630        13
41.640         0
41.650         0
41.660         0
41.670        13
41.680        13
41.690        13
41.700        13
41.710        40
41.720        13
41.730        27
41.740         0
41.750        13
41.760         0
41.770        13
41.780        13
41.790        27
41.800        27
41.810        13
41.820        13
41.830        13
41.840         0
41.850         0
41.860         0
41.870        27
41.880         0
41.890        27
41.900        13
41.910         0
41.920        27
41.930        27
41.940        13
41.950        67
41.960         0
41.970        27
41.980        13
41.990        13
42.000        13
42.010         0
42.020        13
42.030        27
42.040        40
42.050        53
42.060        27
42.070        13
42.080         0
42.090        13
42.100        13
42.110         0
42.120        27
42.130         0
42.140        27
42.150        27
42.160         0
42.170        27
42.180        13
42.190        40
42.200        13
42.210        27
42.220         0
42.230        13
42.240        27
42.250        13
42.260        27
42.270        13
42.280        13
42.290         0
42.300         0
42.310        53
42.320         0
42.330        27
42.340        13
42.350        40
42.360        13
42.370         0
42.380         0
42.390         0
42.400        13
42.410         0
42.420        27
42.430         0
42.440        13
42.450        27
42.460        13
42.470        27
42.480         0
42.490        40
42.500        27
42.510        27
42.520         0
42.530         0
42.540        27
42.550        27
42.560        27
42.570         0
42.580        27
42.590        27
42.600        40
42.610         0
42.620        27
42.630        27
42.640        27
42.650         0
42.660        67
42.670        13
42.680        27
42.690         0
42.700        13
42.710         0
42.720         0
42.730        27
42.740        27
42.750        13
42.760        27
42.770        13
42.780        40
42.790         0
42.800        27
42.810        27
42.820        27
42.830         0
42.840         0
42.850        53
42.860         0
42.870        13
42.880         0
42.890         0
42.900        40
42.910        13
42.920        13
42.930        27
42.940         0
42.950         0
42.960        13
42.970         0
42.980        53
42.990         0
43.000        13
43.010        13
43.020         0
43.030        27
43.040        27
43.050        13
43.060        13
43.070        40
43.080         0
43.090         0
43.100        13
43.110        27
43.120        13
43.130        13
43.140        27
43.150        13
43.160        13
43.170        13
43.180         0
43.190         0
43.200        13
43.210        53
43.220        13
43.230         0
43.240         0
43.250         0
43.260         0
43.270        13
43.280        27
43.290         0
43.300        13
43.310        13
43.320         0
43.330        40
43.340        27
43.350         0
43.360        13
43.370         0
43.380         0
43.390        13
43.400        13
43.410        27
43.420         0
43.430        13
43.440        40
43.450        13
43.460        40
43.470        13
43.480        13
43.490         0
43.500        13
43.510        27
43.520        27
43.530        13
43.540         0
43.550        13
43.560         0
43.570        40
43.580        27
43.590         0
43.600         0
43.610        13
43.620         0
43.630        27
43.640        13
43.650         0
43.660        27
43.670        53
43.680         0
43.690         0
43.700        13
43.710        13
43.720        13
43.730        27
43.740         0
43.750        40
43.760         0
43.770        40
43.780         0
43.790        13
43.800         0
43.810        27
43.820        13
43.830        27
43.840        13
43.850         0
43.860        13
43.870        13
43.880        27
43.890        40
43.900        13
43.910         0
43.920        40
43.930         0
43.940        40
43.950        27
43.960         0
43.970        13
43.980        27
43.990        27
44.000        27
44.010         0
44.020         0
44.030        27
44.040        13
44.050        13
44.060         0
44.070        40
44.080        13
44.090        13
44.100         0
44.110        13
44.120        40
44.130        27
44.140        13
44.150        27
44.160         0
44.170        27
44.180         0
44.190         0
44.200        27
44.210        13
44.220        13
44.230         0
44.240         0
44.250        27
44.260         0
44.270        27
44.280        27
44.290        13
44.300        27
44.310        13
44.320         0
44.330        13
44.340        13
44.350        27
44.360         0
44.370        13
44.380         0
44.390        27
44.400        27
44.410        13
44.420        27
44.430        13
44.440        40
44.450         0
44.460        67
44.470        27
44.480        13
44.490        27
44.500        13
44.510        27
44.520        13
44.530        40
44.540        13
44.550         0
44.560         0
44.570         0
44.580         0
44.590         0
44.600        27
44.610         0
44.620        27
44.630        13
44.640        27
44.650         0
44.660        27
44.670        67
44.680        27
44.690         0
44.700        27
44.710        13
44.720        13
44.730        27
44.740         0
44.750        13
44.760        27
44.770        40
44.780        27
44.790        13
44.800         0
44.810        13
44.820        13
44.830        13
44.840        27
44.850         0
44.860        40
44.870        13
44.880        13
44.890         0
44.900        13
44.910        53
44.920        27
44.930         0
44.940        13
44.950        13
44.960        40
44.970        40
44.980        13
44.990         0
45.000        27
45.010        53
45.020        13
45.030         0
45.040         0
45.050        13
45.060        40
45.070        27
45.080        27
45.090        27
45.100        13
45.110        27
45.120         0
45.130        13
45.140        13
45.150         0
45.160         0
45.170        27
45.180        27
45.190        13
45.200        40
45.210        13
45.220        13
45.230        13
45.240        13
45.250         0
45.260        67
45.270        13
45.280        13
45.290        53
45.300        27
45.310        13
45.320         0
45.330         0
45.340         0
45.350         0
45.360        27
45.370         0
45.380         0
45.390        40
45.400        40
45.410        13
45.420        40
45.430        27
45.440         0
45.450        13
45.460        40
45.470        13
45.480        40
45.490        80
45.500        13
45.510        40
45.520         0
45.530         0
45.540        13
45.550        27
45.560        67
45.570        40
45.580         0
45.590        13
45.600        40
45.610        27
45.620        27
45.630        27
45.640        27
45.650        27
45.660        27
45.670        27
45.680         0
45.690        13
45.700        27
45.710        27
45.720        67
45.730        27
45.740        67
45.750        40
45.760        40
45.770         0
45.780        13
45.790         0
45.800        13
45.810         0
45.820        40
45.830       107
45.840        40
45.850        27
45.860        40
45.870        40
45.880        40
45.890        27
45.900        27
45.910         0
45.920        53
45.930        27
45.940        27
45.950        13
45.960        13
45.970        53
45.980        27
45.990         0
46.000        27
46.010        13
46.020        13
46.030        13
46.040        13
46.050        40
46.060         0
46.070         0
46.080        13
46.090         0
46.100        13
46.110        53
46.120        27
46.130        13
46.140         0
46.150         0
46.160        27
46.170        27
46.180         0
46.190         0
46.200        53
46.210        13
46.220        13
46.230        13
46.240        13
46.250        27
46.260         0
46.270        40
46.280         0
46.290        53
46.300        13
46.310         0
46.320         0
46.330        13
46.340        40
46.350        27
46.360        27
46.370        13
46.380         0
46.390         0
46.400        13
46.410         0
46.420        27
46.430         0
46.440         0
46.450         0
46.460        40
46.470        27
46.480        13
46.490        27
46.500        40
46.510        27
46.520         0
46.530        27
46.540         0
46.550        27
46.560        27
46.570        40
46.580        13
46.590        27
46.600         0
46.610        13
46.620        27
46.630         0
46.640         0
46.650        13
46.660         0
46.670         0
46.680         0
46.690        13
46.700         0
46.710        27
46.720         0
46.730         0
46.740        27
46.750        40
46.760        27
46.770        13
46.780        27
46.790        13
46.800        53
46.810        27
46.820         0
46.830         0
46.840        40
46.850        27
46.860        40
46.870        13
46.880        40
46.890         0
46.900        53
46.910        27
46.920        13
46.930        27
46.940        27
46.950         0
46.960        27
46.970        27
46.980         0
46.990         0
47.000        13
47.010        13
47.020         0
47.030        13
47.040         0
47.050        13
47.060        13
47.070         0
47.080        13
47.090         0
47.100         0
47.110        13
47.120         0
47.130        27
47.140        13
47.150        27
47.160         0
47.170         0
47.180        27
47.190        13
47.200        27
47.210        53
47.220        27
47.230         0
47.240         0
47.250         0
47.260         0
47.270         0
47.280         0
47.290         0
47.300        13
47.310         0
47.320        13
47.330        13
47.340        40
47.350         0
47.360        40
47.370        13
47.380        27
47.390         0
47.400        13
47.410         0
47.420        13
47.430         0
47.440        27
47.450         0
47.460        13
47.470        27
47.480        40
47.490        13
47.500        13
47.510         0
47.520        27
47.530        27
47.540        27
47.550        27
47.560        27
47.570         0
47.580        13
47.590         0
47.600        13
47.610        27
47.620        40
47.630        13
47.640         0
47.650        27
47.660         0
47.670        27
47.680        13
47.690         0
47.700        27
47.710        13
47.720        13
47.730        13
47.740        13
47.750        27
47.760        27
47.770         0
47.780         0
47.790        13
47.800        13
47.810        13
47.820        13
47.830        13
47.840        13
47.850         0
47.860         0
47.870        13
47.880         0
47.890        27
47.900        13
47.910         0
47.920         0
47.930        67
47.940        13
47.950        40
47.960        13
47.970         0
47.980        27
47.990        13
48.000        27
48.010         0
48.020        13
48.030         0
48.040         0
48.050        27
48.060         0
48.070        40
48.080        27
48.090        27
48.100         0
48.110         0
48.120         0
48.130        13
48.140         0
48.150        27
48.160        27
48.170        13
48.180        13
48.190        13
48.200        27
48.210        13
48.220         0
48.230         0
48.240        40
48.250        13
48.260        27
48.270        27
48.280        13
48.290        13
48.300        13
48.310         0
48.320        13
48.330         0
48.340         0
48.350         0
48.360        13
48.370         0
48.380        27
48.390        53
48.400        13
48.410         0
48.420        27
48.430        27
48.440         0
48.450        40
48.460         0
48.470        27
48.480         0
48.490         0
48.500         0
48.510         0
48.520        40
48.530         0
48.540         0
48.550        13
48.560        13
48.570        13
48.580        13
48.590         0
48.600         0
48.610        40
48.620         0
48.630        13
48.640        13
48.650         0
48.660         0
48.670        27
48.680         0
48.690        27
48.700         0
48.710        40
48.720         0
48.730        13
48.740         0
48.750        27
48.760        13
48.770        27
48.780        13
48.790        27
48.800        13
48.810        27
48.820         0
48.830        27
48.840        27
48.850         0
48.860        40
48.870         0
48.880        27
48.890        27
48.900         0
48.910        27
48.920        27
48.930        67
48.940        13
48.950        27
48.960        13
48.970         0
48.980         0
48.990        27
49.000         0
49.010        13
49.020        13
49.030        13
49.040        27
49.050        40
49.060        80
49.070        13
49.080        27
49.090        13
49.100        13
49.110        13
49.120         0
49.130        13
49.140        27
49.150         0
49.160        13
49.170        13
49.180         0
49.190        13
49.200         0
49.210        13
49.220        27
49.230         0
49.240        13
49.250        13
49.260        13
49.270        13
49.280         0
49.290        13
49.300        27
49.310        13
49.320        13
49.330        13
49.340        13
49.350        40
49.360         0
49.370         0
49.380         0
49.390        13
49.400        13
49.410        13
49.420        40
49.430        27
49.440        27
49.450         0
49.460        13
49.470        27
49.480         0
49.490        67
49.500        13
49.510        13
49.520        13
49.530        13
49.540        27
49.550         0
49.560        13
49.570        27
49.580        40
49.590        13
49.600        13
49.610         0
49.620         0
49.630        13
49.640         0
49.650        13
49.660        13
49.670        13
49.680         0
49.690         0
49.700         0
49.710         0
49.720        40
49.730         0
49.740         0
49.750         0
49.760        13
49.770         0
49.780        13
49.790         0
49.800        13
49.810         0
49.820         0
49.830         0
49.840        40
49.850         0
49.860         0
49.870        13
49.880         0
49.890        27
49.900        40
49.910        27
49.920        13
49.930        27
49.940        13
49.950         0
49.960        13
49.970         0
49.980         0
49.990         0
50.000        13
50.010        27
50.020         0
50.030         0
50.040         0
50.050        27
50.060        13
50.070        40
50.080         0
50.090         0
50.100        13
50.110        27
50.120        13
50.130         0
50.140        13
50.150         0
50.160        13
50.170        27
50.180         0
50.190         0
50.200        13
50.210        13
50.220        13
50.230        27
50.240         0
50.250        13
50.260        13
50.270         0
50.280        13
50.290        53
50.300        27
50.310         0
50.320         0
50.330        27
50.340         0
50.350        27
50.360        13
50.370        40
50.380         0
50.390         0
50.400        40
50.410         0
50.420         0
50.430        13
50.440        40
50.450        13
50.460         0
50.470        40
50.480        13
50.490         0
50.500         0
50.510         0
50.520        27
50.530        13
50.540         0
50.550        27
50.560        13
50.570        27
50.580         0
50.590        27
50.600         0
50.610        53
50.620        40
50.630        27
50.640        13
50.650        13
50.660         0
50.670        13
50.680        27
50.690        13
50.700        27
50.710         0
50.720        53
50.730        27
50.740        13
50.750        27
50.760        13
50.770        13
50.780        13
50.790         0
50.800         0
50.810        13
50.820        13
50.830        27
50.840        13
50.850        27
50.860        13
50.870        13
50.880         0
50.890        27
50.900        27
50.910        13
50.920         0
50.930        27
50.940        53
50.950        27
50.960        13
50.970         0
50.980        40
50.990         0
51.000        13
51.010         0
51.020        53
51.030        40
51.040        13
51.050        27
51.060         0
51.070         0
51.080        13
51.090         0
51.100        13
51.110         0
51.120        13
51.130        27
51.140        27
51.150        27
51.160        40
51.170        13
51.180        13
51.190        53
51.200        27
51.210        27
51.220        40
51.230        27
51.240        13
51.250         0
51.260        27
51.270        27
51.280        27
51.290        13
51.300        40
51.310        80
51.320        53
51.330        27
51.340        53
51.350        40
51.360         0
51.370        13
51.380         0
51.390        13
51.400        40
51.410        13
51.420        40
51.430        13
51.440        53
51.450        13
51.460        13
51.470        13
51.480         0
51.490        27
51.500         0
51.510         0
51.520        40
51.530        13
51.540         0
51.550        27
51.560        40
51.570        27
51.580        40
51.590        13
51.600        13
51.610        40
51.620        53
51.630        13
51.640        40
51.650        27
51.660        27
51.670        27
51.680        40
51.690        40
51.700        13
51.710        40
51.720         0
51.730        40
51.740         0
51.750         0
51.760        67
51.770        13
51.780        40
51.790        67
51.800        53
51.810        27
51.820        27
51.830        27
51.840        27
51.850        13
51.860        27
51.870         0
51.880        27
51.890        13
51.900        53
51.910        40
51.920        40
51.930        13
51.940         0
51.950        67
51.960        53
51.970        27
51.980        13
51.990         0
52.000        13
52.010        13
52.020        40
52.030        13
52.040         0
52.050        40
52.060         0
52.070        27
52.080        27
52.090        40
52.100        13
52.110        40
52.120        40
52.130         0
52.140        13
52.150        40
52.160        13
52.170        27
52.180        13
52.190        13
52.200        13
52.210         0
52.220        27
52.230         0
52.240        13
52.250        13
52.260        27
52.270        40
52.280        27
52.290        53
52.300        40
52.310        80
52.320        40
52.330        27
52.340        40
52.350        40
52.360        53
52.370        53
52.380       107
52.390        40
52.400        40
52.410        27
52.420        13
52.430        27
52.440        67
52.450        67
52.460        27
52.470       107
52.480        67
52.490        80
52.500       107
52.510        93
52.520        93
52.530        80
52.540        53
52.550        67
52.560        80
52.570       120
52.580        27
52.590       107
52.600        53
52.610        53
52.620        80
52.630        80
52.640        67
52.650        67
52.660        67
52.670       107
52.680        53
52.690       120
52.700        67
52.710        53
52.720        67
52.730        53
52.740        27
52.750        80
52.760        40
52.770        53
52.780        27
52.790        67
52.800        40
52.810        40
52.820        13
52.830        27
52.840        53
52.850        13
52.860        13
52.870        27
52.880        53
52.890        27
52.900        27
52.910        27
52.920        67
52.930        53
52.940        67
52.950        27
52.960        40
52.970         0
52.980        13
52.990        13
53.000        40
53.010        40
53.020        27
53.030        27
53.040        13
53.050        13
53.060        53
53.070        40
53.080        67
53.090        53
53.100        27
53.110        67
53.120        13
53.130         0
53.140        13
53.150        13
53.160        67
53.170         0
53.180        40
53.190        27
53.200        40
53.210        67
53.220        40
53.230        13
53.240        13
53.250        13
53.260        40
53.270        40
53.280        27
53.290        27
53.300         0
53.310        27
53.320        27
53.330        27
53.340        13
53.350        27
53.360        13
53.370        40
53.380        27
53.390        13
53.400        27
53.410        67
53.420        13
53.430        13
53.440         0
53.450        13
53.460         0
53.470        13
53.480         0
53.490        13
53.500         0
53.510        40
53.520        13
53.530        27
53.540        13
53.550        27
53.560        13
53.570        80
53.580        27
53.590        13
53.600        13
53.610        13
53.620        40
53.630        13
53.640        13
53.650        13
53.660        67
53.670        13
53.680        13
53.690        13
53.700        27
53.710        13
53.720        13
53.730        13
53.740        27
53.750        27
53.760        13
53.770        27
53.780        40
53.790        13
53.800        13
53.810        13
53.820        27
53.830         0
53.840        13
53.850        13
53.860        40
53.870        27
53.880         0
53.890        13
53.900         0
53.910        13
53.920        40
53.930        13
53.940        13
53.950        27
53.960         0
53.970         0
53.980        67
53.990        13
54.000         0
54.010        40
54.020        27
54.030        27
54.040        40
54.050        27
54.060        40
54.070        13
54.080         0
54.090        13
54.100        13
54.110         0
54.120        27
54.130         0
54.140        40
54.150        27
54.160        13
54.170        13
54.180         0
54.190        13
54.200         0
54.210         0
54.220         0
54.230        13
54.240         0
54.250        53
54.260        13
54.270        53
54.280        13
54.290         0
54.300         0
54.310         0
54.320        40
54.330         0
54.340        40
54.350        40
54.360        40
54.370        40
54.380         0
54.390        53
54.400        27
54.410        13
54.420        40
54.430        40
54.440        27
54.450        27
54.460        13
54.470        27
54.480        27
54.490        27
54.500         0
54.510        13
54.520        13
54.530        13
54.540         0
54.550        27
54.560         0
54.570         0
54.580        13
54.590         0
54.600        40
54.610         0
54.620        53
54.630         0
54.640         0
54.650        13
54.660        13
54.670        27
54.680         0
54.690        13
54.700        53
54.710         0
54.720        13
54.730        40
54.740        27
54.750         0
54.760        13
54.770         0
54.780        13
54.790         0
54.800        13
54.810        27
54.820        40
54.830        13
54.840        27
54.850        27
54.860         0
54.870        27
54.880         0
54.890         0
54.900        27
54.910        13
54.920        13
54.930         0
54.940        13
54.950        13
54.960        53
54.970        27
54.980        13
54.990        13
55.000         0
55.010        27
55.020        27
55.030        40
55.040        27
55.050        13
55.060        13
55.070        40
55.080        13
55.090        13
55.100        13
55.110         0
55.120         0
55.130         0
55.140        13
55.150        27
55.160        53
55.170        13
55.180        13
55.190         0
55.200        27
55.210         0
55.220        13
55.230         0
55.240         0
55.250        53
55.260        13
55.270        27
55.280         0
55.290        40
55.300        40
55.310         0
55.320         0
55.330        13
55.340         0
55.350        13
55.360        13
55.370        13
55.380         0
55.390        40
55.400         0
55.410        13
55.420        27
55.430        27
55.440         0
55.450        27
55.460        53
55.470        13
55.480        13
55.490        40
55.500        13
55.510         0
55.520        27
55.530         0
55.540         0
55.550         0
55.560         0
55.570        13
55.580         0
55.590        40
55.600         0
55.610        13
55.620        13
55.630        13
55.640         0
55.650        13
55.660        27
55.670        27
55.680        13
55.690        13
55.700        27
55.710        27
55.720        27
55.730        27
55.740         0
55.750         0
55.760        13
55.770        27
55.780         0
55.790         0
55.800        13
55.810         0
55.820         0
55.830        13
55.840         0
55.850         0
55.860         0
55.870        13
55.880        13
55.890         0
55.900         0
55.910         0
55.920         0
55.930         0
55.940        27
55.950         0
55.960         0
55.970        13
55.980        13
55.990        13
56.000        13
56.010        13
56.020        27
56.030         0
56.040        13
56.050        13
56.060         0
56.070        13
56.080        13
56.090        13
56.100         0
56.110        13
56.120         0
56.130        27
56.140        13
56.150        13
56.160        13
56.170        40
56.180        13
56.190         0
56.200        13
56.210        13
56.220         0
56.230         0
56.240         0
56.250         0
56.260        40
56.270        27
56.280        27
56.290        13
56.300        27
56.310         0
56.320         0
56.330         0
56.340        13
56.350        13
56.360        13
56.370        13
56.380        13
56.390         0
56.400        13
56.410         0
56.420        13
56.430        13
56.440        40
56.450        13
56.460         0
56.470         0
56.480        40
56.490         0
56.500        40
56.510        13
56.520        40
56.530        27
56.540        27
56.550        27
56.560        40
56.570        13
56.580         0
56.590         0
56.600        13
56.610         0
56.620        40
56.630        27
56.640        53
56.650        40
56.660        53
56.670        53
56.680        53
56.690       107
56.700        13
56.710        40
56.720        80
56.730        53
56.740        80
56.750        80
56.760        40
56.770        67
56.780        40
56.790        40
56.800        67
56.810        67
56.820       147
56.830        53
56.840        67
56.850       120
56.860       120
56.870        67
56.880       107
56.890       120
56.900        80
56.910        80
56.920        80
56.930        67
56.940        93
56.950       107
56.960        80
56.970       107
56.980        53
56.990        67
57.000        40
57.010       173
57.020        93
57.030       120
57.040        93
57.050       160
57.060        80
57.070        53
57.080        67
57.090        67
57.100        67
57.110        80
57.120        40
57.130        80
57.140        53
57.150        13
57.160        27
57.170        13
57.180        27
57.190        53
57.200         0
57.210        13
57.220        13
57.230        67
57.240         0
57.250        27
57.260        40
57.270        27
57.280        27
57.290        27
57.300        13
57.310        40
57.320        13
57.330        13
57.340        13
57.350        13
57.360        27
57.370        40
57.380        13
57.390        13
57.400        27
57.410        40
57.420        13
57.430        27
57.440         0
57.450         0
57.460        53
57.470        13
57.480        13
57.490        27
57.500        13
57.510        13
57.520        13
57.530        40
57.540        13
57.550        27
57.560         0
57.570        13
57.580        27
57.590         0
57.600         0
57.610         0
57.620        13
57.630        40
57.640         0
57.650        40
57.660        27
57.670        13
57.680         0
57.690         0
57.700        13
57.710         0
57.720        27
57.730        27
57.740        27
57.750         0
57.760        40
57.770        13
57.780        27
57.790        13
57.800        13
57.810        13
57.820        40
57.830         0
57.840        13
57.850        13
57.860         0
57.870         0
57.880         0
57.890         0
57.900         0
57.910        13
57.920         0
57.930         0
57.940         0
57.950        13
57.960         0
57.970        13
57.980        13
57.990        13
58.000         0
58.010        13
58.020        27
58.030         0
58.040        27
58.050        13
58.060        13
58.070         0
58.080         0
58.090        13
58.100        13
58.110        13
58.120        13
58.130         0
58.140         0
58.150        13
58.160        27
58.170         0
58.180        27
58.190         0
58.200        27
58.210        27
58.220         0
58.230        13
58.240         0
58.250        13
58.260        13
58.270        13
58.280        13
58.290         0
58.300         0
58.310        13
58.320         0
58.330         0
58.340         0
58.350        27
58.360         0
58.370         0
58.380        13
58.390         0
58.400        13
58.410        13
58.420        27
58.430        13
58.440        13
58.450        27
58.460         0
58.470         0
58.480         0
58.490        13
58.500        13
58.510        27
58.520         0
58.530        13
58.540        13
58.550         0
58.560        13
58.570         0
58.580        13
58.590        27
58.600        13
58.610         0
58.620        40
58.630        13
58.640         0
58.650         0
58.660        13
58.670        13
58.680         0
58.690        13
58.700        13
58.710         0
58.720         0
58.730         0
58.740         0
58.750        13
58.760         0
58.770         0
58.780         0
58.790         0
58.800        40
58.810        13
58.820        13
58.830        27
58.840         0
58.850        13
58.860        27
58.870        27
58.880        13
58.890        27
58.900        40
58.910         0
58.920        13
58.930         0
58.940        13
58.950        13
58.960         0
58.970        27
58.980        27
58.990         0
59.000        13
59.010        27
59.020        13
59.030        27
59.040         0
59.050        40
59.060         0
59.070         0
59.080         0
59.090        13
59.100        13
59.110        27
59.120         0
59.130        27
59.140        27
59.150         0
59.160        27
59.170        13
59.180         0
59.190        40
59.200        13
59.210        13
59.220        13
59.230        13
59.240         0
59.250        53
59.260         0
59.270         0
59.280         0
59.290         0
59.300        27
59.310         0
59.320        27
59.330         0
59.340        27
59.350        27
59.360         0
59.370        27
59.380        13
59.390        27
59.400        27
59.410         0
59.420        13
59.430         0
59.440        27
59.450         0
59.460         0
59.470        13
59.480         0
59.490        27
59.500        27
59.510         0
59.520        27
59.530         0
59.540        13
59.550        27
59.560        13
59.570         0
59.580         0
59.590        13
59.600         0
59.610         0
59.620        40
59.630        13
59.640        13
59.650         0
59.660        13
59.670         0
59.680        13
59.690         0
59.700        13
59.710         0
59.720        40
59.730        13
59.740         0
59.750        13
59.760        13
59.770        27
59.780        13
59.790         0
59.800        27
59.810         0
59.820        13
59.830         0
59.840         0
59.850         0
59.860        27
59.870         0
59.880        13
59.890         0
59.900        27
59.910        27
59.920        27
59.930         0
59.940        13
59.950        13
59.960         0
59.970         0
59.980         0
59.990        13
60.000         0
