20.000        67
20.010        27
20.020        33
20.030        40
20.040        13
20.050        40
20.060        13
20.070        13
20.080        60
20.090        33
20.100        33
20.110        20
20.120        47
20.130        60
20.140        27
20.150        40
20.160        27
20.170        33
20.180        53
20.190        60
20.200        33
20.210        40
20.220        33
20.230        20
20.240        73
20.250        47
20.260        20
20.270        20
20.280        47
20.290        60
20.300        20
20.310        27
20.320        53
20.330        60
20.340        33
20.350        33
20.360        47
20.370        40
20.380        27
20.390        33
20.400        53
20.410        13
20.420        60
20.430        33
20.440        33
20.450        33
20.460        33
20.470        40
20.480        20
20.490        47
20.500        53
20.510        53
20.520        20
20.530        60
20.540        67
20.550        20
20.560        40
20.570        13
20.580        73
20.590        20
20.600        33
20.610        53
20.620        27
20.630        40
20.640        13
20.650        53
20.660        13
20.670        13
20.680        60
20.690        53
20.700        20
20.710        80
20.720        20
20.730        40
20.740        67
20.750        53
20.760        33
20.770        13
20.780        33
20.790        47
20.800        27
20.810        67
20.820        27
20.830        27
20.840        20
20.850        27
20.860        13
20.870        13
20.880        40
20.890        20
20.900        27
20.910        33
20.920        47
20.930         0
20.940        13
20.950        73
20.960        47
20.970        60
20.980        40
20.990        20
21.000        27
21.010        33
21.020         7
21.030        27
21.040        27
21.050        47
21.060        40
21.070        20
21.080        27
21.090        33
21.100        60
21.110        53
21.120        13
21.130        33
21.140        67
21.150        27
21.160        27
21.170        40
21.180        73
21.190        47
21.200        47
21.210        13
21.220        13
21.230         7
21.240        27
21.250        53
21.260        53
21.270        27
21.280        47
21.290        27
21.300        33
21.310        20
21.320         7
21.330        53
21.340        60
21.350        53
21.360        13
21.370        40
21.380        60
21.390        73
21.400        67
21.410        33
21.420        40
21.430        27
21.440        47
21.450        47
21.460        13
21.470        33
21.480        40
21.490        33
21.500        27
21.510         7
21.520        47
21.530        40
21.540        40
21.550        47
21.560        33
21.570        40
21.580         7
21.590        27
21.600       100
21.610        27
21.620        20
21.630        40
21.640        67
21.650        33
21.660        60
21.670        27
21.680        60
21.690        20
21.700        20
21.710        53
21.720        33
21.730        33
21.740        40
21.750        53
21.760        73
21.770        53
21.780        40
21.790        20
21.800        33
21.810        67
21.820        53
21.830        40
21.840        20
21.850        33
21.860        40
21.870        27
21.880        33
21.890        40
21.900        20
21.910        33
21.920        53
21.930        40
21.940        27
21.950        40
21.960        40
21.970        20
21.980        13
21.990        53
22.000        47
22.010        60
22.020        67
22.030        40
22.040        60
22.050        27
22.060        53
22.070        60
22.080        60
22.090        13
22.100        40
22.110        33
22.120        27
22.130        53
22.140        40
22.150        67
22.160        47
22.170        47
22.180        33
22.190        33
22.200        47
22.210        40
22.220        27
22.230        60
22.240        27
22.250        53
22.260        60
22.270        60
22.280        33
22.290        60
22.300        67
22.310        73
22.320        40
22.330        40
22.340        60
22.350        40
22.360        53
22.370        47
22.380        67
22.390        33
22.400        27
22.410        33
22.420        27
22.430        53
22.440        27
22.450         7
22.460        33
22.470        53
22.480        47
22.490        87
22.500        47
22.510        20
22.520        20
22.530        47
22.540        60
22.550        33
22.560        33
22.570        20
22.580        40
22.590        20
22.600        13
22.610        33
22.620        40
22.630        53
22.640        20
22.650        27
22.660        20
22.670        53
22.680        40
22.690        40
22.700        40
22.710        40
22.720        33
22.730        27
22.740         7
22.750        40
22.760        47
22.770        27
22.780        40
22.790        40
22.800        60
22.810        60
22.820        33
22.830        27
22.840        40
22.850        33
22.860        73
22.870        47
22.880        27
22.890        33
22.900        33
22.910        60
22.920        20
22.930         7
22.940        60
22.950        40
22.960        33
22.970        53
22.980        47
22.990        53
23.000        33
23.010        40
23.020        20
23.030        60
23.040        13
23.050        40
23.060        27
23.070        27
23.080        40
23.090        20
23.100        60
23.110        60
23.120        13
23.130        40
23.140        40
23.150        13
23.160        20
23.170        20
23.180        20
23.190        40
23.200        40
23.210        27
23.220        53
23.230        40
23.240        60
23.250        47
23.260        53
23.270        40
23.280        47
23.290        20
23.300        33
23.310        47
23.320        27
23.330        60
23.340        33
23.350        53
23.360        20
23.370        47
23.380        20
23.390         0
23.400        33
23.410        27
23.420        33
23.430        20
23.440        53
23.450        47
23.460        47
23.470        27
23.480        27
23.490        53
23.500        67
23.510        20
23.520        53
23.530        13
23.540        33
23.550        40
23.560         7
23.570        40
23.580        40
23.590        67
23.600        20
23.610        13
23.620        53
23.630        20
23.640        27
23.650        20
23.660         7
23.670        80
23.680         7
23.690        40
23.700        33
23.710        13
23.720        47
23.730        33
23.740        40
23.750        27
23.760        47
23.770        40
23.780        27
23.790        47
23.800        40
23.810        47
23.820        40
23.830        60
23.840        60
23.850        40
23.860        33
23.870        47
23.880        33
23.890        27
23.900        20
23.910        20
23.920        33
23.930        47
23.940        53
23.950        13
23.960        40
23.970        47
23.980         7
23.990        47
24.000        67
24.010        53
24.020        53
24.030        27
24.040        20
24.050        40
24.060        27
24.070        40
24.080        27
24.090        53
24.100        33
24.110        20
24.120        27
24.130        33
24.140        27
24.150         0
24.160         7
24.170        20
24.180        20
24.190        27
24.200        47
24.210        20
24.220        33
24.230        27
24.240        40
24.250        33
24.260        20
24.270        47
24.280        40
24.290        27
24.300        47
24.310        13
24.320        27
24.330        27
24.340        13
24.350        33
24.360        40
24.370        20
24.380        60
24.390        40
24.400        47
24.410        13
24.420        27
24.430        13
24.440        33
24.450        33
24.460        40
24.470        33
24.480        33
24.490        13
24.500        27
24.510        40
24.520        20
24.530        47
24.540        40
24.550        13
24.560        60
24.570        20
24.580        27
24.590        33
24.600        33
24.610        13
24.620        40
24.630        47
24.640        53
24.650        40
24.660        13
24.670        27
24.680        33
24.690        53
24.700        20
24.710        67
24.720        33
24.730        33
24.740        27
24.750        27
24.760        27
24.770        13
24.780        33
24.790        27
24.800        33
24.810        60
24.820        87
24.830        53
24.840        27
24.850        40
24.860        27
24.870        27
24.880        53
24.890        47
24.900        27
24.910        40
24.920        27
24.930        73
24.940        47
24.950        20
24.960        47
24.970        67
24.980        13
24.990        33
25.000        33
25.010        27
25.020        47
25.030        53
25.040        47
25.050        33
25.060        33
25.070        47
25.080        27
25.090        13
25.100        13
25.110        33
25.120        33
25.130        33
25.140        27
25.150        27
25.160        33
25.170        27
25.180        13
25.190         7
25.200        53
25.210        33
25.220        27
25.230        27
25.240        27
25.250        53
25.260        20
25.270        27
25.280        40
25.290        20
25.300        33
25.310        27
25.320        47
25.330        47
25.340        27
25.350        47
25.360        40
25.370        33
25.380        27
25.390        40
25.400        40
25.410        20
25.420        33
25.430        47
25.440        33
25.450        60
25.460        27
25.470        67
25.480        33
25.490        20
25.500        33
25.510        27
25.520        60
25.530        27
25.540        73
25.550       133
25.560        93
25.570       120
25.580       107
25.590       147
25.600        93
25.610       107
25.620        80
25.630        93
25.640       100
25.650        67
25.660        47
25.670        47
25.680        73
25.690        53
25.700        13
25.710        33
25.720        47
25.730        40
25.740         7
25.750         7
25.760        13
25.770        27
25.780        33
25.790        27
25.800        27
25.810         7
25.820        13
25.830        33
25.840        33
25.850        33
25.860        13
25.870        20
25.880        20
25.890        33
25.900        33
25.910        13
25.920        60
25.930        33
25.940        27
25.950        33
25.960        20
25.970         0
25.980        27
25.990         7
26.000        20
26.010        20
26.020        13
26.030        27
26.040        20
26.050        13
26.060        20
26.070         7
26.080        27
26.090        20
26.100        20
26.110        27
26.120        40
26.130        27
26.140        40
26.150         0
26.160         7
26.170        27
26.180        27
26.190         7
26.200        20
26.210        27
26.220        27
26.230        47
26.240        27
26.250        20
26.260        33
26.270        27
26.280         0
26.290        60
26.300        27
26.310        53
26.320        40
26.330        13
26.340        20
26.350        27
26.360        33
26.370        40
26.380        27
26.390        47
26.400        40
26.410        13
26.420        33
26.430        13
26.440        20
26.450         7
26.460        33
26.470        47
26.480        27
26.490        20
26.500        40
26.510        27
26.520        13
26.530        40
26.540        40
26.550        40
26.560        53
26.570        60
26.580        27
26.590         7
26.600        47
26.610        27
26.620        33
26.630        13
26.640        47
26.650        20
26.660         7
26.670        27
26.680        53
26.690        27
26.700        33
26.710        40
26.720         7
26.730        27
26.740         7
26.750        47
26.760        13
26.770        33
26.780        40
26.790        27
26.800        40
26.810        33
26.820        27
26.830        20
26.840        40
26.850        33
26.860         7
26.870         0
26.880        27
26.890        40
26.900        40
26.910        20
26.920        33
26.930        33
26.940        13
26.950        20
26.960        13
26.970         7
26.980        73
26.990        27
27.000        27
27.010        27
27.020         7
27.030        20
27.040        20
27.050        27
27.060        13
27.070        33
27.080        27
27.090        40
27.100        40
27.110        47
27.120        20
27.130        33
27.140        33
27.150        27
27.160        20
27.170        20
27.180        33
27.190        33
27.200        27
27.210        33
27.220        33
27.230         7
27.240        20
27.250        47
27.260        20
27.270        27
27.280        33
27.290        13
27.300        33
27.310        27
27.320        27
27.330        33
27.340        33
27.350        27
27.360        20
27.370        33
27.380        47
27.390        13
27.400        20
27.410        27
27.420        27
27.430        20
27.440        40
27.450        40
27.460        33
27.470        27
27.480        20
27.490        40
27.500        20
27.510        33
27.520         7
27.530         7
27.540        40
27.550         0
27.560        20
27.570        13
27.580        13
27.590         7
27.600        20
27.610        40
27.620        20
27.630        53
27.640         7
27.650        20
27.660         0
27.670        20
27.680        27
27.690        27
27.700        40
27.710        27
27.720        53
27.730        20
27.740        40
27.750        27
27.760        20
27.770        47
27.780         0
27.790        33
27.800        13
27.810        13
27.820        13
27.830         0
27.840        13
27.850         0
27.860        33
27.870        33
27.880        27
27.890        27
27.900        20
27.910         7
27.920        20
27.930        27
27.940        27
27.950        27
27.960        40
27.970        27
27.980        27
27.990        20
28.000        33
28.010        20
28.020        20
28.030        60
28.040        40
28.050        33
28.060        33
28.070        47
28.080        40
28.090        53
28.100        20
28.110        27
28.120        33
28.130        13
28.140        40
28.150        33
28.160        20
28.170        27
28.180        20
28.190        27
28.200        20
28.210        20
28.220        33
28.230        20
28.240        20
28.250        33
28.260        33
28.270        20
28.280         0
28.290        40
28.300        40
28.310        13
28.320        20
28.330        13
28.340        33
28.350        20
28.360         7
28.370        20
28.380         7
28.390        33
28.400        27
28.410        27
28.420        47
28.430        20
28.440        20
28.450        13
28.460         0
28.470         7
28.480         7
28.490        13
28.500        13
28.510        47
28.520        53
28.530        20
28.540        33
28.550        33
28.560        33
28.570        13
28.580        27
28.590        13
28.600         7
28.610        27
28.620        47
28.630        20
28.640        27
28.650        47
28.660        20
28.670        27
28.680        20
28.690        27
28.700        53
28.710        27
28.720        33
28.730        20
28.740         7
28.750        33
28.760        13
28.770        33
28.780        27
28.790        40
28.800        33
28.810        40
28.820        53
28.830        27
28.840        60
28.850        20
28.860        20
28.870         0
28.880        33
28.890        33
28.900        13
28.910        20
28.920        27
28.930        20
28.940        20
28.950        33
28.960        40
28.970        13
28.980        27
28.990        20
29.000        40
29.010        33
29.020        60
29.030        13
29.040        40
29.050        27
29.060        20
29.070        13
29.080        27
29.090        27
29.100        53
29.110        67
29.120        27
29.130        13
29.140        20
29.150        40
29.160        40
29.170        53
29.180        60
29.190        27
29.200        47
29.210        27
29.220        47
29.230        20
29.240        13
29.250        73
29.260        40
29.270        67
29.280        60
29.290       107
29.300        60
29.310        47
29.320        73
29.330        53
29.340        53
29.350       100
29.360        53
29.370        47
29.380        20
29.390        60
29.400        20
29.410        47
29.420        33
29.430        33
29.440        47
29.450        13
29.460        27
29.470        27
29.480        13
29.490        33
29.500        47
29.510        27
29.520        20
29.530        20
29.540        20
29.550        20
29.560        20
29.570        27
29.580        40
29.590        27
29.600        20
29.610         0
29.620        27
29.630        33
29.640        47
29.650        20
29.660        27
29.670         7
29.680        27
29.690        20
29.700        13
29.710        27
29.720        33
29.730        13
29.740        13
29.750        13
29.760         7
29.770        20
29.780        13
29.790        13
29.800        27
29.810        13
29.820        13
29.830        13
29.840        20
29.850        20
29.860        60
29.870        20
29.880        27
29.890        33
29.900        20
29.910        13
29.920        27
29.930        27
29.940        20
29.950        20
29.960        20
29.970        20
29.980        40
29.990        33
30.000        33
30.010        27
30.020        53
30.030        20
30.040        33
30.050        20
30.060        27
30.070        27
30.080         7
30.090        20
30.100        13
30.110        27
30.120        27
30.130        40
30.140         7
30.150        27
30.160         7
30.170        13
30.180        13
30.190        27
30.200        20
30.210        20
30.220        40
30.230        20
30.240        33
30.250        13
30.260        20
30.270        20
30.280        13
30.290        13
30.300         7
30.310         7
30.320        27
30.330         0
30.340         7
30.350        27
30.360        27
30.370        33
30.380        13
30.390         7
30.400        13
30.410        40
30.420        13
30.430        20
30.440        47
30.450        40
30.460        40
30.470        20
30.480        13
30.490        40
30.500        20
30.510        33
30.520        40
30.530        13
30.540        27
30.550         7
30.560        13
30.570        13
30.580        13
30.590        13
30.600        13
30.610        40
30.620        33
30.630        40
30.640        13
30.650         7
30.660        13
30.670        40
30.680        40
30.690        33
30.700        33
30.710        13
30.720        20
30.730        13
30.740         7
30.750        40
30.760        27
30.770        27
30.780        27
30.790        33
30.800        13
30.810         7
30.820        33
30.830        27
30.840        13
30.850        13
30.860        13
30.870        33
30.880        20
30.890        27
30.900        20
30.910        33
30.920        27
30.930        20
30.940         7
30.950        47
30.960        13
30.970         7
30.980        13
30.990        47
31.000        13
31.010        27
31.020        47
31.030         0
31.040        20
31.050        27
31.060        13
31.070        40
31.080         7
31.090        53
31.100        20
31.110         0
31.120        47
31.130         7
31.140        40
31.150        40
31.160        40
31.170        60
31.180        47
31.190        47
31.200        40
31.210        67
31.220        40
31.230         0
31.240        33
31.250        33
31.260        33
31.270        20
31.280        33
31.290        47
31.300        40
31.310        47
31.320        20
31.330        27
31.340        33
31.350        27
31.360        60
31.370        40
31.380        27
31.390        60
31.400        60
31.410        47
31.420        53
31.430        40
31.440       120
31.450        53
31.460        40
31.470        40
31.480        53
31.490        47
31.500        80
31.510        80
31.520       107
31.530        47
31.540       127
31.550        73
31.560        67
31.570       127
31.580       107
31.590       120
31.600       180
31.610       133
31.620        87
31.630       120
31.640       107
31.650       133
31.660       160
31.670       133
31.680       160
31.690       153
31.700       233
31.710       180
31.720       180
31.730       187
31.740       173
31.750       153
31.760       140
31.770       147
31.780       160
31.790       133
31.800       100
31.810       127
31.820       120
31.830       120
31.840       133
31.850       120
31.860       120
31.870        87
31.880       113
31.890        80
31.900        60
31.910        53
31.920        40
31.930        33
31.940        53
31.950        73
31.960        47
31.970        33
31.980        40
31.990        47
32.000        33
32.010        20
32.020        33
32.030        53
32.040        47
32.050        33
32.060        27
32.070        27
32.080        33
32.090        40
32.100        47
32.110        27
32.120        20
32.130        27
32.140         7
32.150        33
32.160        13
32.170        13
32.180        13
32.190        33
32.200        33
32.210        40
32.220        20
32.230        33
32.240        40
32.250        27
32.260        40
32.270        27
32.280        40
32.290        13
32.300        33
32.310        33
32.320        40
32.330        13
32.340         0
32.350        13
32.360        33
32.370        20
32.380        27
32.390         7
32.400        20
32.410        27
32.420        27
32.430        33
32.440        33
32.450        13
32.460        27
32.470        53
32.480        53
32.490        33
32.500        53
32.510        47
32.520        27
32.530        40
32.540        13
32.550        13
32.560        20
32.570         7
32.580        20
32.590        60
32.600         7
32.610         7
32.620        20
32.630        40
32.640        47
32.650        33
32.660        20
32.670         7
32.680        13
32.690        13
32.700        33
32.710        20
32.720        27
32.730        13
32.740        33
32.750        33
32.760        33
32.770        33
32.780        47
32.790        27
32.800        33
32.810        27
32.820        40
32.830        20
32.840        33
32.850        13
32.860        27
32.870        33
32.880        20
32.890         7
32.900        27
32.910        47
32.920        13
32.930        40
32.940        40
32.950        20
32.960        13
32.970        27
32.980        33
32.990         7
33.000        13
33.010        20
33.020        13
33.030        27
33.040        40
33.050        33
33.060        33
33.070        33
33.080        20
33.090        20
33.100         0
33.110        20
33.120        20
33.130        13
33.140        27
33.150        33
33.160        47
33.170        13
33.180        40
33.190        27
33.200        13
33.210        27
33.220        40
33.230        13
33.240        53
33.250        33
33.260        27
33.270         0
33.280        20
33.290        27
33.300        13
33.310        20
33.320        20
33.330        27
33.340        47
33.350        33
33.360        27
33.370         7
33.380        13
33.390        33
33.400        20
33.410        40
33.420        20
33.430        33
33.440        33
33.450        40
33.460        27
33.470        33
33.480        27
33.490        13
33.500         0
33.510        13
33.520        13
33.530         0
33.540        47
33.550        33
33.560         7
33.570        33
33.580        33
33.590        20
33.600        20
33.610        27
33.620        53
33.630        27
33.640        33
33.650        13
33.660        20
33.670         7
33.680        13
33.690        20
33.700        40
33.710        20
33.720        27
33.730        27
33.740        20
33.750        27
33.760        13
33.770        13
33.780        13
33.790         7
33.800        27
33.810        13
33.820        40
33.830        20
33.840        20
33.850        40
33.860        33
33.870        13
33.880         7
33.890        13
33.900        20
33.910        13
33.920        27
33.930         7
33.940         0
33.950        27
33.960         7
33.970        13
33.980        27
33.990        20
34.000        20
34.010        13
34.020        20
34.030        27
34.040        20
34.050        13
34.060        40
34.070        20
34.080        60
34.090        20
34.100        20
34.110        33
34.120         7
34.130        40
34.140         7
34.150        53
34.160         0
34.170        40
34.180         7
34.190        13
34.200        47
34.210        40
34.220        27
34.230        33
34.240         0
34.250         7
34.260        47
34.270        27
34.280         7
34.290        20
34.300        67
34.310        20
34.320         7
34.330        40
34.340        27
34.350         7
34.360        27
34.370        27
34.380        20
34.390        20
34.400         7
34.410        47
34.420        47
34.430        20
34.440        20
34.450         7
34.460        33
34.470        27
34.480         7
34.490        13
34.500        33
34.510        40
34.520        27
34.530        33
34.540        33
34.550        13
34.560        20
34.570         7
34.580        33
34.590        33
34.600        33
34.610        27
34.620         7
34.630        27
34.640         7
34.650        27
34.660        13
34.670        27
34.680        27
34.690        33
34.700        20
34.710        20
34.720         0
34.730        27
34.740        40
34.750        20
34.760        33
34.770        20
34.780        33
34.790        27
34.800        20
34.810        33
34.820        40
34.830        40
34.840         7
34.850        40
34.860        47
34.870        20
34.880        47
34.890        20
34.900        27
34.910        40
34.920        13
34.930        13
34.940        40
34.950        20
34.960        47
34.970        27
34.980        47
34.990        73
35.000        40
35.010        67
35.020        73
35.030        73
35.040        53
35.050        80
35.060        73
35.070        80
35.080       120
35.090       127
35.100       140
35.110       107
35.120       193
35.130       187
35.140       240
35.150       173
35.160       293
35.170       220
35.180       187
35.190       207
35.200       160
35.210       173
35.220       167
35.230       127
35.240       173
35.250        80
35.260       133
35.270        80
35.280       127
35.290       120
35.300        53
35.310        80
35.320        40
35.330        33
35.340        40
35.350        33
35.360        33
35.370        60
35.380        33
35.390        33
35.400        33
35.410        47
35.420        20
35.430        13
35.440        47
35.450        33
35.460         7
35.470        33
35.480        20
35.490        33
35.500        20
35.510        20
35.520        27
35.530        27
35.540        40
35.550         7
35.560         0
35.570        20
35.580        33
35.590        20
35.600        13
35.610        13
35.620        40
35.630        47
35.640        40
35.650        33
35.660        13
35.670        33
35.680        33
35.690        13
35.700        53
35.710        20
35.720        13
35.730        13
35.740        13
35.750        33
35.760        33
35.770         7
35.780        13
35.790        20
35.800         7
35.810        13
35.820        40
35.830        53
35.840        20
35.850        33
35.860        27
35.870        47
35.880        53
35.890        13
35.900        20
35.910        33
35.920        20
35.930        33
35.940        13
35.950        47
35.960        13
35.970        40
35.980        33
35.990        33
36.000        27
36.010        20
36.020        20
36.030        40
36.040        20
36.050        40
36.060        20
36.070        20
36.080         7
36.090        20
36.100        13
36.110        27
36.120        47
36.130        13
36.140        33
36.150        20
36.160        27
36.170        20
36.180        33
36.190        13
36.200        20
36.210        20
36.220        27
36.230        27
36.240        33
36.250        20
36.260         7
36.270        27
36.280        20
36.290        27
36.300        27
36.310         7
36.320        20
36.330        27
36.340        47
36.350        20
36.360        33
36.370         7
36.380        33
36.390        27
36.400        13
36.410        27
36.420        13
36.430         7
36.440         7
36.450        13
36.460         7
36.470        33
36.480        27
36.490        20
36.500        20
36.510        13
36.520        27
36.530        13
36.540        27
36.550         0
36.560        13
36.570        27
36.580        20
36.590         0
36.600        13
36.610        13
36.620        20
36.630        33
36.640         7
36.650         0
36.660        27
36.670        20
36.680        20
36.690        20
36.700         0
36.710         7
36.720         7
36.730        20
36.740        33
36.750        20
36.760        40
36.770        20
36.780         7
36.790        33
36.800        33
36.810        20
36.820        27
36.830        60
36.840        40
36.850        27
36.860         7
36.870        33
36.880        27
36.890        13
36.900        47
36.910        20
36.920        20
36.930        20
36.940        33
36.950        27
36.960        20
36.970        27
36.980        33
36.990        13
37.000        20
37.010        27
37.020        33
37.030        20
37.040         7
37.050        33
37.060        47
37.070        27
37.080        20
37.090        53
37.100        20
37.110        20
37.120        20
37.130        20
37.140        20
37.150        33
37.160        47
37.170        13
37.180         7
37.190        13
37.200        33
37.210         0
37.220        20
37.230        27
37.240        13
37.250        47
37.260        33
37.270         7
37.280        40
37.290        20
37.300        13
37.310        27
37.320        33
37.330        20
37.340        13
37.350        33
37.360        27
37.370        20
37.380        13
37.390        33
37.400        27
37.410         0
37.420        20
37.430        20
37.440        27
37.450         7
37.460        20
37.470        27
37.480        33
37.490        13
37.500         0
37.510        27
37.520        20
37.530        53
37.540        13
37.550        13
37.560        20
37.570        27
37.580        40
37.590        13
37.600        13
37.610        47
37.620        13
37.630        27
37.640        40
37.650        33
37.660        20
37.670        33
37.680        47
37.690        33
37.700        40
37.710        47
37.720        33
37.730        13
37.740        67
37.750        27
37.760        47
37.770        60
37.780        47
37.790        73
37.800        80
37.810        60
37.820        27
37.830        53
37.840        33
37.850        73
37.860        40
37.870        40
37.880        27
37.890        53
37.900        20
37.910        60
37.920        13
37.930        40
37.940        40
37.950        20
37.960        27
37.970         0
37.980        13
37.990         7
38.000        20
38.010         7
38.020        27
38.030         0
38.040        20
38.050         0
38.060        47
38.070        40
38.080        40
38.090        40
38.100        20
38.110        20
38.120        33
38.130        27
38.140        47
38.150         7
38.160        47
38.170        40
38.180        60
38.190        27
38.200        20
38.210        33
38.220        13
38.230        40
38.240        27
38.250        20
38.260        33
38.270        13
38.280        20
38.290        47
38.300        13
38.310        13
38.320        27
38.330        33
38.340        27
38.350        13
38.360        13
38.370        20
38.380        13
38.390        47
38.400        27
38.410        33
38.420        13
38.430        27
38.440        47
38.450        40
38.460        27
38.470        47
38.480        13
38.490        27
38.500         7
38.510        33
38.520        20
38.530        13
38.540        40
38.550        53
38.560        40
38.570        20
38.580         7
38.590        13
38.600        27
38.610        20
38.620        27
38.630        27
38.640        33
38.650        33
38.660        33
38.670        27
38.680        20
38.690        27
38.700         7
38.710        20
38.720         7
38.730        20
38.740        27
38.750        27
38.760        33
38.770        13
38.780        20
38.790        27
38.800        20
38.810         7
38.820        13
38.830        13
38.840        20
38.850         7
38.860        33
38.870        13
38.880        47
38.890         0
38.900        13
38.910         7
38.920        33
38.930        33
38.940        33
38.950        13
38.960        20
38.970        20
38.980        20
38.990        20
39.000        20
39.010        27
39.020        47
39.030        27
39.040        33
39.050         7
39.060        20
39.070        53
39.080        53
39.090        27
39.100        60
39.110        60
39.120        47
39.130       100
39.140        73
39.150        67
39.160        80
39.170       133
39.180       107
39.190        67
39.200       127
39.210       100
39.220        80
39.230        93
39.240       100
39.250        87
39.260        73
39.270        47
39.280        80
39.290       107
39.300        47
39.310       107
39.320       127
39.330        73
39.340        60
39.350       113
39.360        80
39.370        67
39.380        80
39.390        27
39.400        33
39.410        33
39.420        33
39.430        60
39.440         7
39.450        40
39.460        87
39.470        47
39.480        27
39.490        47
39.500        27
39.510        40
39.520        27
39.530        33
39.540        20
39.550        33
39.560        20
39.570        53
39.580        27
39.590        20
39.600        40
39.610        27
39.620        13
39.630        33
39.640        13
39.650        27
39.660        47
39.670         7
39.680        27
39.690        27
39.700        20
39.710        40
39.720        33
39.730        27
39.740        27
39.750         7
39.760         7
39.770        40
39.780        27
39.790        27
39.800        47
39.810        13
39.820        20
39.830        27
39.840         7
39.850        27
39.860        33
39.870         7
39.880        20
39.890        33
39.900        33
39.910        13
39.920         7
39.930        40
39.940        27
39.950        20
39.960        33
39.970        13
39.980        13
39.990        47
40.000        33
40.010        27
40.020        13
40.030        20
40.040        13
40.050        13
40.060         7
40.070        20
40.080         7
40.090         7
40.100        27
40.110        20
40.120        20
40.130        13
40.140        13
40.150         0
40.160        13
40.170        13
40.180         7
40.190         7
40.200        13
40.210        20
40.220        13
40.230        27
40.240        13
40.250        13
40.260        60
40.270        27
40.280        13
40.290        20
40.300        13
40.310        20
40.320         7
40.330        27
40.340        47
40.350        13
40.360        27
40.370        27
40.380        27
40.390         0
40.400        13
40.410        20
40.420        20
40.430        20
40.440        27
40.450        13
40.460         0
40.470         0
40.480        13
40.490        40
40.500        27
40.510        27
40.520        13
40.530        13
40.540        13
40.550        33
40.560        20
40.570         0
40.580         7
40.590        27
40.600        20
40.610        27
40.620        27
40.630        20
40.640        20
40.650        20
40.660        20
40.670        33
40.680        33
40.690         0
40.700        20
40.710        20
40.720        20
40.730         7
40.740        13
40.750        20
40.760        20
40.770         7
40.780        20
40.790         0
40.800        20
40.810        40
40.820        20
40.830        13
40.840        27
40.850         7
40.860        40
40.870        27
40.880        53
40.890        20
40.900        27
40.910        40
40.920        13
40.930        20
40.940        27
40.950        27
40.960        13
40.970        20
40.980        27
40.990        13
41.000         7
41.010         0
41.020        13
41.030        33
41.040        20
41.050        20
41.060        27
41.070        47
41.080        20
41.090         7
41.100        27
41.110         0
41.120        33
41.130        40
41.140        53
41.150        27
41.160        27
41.170        40
41.180        27
41.190        27
41.200        13
41.210        33
41.220         7
41.230        33
41.240        27
41.250        40
41.260        33
41.270        13
41.280        20
41.290        20
41.300        27
41.310        20
41.320         7
41.330        33
41.340        27
41.350        20
41.360        33
41.370        20
41.380        27
41.390         7
41.400         7
41.410        27
41.420         7
41.430        33
41.440        20
41.450        27
41.460        13
41.470        27
41.480        13
41.490        20
41.500        20
41.510        33
41.520        13
41.530        20
41.540        27
41.550        13
41.560        47
41.570        27
41.580        60
41.590        47
41.600        47
41.610        27
41.620        33
41.630        20
41.640        40
41.650        73
41.660        47
41.670        67
41.680        60
41.690       113
41.700        80
41.710        87
41.720        80
41.730        60
41.740        80
41.750        67
41.760        47
41.770        67
41.780        33
41.790        53
41.800        47
41.810        67
41.820        60
41.830        67
41.840        47
41.850        33
41.860        40
41.870        40
41.880        20
41.890        20
41.900        27
41.910         7
41.920        20
41.930        13
41.940         7
41.950        13
41.960        33
41.970        13
41.980        20
41.990        33
42.000        33
42.010        20
42.020        20
42.030        27
42.040        33
42.050        13
42.060        33
42.070        27
42.080        20
42.090        27
42.100        13
42.110        27
42.120        33
42.130        27
42.140        33
42.150        27
42.160         7
42.170        27
42.180        13
42.190        27
42.200        20
42.210        13
42.220        20
42.230        13
42.240        27
42.250        20
42.260        20
42.270        20
42.280        13
42.290        20
42.300        27
42.310        73
42.320        33
42.330        20
42.340        40
42.350        33
42.360        40
42.370         7
42.380        20
42.390         0
42.400        33
42.410        40
42.420         7
42.430        40
42.440         0
42.450        20
42.460         7
42.470        13
42.480        33
42.490         7
42.500         0
42.510        27
42.520        27
42.530        33
42.540        13
42.550        13
42.560        13
42.570         0
42.580        27
42.590        13
42.600        27
42.610        20
42.620        33
42.630        20
42.640        40
42.650         7
42.660        27
42.670        53
42.680        27
42.690        13
42.700        13
42.710        27
42.720        13
42.730        13
42.740         7
42.750        20
42.760        33
42.770        40
42.780        40
42.790        20
42.800        27
42.810         7
42.820        13
42.830        27
42.840        20
42.850        20
42.860        27
42.870         7
42.880         0
42.890        20
42.900        40
42.910         0
42.920        40
42.930        27
42.940        27
42.950        20
42.960        40
42.970        13
42.980        27
42.990        27
43.000        47
43.010        27
43.020        47
43.030        27
43.040        27
43.050        27
43.060        27
43.070        53
43.080        27
43.090        47
43.100        40
43.110        13
43.120        40
43.130        40
43.140        33
43.150         0
43.160        20
43.170        33
43.180        40
43.190        73
43.200        33
43.210        53
43.220        20
43.230        33
43.240        40
43.250        67
43.260         7
43.270        20
43.280        80
43.290        47
43.300        33
43.310        60
43.320       133
43.330       107
43.340       107
43.350       147
43.360       193
43.370       227
43.380       140
43.390       213
43.400       173
43.410       240
43.420       167
43.430       120
43.440       140
43.450        87
43.460       120
43.470        73
43.480        93
43.490       100
43.500       127
43.510        93
43.520       107
43.530       133
43.540       153
43.550        67
43.560        20
43.570        33
43.580        20
43.590        53
43.600        27
43.610        13
43.620        27
43.630        27
43.640        13
43.650        13
43.660        20
43.670        27
43.680         7
43.690        13
43.700        20
43.710        20
43.720        20
43.730        27
43.740        13
43.750        13
43.760        27
43.770        20
43.780        33
43.790        33
43.800        27
43.810        40
43.820        20
43.830         7
43.840        13
43.850         7
43.860        13
43.870        27
43.880        40
43.890        13
43.900        20
43.910         7
43.920        13
43.930        20
43.940         7
43.950        27
43.960        27
43.970        20
43.980        20
43.990         0
44.000        33
44.010         7
44.020        33
44.030        13
44.040        27
44.050        40
44.060        20
44.070        13
44.080        33
44.090         7
44.100         7
44.110        13
44.120         7
44.130        20
44.140        13
44.150        40
44.160        27
44.170        27
44.180        13
44.190        20
44.200        20
44.210         7
44.220        20
44.230         7
44.240         0
44.250         7
44.260        20
44.270         7
44.280        13
44.290         7
44.300        20
44.310        27
44.320         7
44.330         7
44.340        47
44.350        20
44.360        73
44.370        53
44.380        27
44.390        20
44.400         7
44.410        20
44.420        13
44.430        13
44.440         7
44.450         7
44.460        13
44.470        53
44.480        27
44.490        13
44.500        20
44.510         7
44.520        13
44.530        13
44.540        13
44.550        40
44.560        33
44.570        20
44.580        40
44.590        20
44.600        33
44.610        20
44.620        27
44.630         7
44.640        13
44.650        40
44.660         7
44.670        13
44.680        27
44.690        20
44.700        20
44.710        27
44.720        20
44.730         0
44.740        13
44.750        27
44.760        33
44.770        20
44.780        27
44.790        27
44.800        27
44.810        20
44.820        33
44.830        20
44.840        13
44.850        20
44.860         0
44.870        13
44.880        27
44.890         7
44.900        13
44.910        20
44.920         0
44.930        47
44.940        47
44.950        20
44.960        27
44.970        20
44.980        13
44.990        33
45.000        20
45.010         7
45.020        13
45.030        33
45.040        13
45.050        20
45.060        20
45.070        20
45.080        27
45.090        20
45.100        13
45.110        20
45.120        40
45.130        20
45.140        33
45.150        20
45.160        20
45.170        33
45.180        27
45.190        47
45.200        27
45.210        40
45.220        67
45.230        47
45.240        47
45.250        33
45.260        47
45.270        27
45.280        53
45.290        40
45.300        60
45.310        27
45.320        47
45.330        40
45.340        40
45.350        47
45.360        20
45.370        40
45.380        47
45.390        40
45.400        80
45.410        33
45.420        67
45.430        60
45.440        73
45.450        80
45.460        53
45.470        60
45.480        60
45.490        53
45.500       100
45.510        67
45.520        27
45.530        47
45.540        73
45.550        80
45.560        20
45.570        47
45.580        60
45.590        53
45.600        53
45.610        67
45.620        47
45.630        33
45.640        40
45.650        47
45.660        40
45.670        47
45.680        53
45.690        20
45.700        53
45.710        33
45.720        40
45.730        60
45.740        20
45.750        53
45.760        33
45.770        40
45.780        47
45.790        33
45.800        60
45.810        20
45.820        20
45.830        53
45.840        13
45.850        13
45.860        13
45.870        47
45.880        47
45.890        20
45.900        67
45.910        27
45.920        33
45.930        13
45.940        20
45.950        13
45.960         7
45.970        33
45.980        13
45.990        13
46.000        53
46.010        33
46.020        27
46.030        27
46.040        20
46.050        20
46.060        40
46.070        33
46.080         7
46.090        40
46.100         7
46.110        40
46.120        60
46.130        33
46.140        27
46.150        13
46.160        13
46.170        13
46.180        13
46.190        13
46.200        40
46.210        40
46.220        27
46.230        27
46.240        13
46.250        33
46.260        27
46.270         0
46.280        13
46.290         0
46.300        20
46.310        60
46.320        47
46.330        20
46.340        27
46.350         7
46.360        13
46.370        27
46.380        33
46.390        27
46.400        40
46.410        27
46.420        27
46.430        27
46.440         7
46.450        20
46.460        13
46.470        40
46.480        27
46.490        13
46.500         0
46.510        33
46.520        20
46.530        20
46.540        13
46.550        27
46.560         7
46.570        13
46.580        13
46.590        20
46.600         7
46.610         7
46.620        13
46.630        13
46.640        33
46.650        73
46.660        40
46.670        27
46.680        27
46.690        33
46.700        13
46.710         7
46.720        20
46.730        20
46.740        13
46.750        13
46.760        20
46.770        27
46.780         0
46.790        33
46.800        27
46.810        13
46.820        27
46.830        27
46.840        33
46.850        20
46.860        33
46.870        13
46.880        40
46.890         7
46.900        13
46.910         7
46.920        33
46.930        20
46.940        33
46.950         7
46.960        13
46.970        27
46.980        20
46.990        13
47.000        33
47.010        20
47.020         7
47.030        13
47.040        27
47.050        27
47.060         0
47.070        33
47.080         7
47.090        20
47.100        33
47.110        27
47.120        13
47.130         7
47.140        20
47.150        27
47.160        33
47.170        40
47.180        33
47.190        20
47.200        20
47.210         0
47.220        20
47.230        40
47.240        13
47.250        47
47.260        27
47.270        33
47.280        33
47.290        33
47.300        33
47.310        20
47.320        33
47.330        40
47.340        13
47.350        27
47.360        27
47.370        40
47.380        33
47.390        33
47.400        40
47.410        47
47.420        33
47.430        53
47.440        20
47.450        60
47.460        53
47.470        67
47.480         7
47.490        27
47.500        33
47.510        47
47.520        20
47.530        40
47.540        20
47.550        33
47.560        60
47.570        40
47.580        27
47.590        33
47.600         7
47.610        40
47.620        13
47.630        20
47.640        47
47.650        27
47.660        40
47.670        33
47.680        20
47.690         0
47.700        33
47.710        27
47.720        20
47.730        27
47.740        13
47.750        13
47.760        20
47.770        20
47.780        20
47.790        40
47.800        33
47.810        13
47.820         7
47.830         0
47.840        40
47.850         0
47.860        20
47.870        33
47.880        33
47.890        20
47.900        40
47.910        27
47.920        20
47.930        40
47.940        20
47.950        20
47.960        20
47.970        20
47.980         7
47.990        20
48.000        13
48.010        47
48.020        20
48.030        27
48.040        27
48.050         7
48.060         7
48.070        13
48.080        13
48.090        20
48.100        13
48.110         7
48.120        13
48.130         7
48.140        27
48.150         7
48.160        13
48.170        13
48.180        13
48.190         7
48.200        27
48.210        13
48.220         7
48.230        13
48.240        13
48.250        27
48.260        53
48.270        27
48.280        33
48.290        20
48.300        13
48.310        20
48.320        27
48.330        33
48.340        53
48.350        20
48.360         7
48.370         0
48.380        13
48.390        20
48.400        13
48.410        20
48.420        27
48.430        20
48.440        20
48.450        33
48.460        20
48.470        27
48.480        53
48.490        33
48.500        53
48.510        40
48.520         7
48.530        20
48.540         7
48.550        20
48.560        47
48.570        27
48.580        53
48.590        20
48.600        47
48.610        13
48.620        40
48.630         7
48.640        20
48.650         0
48.660        20
48.670        27
48.680        20
48.690        13
48.700        20
48.710        27
48.720        47
48.730        13
48.740         7
48.750        20
48.760        40
48.770        13
48.780        27
48.790        20
48.800        27
48.810        27
48.820        13
48.830        27
48.840        20
48.850        27
48.860         7
48.870         0
48.880        40
48.890        20
48.900        27
48.910        13
48.920        13
48.930        33
48.940         7
48.950        20
48.960         7
48.970         0
48.980         7
48.990        13
49.000        13
49.010        27
49.020        20
49.030        27
49.040         7
49.050        27
49.060        20
49.070        33
49.080         0
49.090         7
49.100        13
49.110         7
49.120        33
49.130        27
49.140         7
49.150         0
49.160        13
49.170         7
49.180         7
49.190         7
49.200        13
49.210        27
49.220        20
49.230         7
49.240         7
49.250        13
49.260         7
49.270         7
49.280        13
49.290        27
49.300         7
49.310        13
49.320        20
49.330         0
49.340        20
49.350         7
49.360        20
49.370         7
49.380        13
49.390        27
49.400        20
49.410         7
49.420        20
49.430        13
49.440        13
49.450         7
49.460        20
49.470        20
49.480        13
49.490        20
49.500        27
49.510        27
49.520        13
49.530        40
49.540        13
49.550         0
49.560        13
49.570        27
49.580         0
49.590        27
49.600        20
49.610        27
49.620        27
49.630        27
49.640        20
49.650        27
49.660         0
49.670        27
49.680        13
49.690         7
49.700        13
49.710        13
49.720        13
49.730         7
49.740        13
49.750         7
49.760        13
49.770        27
49.780         0
49.790        20
49.800         0
49.810        13
49.820        27
49.830        40
49.840        20
49.850        40
49.860        13
49.870        27
49.880         0
49.890        20
49.900        13
49.910        33
49.920        13
49.930         7
49.940        33
49.950        20
49.960        27
49.970        20
49.980        40
49.990         0
50.000         7
50.010        20
50.020        27
50.030         0
50.040         0
50.050        13
50.060         0
50.070        13
50.080        40
50.090         7
50.100         0
50.110        27
50.120         7
50.130        20
50.140        47
50.150        13
50.160        20
50.170        20
50.180         0
50.190        20
50.200        20
50.210        13
50.220        33
50.230        33
50.240        20
50.250        33
50.260        20
50.270        33
50.280        27
50.290         0
50.300        20
50.310        13
50.320        13
50.330        27
50.340         7
50.350        20
50.360        13
50.370        13
50.380         0
50.390         7
50.400         7
50.410        27
50.420         7
50.430        27
50.440        27
50.450        67
50.460        20
50.470        20
50.480        27
50.490        20
50.500        13
50.510        27
50.520        20
50.530        20
50.540         7
50.550        13
50.560        33
50.570        27
50.580        13
50.590         0
50.600         0
50.610        13
50.620        13
50.630        20
50.640        20
50.650         0
50.660        20
50.670        20
50.680        20
50.690        27
50.700         7
50.710        27
50.720         7
50.730        20
50.740         7
50.750        13
50.760        13
50.770        33
50.780        13
50.790         0
50.800        13
50.810        33
50.820        20
50.830        20
50.840        20
50.850        47
50.860        13
50.870        20
50.880         0
50.890         0
50.900         7
50.910        20
50.920        33
50.930        20
50.940         7
50.950         7
50.960        60
50.970        13
50.980        13
50.990        13
51.000        27
51.010        27
51.020        27
51.030        13
51.040        27
51.050        33
51.060        20
51.070        40
51.080        33
51.090        20
51.100        27
51.110        40
51.120        13
51.130        13
51.140        13
51.150        13
51.160        13
51.170        20
51.180        13
51.190        13
51.200        20
51.210        20
51.220        47
51.230         7
51.240        13
51.250        20
51.260        13
51.270        13
51.280        20
51.290        13
51.300        13
51.310        13
51.320        47
51.330         7
51.340        13
51.350         7
51.360        13
51.370        47
51.380        20
51.390        20
51.400        27
51.410        33
51.420        47
51.430        20
51.440        13
51.450        13
51.460         0
51.470        33
51.480        27
51.490        13
51.500        27
51.510         7
51.520         7
51.530         7
51.540        40
51.550        20
51.560        13
51.570        20
51.580         7
51.590        20
51.600         7
51.610        27
51.620         7
51.630        13
51.640        20
51.650        20
51.660         7
51.670        20
51.680         0
51.690        27
51.700         7
51.710        13
51.720         7
51.730        20
51.740        20
51.750        27
51.760        40
51.770        27
51.780        27
51.790        13
51.800         7
51.810        27
51.820         7
51.830         7
51.840        53
51.850        13
51.860        20
51.870        13
51.880         7
51.890        13
51.900        13
51.910        47
51.920        13
51.930         7
51.940        13
51.950         7
51.960         7
51.970        13
51.980         0
51.990         0
52.000        13
52.010        27
52.020        13
52.030        20
52.040        20
52.050        20
52.060         7
52.070        27
52.080         0
52.090        33
52.100         0
52.110         7
52.120        13
52.130        20
52.140        13
52.150        20
52.160        20
52.170        20
52.180        40
52.190        13
52.200        27
52.210        27
52.220        27
52.230        33
52.240        13
52.250        13
52.260         7
52.270        13
52.280        20
52.290        13
52.300        47
52.310        13
52.320        27
52.330        27
52.340        13
52.350        40
52.360        20
52.370         0
52.380        27
52.390        20
52.400         7
52.410        27
52.420        13
52.430        13
52.440        20
52.450        33
52.460        20
52.470        40
52.480        40
52.490        73
52.500        67
52.510        80
52.520        67
52.530        67
52.540        73
52.550        20
52.560        27
52.570        33
52.580        33
52.590        27
52.600        60
52.610        47
52.620        40
52.630        40
52.640        73
52.650        47
52.660       113
52.670        53
52.680        40
52.690        53
52.700        53
52.710        40
52.720        27
52.730        40
52.740        53
52.750        40
52.760        27
52.770        27
52.780        27
52.790        47
52.800        20
52.810        13
52.820         7
52.830        33
52.840        20
52.850        13
52.860         7
52.870        33
52.880         7
52.890         7
52.900        13
52.910        13
52.920         7
52.930        13
52.940         7
52.950        27
52.960        27
52.970        27
52.980         7
52.990        13
53.000        27
53.010        13
53.020        13
53.030        13
53.040        20
53.050        13
53.060         7
53.070        27
53.080        20
53.090        20
53.100        20
53.110        13
53.120        20
53.130        20
53.140        20
53.150        20
53.160         0
53.170         7
53.180        13
53.190        27
53.200         7
53.210         7
53.220        27
53.230        27
53.240        13
53.250        20
53.260        13
53.270        33
53.280         7
53.290        13
53.300         0
53.310        20
53.320        20
53.330        13
53.340        20
53.350         7
53.360         7
53.370         7
53.380        13
53.390        13
53.400        13
53.410         7
53.420        13
53.430        33
53.440         0
53.450        27
53.460        13
53.470        13
53.480        13
53.490         0
53.500        27
53.510        20
53.520        20
53.530         7
53.540        27
53.550         7
53.560        20
53.570        20
53.580         0
53.590         7
53.600         0
53.610        13
53.620        13
53.630        13
53.640        13
53.650        13
53.660        20
53.670        27
53.680        20
53.690        27
53.700        20
53.710        13
53.720         7
53.730         7
53.740        20
53.750         0
53.760         7
53.770         7
53.780        13
53.790         7
53.800        20
53.810        33
53.820        20
53.830        27
53.840         7
53.850         7
53.860        20
53.870        27
53.880        67
53.890        13
53.900        27
53.910        13
53.920        20
53.930        13
53.940        13
53.950        13
53.960        20
53.970        27
53.980        13
53.990         7
54.000         0
54.010        20
54.020        13
54.030        13
54.040         0
54.050        20
54.060        13
54.070        40
54.080         0
54.090        13
54.100        20
54.110        27
54.120        20
54.130        13
54.140         7
54.150        27
54.160        20
54.170        20
54.180        20
54.190        13
54.200        20
54.210        13
54.220         7
54.230        20
54.240        13
54.250         7
54.260        20
54.270        20
54.280        13
54.290         0
54.300         0
54.310         7
54.320        20
54.330         0
54.340         7
54.350        20
54.360        13
54.370        20
54.380        20
54.390         7
54.400        13
54.410        13
54.420        13
54.430        27
54.440        13
54.450         7
54.460         7
54.470        20
54.480         7
54.490        20
54.500        20
54.510         7
54.520        33
54.530        20
54.540         7
54.550         7
54.560         7
54.570        27
54.580        20
54.590        33
54.600        20
54.610        13
54.620        20
54.630         0
54.640        47
54.650        47
54.660        27
54.670        13
54.680        27
54.690        40
54.700        13
54.710        13
54.720         0
54.730        40
54.740        20
54.750         7
54.760         0
54.770        27
54.780        27
54.790        20
54.800        20
54.810         0
54.820        20
54.830        20
54.840        13
54.850        20
54.860        13
54.870        20
54.880        27
54.890        33
54.900         7
54.910        13
54.920         7
54.930        27
54.940         0
54.950        33
54.960        33
54.970        27
54.980        13
54.990        40
55.000        40
55.010        20
55.020         7
55.030        33
55.040        40
55.050        13
55.060        20
55.070        27
55.080        33
55.090        20
55.100        13
55.110        20
55.120        20
55.130        20
55.140         7
55.150        40
55.160         0
55.170        27
55.180        20
55.190        33
55.200        33
55.210        27
55.220        40
55.230        13
55.240         7
55.250        40
55.260        20
55.270        13
55.280        13
55.290        13
55.300        20
55.310        20
55.320        20
55.330        27
55.340        13
55.350        27
55.360        27
55.370        13
55.380        13
55.390         7
55.400        13
55.410        20
55.420        33
55.430        20
55.440        33
55.450        13
55.460         7
55.470         7
55.480        13
55.490        53
55.500         7
55.510         7
55.520        40
55.530         7
55.540        33
55.550         7
55.560        20
55.570         0
55.580        20
55.590        20
55.600        27
55.610         7
55.620        33
55.630        13
55.640        27
55.650        13
55.660        33
55.670         7
55.680        13
55.690         7
55.700        20
55.710        13
55.720         7
55.730        27
55.740        40
55.750        47
55.760        20
55.770        13
55.780        20
55.790        33
55.800        20
55.810        20
55.820         0
55.830        20
55.840         7
55.850        33
55.860        27
55.870        13
55.880        20
55.890         7
55.900        27
55.910        20
55.920        20
55.930        33
55.940        20
55.950        33
55.960        13
55.970        20
55.980         7
55.990        20
56.000         0
56.010        20
56.020        13
56.030        20
56.040        20
56.050         7
56.060        20
56.070         7
56.080        20
56.090        33
56.100        60
56.110        13
56.120        40
56.130        20
56.140        27
56.150        33
56.160        13
56.170        13
56.180        33
56.190         7
56.200        27
56.210        13
56.220        27
56.230        13
56.240        13
56.250        40
56.260        27
56.270        27
56.280        13
56.290        27
56.300         7
56.310        13
56.320         7
56.330        27
56.340        40
56.350        40
56.360        33
56.370        20
56.380        20
56.390        47
56.400        53
56.410        27
56.420        53
56.430        33
56.440        33
56.450        80
56.460        47
56.470        80
56.480        60
56.490        67
56.500        53
56.510        87
56.520        73
56.530        73
56.540       100
56.550        93
56.560       120
56.570       107
56.580       100
56.590       113
56.600        60
56.610       153
56.620       160
56.630        80
56.640        87
56.650       107
56.660       100
56.670        47
56.680       100
56.690       120
56.700       100
56.710        53
56.720       107
56.730        40
56.740        80
56.750        60
56.760        60
56.770        60
56.780        87
56.790       107
56.800        60
56.810        73
56.820        33
56.830        33
56.840        40
56.850        33
56.860        47
56.870        87
56.880        60
56.890        27
56.900        33
56.910        13
56.920        47
56.930        33
56.940        47
56.950        27
56.960        47
56.970        20
56.980        27
56.990        33
57.000        40
57.010        40
57.020        27
57.030        33
57.040        40
57.050        13
57.060         7
57.070        20
57.080        40
57.090        53
57.100        47
57.110        27
57.120        13
57.130        33
57.140         0
57.150        20
57.160        27
57.170        33
57.180        13
57.190        47
57.200        27
57.210        33
57.220        33
57.230        47
57.240        27
57.250        33
57.260        20
57.270        33
57.280        47
57.290        47
57.300        20
57.310        27
57.320        33
57.330        40
57.340        20
57.350        40
57.360        20
57.370        33
57.380        47
57.390        40
57.400        33
57.410        60
57.420        53
57.430        73
57.440        67
57.450       100
57.460        93
57.470       113
57.480        80
57.490        67
57.500        67
57.510       173
57.520       153
57.530       207
57.540       200
57.550       240
57.560       287
57.570       207
57.580       247
57.590       267
57.600       160
57.610       113
57.620       113
57.630        60
57.640        60
57.650        60
57.660        80
57.670        87
57.680        93
57.690       107
57.700       107
57.710        93
57.720       133
57.730       113
57.740       180
57.750       120
57.760        67
57.770        53
57.780        53
57.790        47
57.800        40
57.810        27
57.820        27
57.830         0
57.840        33
57.850        33
57.860        27
57.870        20
57.880         0
57.890        27
57.900        27
57.910         7
57.920        20
57.930         7
57.940        13
57.950        47
57.960        13
57.970        27
57.980        27
57.990         7
58.000        27
58.010        40
58.020        13
58.030         7
58.040        20
58.050        20
58.060        13
58.070        13
58.080        27
58.090        13
58.100        13
58.110        13
58.120        20
58.130         0
58.140        13
58.150         7
58.160         7
58.170        13
58.180        20
58.190        13
58.200        13
58.210         0
58.220        27
58.230        27
58.240        20
58.250         7
58.260        13
58.270         7
58.280        40
58.290        13
58.300        33
58.310         0
58.320        20
58.330        13
58.340        20
58.350        13
58.360         7
58.370         7
58.380        20
58.390         7
58.400        20
58.410        20
58.420        33
58.430        20
58.440        20
58.450        13
58.460        13
58.470        33
58.480        13
58.490         7
58.500         7
58.510        13
58.520        20
58.530        40
58.540        27
58.550         7
58.560         7
58.570         7
58.580         7
58.590        20
58.600        27
58.610         7
58.620        33
58.630        13
58.640        13
58.650        13
58.660        13
58.670        27
58.680         7
58.690        13
58.700        13
58.710        20
58.720        27
58.730        13
58.740        27
58.750         7
58.760        20
58.770        27
58.780         7
58.790         0
58.800        13
58.810         0
58.820         0
58.830        20
58.840        33
58.850        40
58.860        20
58.870         7
58.880        27
58.890        13
58.900         7
58.910        20
58.920         7
58.930        13
58.940        27
58.950         7
58.960        13
58.970        27
58.980        20
58.990        13
59.000         0
59.010         7
59.020        13
59.030        20
59.040         7
59.050        13
59.060         0
59.070        20
59.080        33
59.090        13
59.100         0
59.110         7
59.120        13
59.130         7
59.140        20
59.150        27
59.160        20
59.170         0
59.180        13
59.190        20
59.200         7
59.210        33
59.220        27
59.230        13
59.240        13
59.250        27
59.260        27
59.270        13
59.280         0
59.290        33
59.300        13
59.310         7
59.320         7
59.330         0
59.340        40
59.350         0
59.360        13
59.370        33
59.380        20
59.390        33
59.400         7
59.410        20
59.420        20
59.430        27
59.440        33
59.450        40
59.460         7
59.470        20
59.480        20
59.490         7
59.500        27
59.510        20
59.520        33
59.530         0
59.540        27
59.550        13
59.560         7
59.570        27
59.580        27
59.590        40
59.600        20
59.610        40
59.620        13
59.630        20
59.640         7
59.650        13
59.660        20
59.670        13
59.680        20
59.690        27
59.700         7
59.710        33
59.720         0
59.730        27
59.740        33
59.750         7
59.760        27
59.770        13
59.780        27
59.790        33
59.800        13
59.810        40
59.820        13
59.830        13
59.840         7
59.850        27
59.860         0
59.870        33
59.880         7
59.890        33
59.900         0
59.910        47
59.920        13
59.930         7
59.940         0
59.950        20
59.960        13
59.970        33
59.980        20
59.990        13
60.000        13
