20.000       760
20.010       580
20.020       540
20.030       706
20.040       746
20.050       726
20.060       653
20.070       573
20.080       633
20.090       680
20.100       606
20.110       620
20.120       673
20.130       613
20.140       606
20.150       700
20.160       713
20.170       660
20.180       633
20.190       620
20.200       546
20.210       586
20.220       626
20.230       640
20.240       706
20.250       633
20.260       720
20.270       733
20.280       606
20.290       586
20.300       633
20.310       613
20.320       706
20.330       640
20.340       560
20.350       606
20.360       553
20.370       606
20.380       646
20.390       666
20.400       546
20.410       553
20.420       600
20.430       600
20.440       646
20.450       553
20.460       633
20.470       666
20.480       720
20.490       633
20.500       606
20.510       526
20.520       693
20.530       566
20.540       600
20.550       686
20.560       653
20.570       526
20.580       613
20.590       666
20.600       513
20.610       613
20.620       566
20.630       646
20.640       620
20.650       593
20.660       660
20.670       573
20.680       580
20.690       560
20.700       553
20.710       580
20.720       526
20.730       540
20.740       633
20.750       620
20.760       700
20.770       573
20.780       566
20.790       586
20.800       673
20.810       600
20.820       566
20.830       473
20.840       620
20.850       593
20.860       533
20.870       573
20.880       606
20.890       573
20.900       640
20.910       513
20.920       513
20.930       600
20.940       466
20.950       640
20.960       473
20.970       533
20.980       600
20.990       666
21.000       606
21.010       526
21.020       573
21.030       613
21.040       593
21.050       600
21.060       520
21.070       680
21.080       513
21.090       620
21.100       553
21.110       586
21.120       660
21.130       493
21.140       646
21.150       540
21.160       546
21.170       586
21.180       553
21.190       633
21.200       526
21.210       586
21.220       600
21.230       633
21.240       466
21.250       580
21.260       600
21.270       606
21.280       500
21.290       506
21.300       560
21.310       686
21.320       560
21.330       560
21.340       633
21.350       513
21.360       466
21.370       613
21.380       573
21.390       620
21.400       460
21.410       500
21.420       606
21.430       500
21.440       600
21.450       620
21.460       580
21.470       533
21.480       553
21.490       586
21.500       520
21.510       473
21.520       440
21.530       606
21.540       440
21.550       533
21.560       566
21.570       573
21.580       493
21.590       560
21.600       460
21.610       426
21.620       460
21.630       473
21.640       560
21.650       420
21.660       620
21.670       560
21.680       586
21.690       493
21.700       533
21.710       540
21.720       660
21.730       486
21.740       546
21.750       367
21.760       513
21.770       466
21.780       533
21.790       553
21.800       446
21.810       546
21.820       493
21.830       480
21.840       466
21.850       473
21.860       500
21.870       473
21.880       553
21.890       486
21.900       506
21.910       420
21.920       526
21.930       506
21.940       533
21.950       526
21.960       506
21.970       526
21.980       520
21.990       480
22.000       473
22.010       426
22.020       446
22.030       433
22.040       486
22.050       600
22.060       586
22.070       480
22.080       533
22.090       533
22.100       560
22.110       473
22.120       513
22.130       473
22.140       480
22.150       440
22.160       426
22.170       506
22.180       453
22.190       460
22.200       466
22.210       500
22.220       486
22.230       440
22.240       400
22.250       506
22.260       500
22.270       413
22.280       580
22.290       500
22.300       453
22.310       480
22.320       533
22.330       500
22.340       460
22.350       433
22.360       433
22.370       440
22.380       420
22.390       440
22.400       533
22.410       553
22.420       533
22.430       420
22.440       500
22.450       466
22.460       460
22.470       367
22.480       320
22.490       500
22.500       493
22.510       473
22.520       526
22.530       380
22.540       506
22.550       480
22.560       340
22.570       480
22.580       500
22.590       327
22.600       513
22.610       466
22.620       446
22.630       387
22.640       506
22.650       526
22.660       380
22.670       480
22.680       426
22.690       506
22.700       313
22.710       426
22.720       453
22.730       480
22.740       373
22.750       460
22.760       400
22.770       360
22.780       433
22.790       466
22.800       367
22.810       413
22.820       500
22.830       493
22.840       400
22.850       400
22.860       347
22.870       500
22.880       473
22.890       433
22.900       380
22.910       506
22.920       360
22.930       367
22.940       426
22.950       420
22.960       367
22.970       560
22.980       400
22.990       433
23.000       407
23.010       333
23.020       333
23.030       433
23.040       267
23.050       360
23.060       380
23.070       393
23.080       426
23.090       433
23.100       433
23.110       400
23.120       380
23.130       313
23.140       387
23.150       446
23.160       433
23.170       413
23.180       373
23.190       460
23.200       380
23.210       420
23.220       340
23.230       400
23.240       360
23.250       453
23.260       420
23.270       393
23.280       433
23.290       367
23.300       320
23.310       413
23.320       420
23.330       367
23.340       426
23.350       440
23.360       327
23.370       340
23.380       420
23.390       353
23.400       387
23.410       367
23.420       293
23.430       313
23.440       380
23.450       320
23.460       407
23.470       347
23.480       473
23.490       380
23.500       387
23.510       426
23.520       407
23.530       387
23.540       426
23.550       426
23.560       407
23.570       486
23.580       453
23.590       353
23.600       333
23.610       453
23.620       367
23.630       300
23.640       340
23.650       367
23.660       320
23.670       333
23.680       273
23.690       347
23.700       280
23.710       353
23.720       360
23.730       273
23.740       273
23.750       333
23.760       333
23.770       367
23.780       247
23.790       353
23.800       267
23.810       273
23.820       327
23.830       407
23.840       433
23.850       446
23.860       293
23.870       313
23.880       407
23.890       287
23.900       273
23.910       320
23.920       313
23.930       333
23.940       373
23.950       440
23.960       253
23.970       313
23.980       340
23.990       333
24.000       320
24.010       367
24.020       313
24.030       400
24.040       426
24.050       333
24.060       360
24.070       327
24.080       420
24.090       307
24.100       407
24.110       426
24.120       280
24.130       380
24.140       333
24.150       267
24.160       393
24.170       247
24.180       300
24.190       333
24.200       260
24.210       400
24.220       293
24.230       293
24.240       320
24.250       313
24.260       267
24.270       347
24.280       273
24.290       333
24.300       267
24.310       347
24.320       360
24.330       293
24.340       327
24.350       347
24.360       380
24.370       340
24.380       287
24.390       260
24.400       333
24.410       300
24.420       280
24.430       247
24.440       333
24.450       307
24.460       340
24.470       267
24.480       193
24.490       260
24.500       300
24.510       253
24.520       247
24.530       260
24.540       267
24.550       353
24.560       247
24.570       333
24.580       313
24.590       320
24.600       267
24.610       327
24.620       307
24.630       307
24.640       287
24.650       253
24.660       320
24.670       360
24.680       327
24.690       313
24.700       220
24.710       273
24.720       273
24.730       307
24.740       333
24.750       267
24.760       293
24.770       253
24.780       373
24.790       213
24.800       300
24.810       287
24.820       273
24.830       247
24.840       240
24.850       300
24.860       320
24.870       253
24.880       307
24.890       313
24.900       233
24.910       273
24.920       307
24.930       313
24.940       213
24.950       387
24.960       320
24.970       240
24.980       273
24.990       327
25.000       287
25.010       280
25.020       260
25.030       267
25.040       293
25.050       273
25.060       253
25.070       273
25.080       227
25.090       260
25.100       280
25.110       313
25.120       300
25.130       260
25.140       240
25.150       207
25.160       340
25.170       240
25.180       240
25.190       307
25.200       280
25.210       300
25.220       233
25.230       247
25.240       253
25.250       293
25.260       280
25.270       240
25.280       240
25.290       353
25.300       213
25.310       200
25.320       240
25.330       207
25.340       153
25.350       253
25.360       193
25.370       220
25.380       267
25.390       200
25.400       267
25.410       227
25.420       273
25.430       253
25.440       307
25.450       247
25.460       167
25.470       247
25.480       173
25.490       187
25.500       267
25.510       260
25.520       307
25.530       213
25.540       167
25.550       280
25.560       193
25.570       187
25.580       260
25.590       213
25.600       260
25.610       253
25.620       220
25.630       233
25.640       200
25.650       160
25.660       240
25.670       187
25.680       220
25.690       240
25.700       207
25.710       173
25.720       253
25.730       227
25.740       127
25.750       180
25.760       207
25.770       213
25.780       153
25.790       167
25.800       147
25.810       213
25.820       207
25.830       253
25.840       147
25.850       153
25.860       200
25.870       233
25.880       173
25.890       167
25.900       187
25.910       200
25.920       133
25.930       193
25.940       173
25.950       180
25.960       153
25.970       140
25.980       213
25.990       227
26.000       173
26.010       200
26.020       187
26.030       193
26.040       167
26.050       227
26.060       127
26.070       180
26.080       120
26.090       213
26.100       207
26.110       173
26.120       160
26.130       173
26.140       227
26.150       180
26.160       147
26.170       113
26.180       173
26.190       147
26.200       167
26.210       147
26.220       153
26.230       173
26.240       147
26.250       153
26.260       153
26.270       187
26.280       167
26.290       173
26.300       127
26.310       153
26.320       133
26.330       153
26.340       200
26.350       133
26.360       187
26.370       100
26.380       173
26.390       140
26.400       147
26.410       133
26.420       173
26.430       113
26.440       207
26.450       133
26.460       107
26.470       173
26.480       120
26.490       187
26.500       147
26.510       160
26.520       173
26.530       147
26.540       133
26.550       153
26.560       107
26.570       167
26.580       107
26.590       147
26.600       173
26.610       187
26.620       140
26.630       113
26.640       167
26.650       140
26.660        93
26.670       140
26.680       133
26.690       113
26.700       147
26.710       127
26.720       153
26.730       127
26.740       147
26.750       160
26.760       167
26.770       140
26.780       140
26.790       140
26.800       120
26.810       127
26.820       107
26.830       120
26.840       127
26.850       133
26.860       113
26.870        87
26.880       127
26.890       113
26.900       100
26.910        87
26.920       120
26.930       140
26.940       140
26.950       107
26.960       193
26.970       107
26.980       153
26.990       153
27.000       180
27.010       100
27.020       147
27.030       173
27.040       147
27.050        87
27.060       167
27.070       127
27.080       153
27.090       187
27.100       107
27.110       133
27.120       153
27.130       113
27.140       120
27.150       133
27.160       180
27.170       153
27.180       120
27.190       160
27.200       127
27.210       113
27.220       107
27.230       173
27.240       113
27.250       140
27.260       160
27.270       113
27.280       140
27.290       173
27.300       107
27.310       113
27.320       147
27.330       113
27.340       127
27.350       207
27.360        93
27.370       147
27.380        87
27.390        93
27.400       113
27.410        80
27.420       113
27.430       127
27.440       107
27.450       133
27.460       100
27.470       127
27.480        87
27.490       113
27.500       113
27.510       107
27.520       100
27.530       120
27.540        93
27.550        67
27.560       100
27.570       100
27.580       107
27.590        87
27.600        93
27.610       120
27.620       133
27.630        80
27.640        67
27.650       113
27.660        93
27.670       127
27.680       120
27.690       133
27.700       127
27.710       107
27.720       100
27.730       160
27.740        87
27.750       127
27.760        80
27.770        80
27.780        93
27.790        73
27.800       120
27.810       120
27.820        60
27.830       107
27.840        93
27.850        93
27.860        80
27.870       140
27.880       140
27.890        47
27.900       107
27.910       113
27.920        87
27.930       100
27.940        87
27.950       107
27.960        93
27.970       120
27.980        80
27.990       127
28.000        80
28.010        73
28.020        93
28.030       147
28.040       100
28.050        80
28.060       100
28.070        93
28.080        93
28.090       113
28.100       147
28.110        93
28.120       133
28.130        73
28.140       113
28.150       107
28.160        47
28.170       100
28.180       140
28.190       113
28.200       113
28.210       107
28.220        87
28.230       100
28.240        67
28.250        87
28.260       107
28.270        87
28.280       113
28.290        80
28.300        80
28.310        67
28.320        93
28.330       113
28.340       113
28.350        67
28.360        67
28.370        67
28.380        47
28.390        80
28.400        73
28.410        53
28.420        73
28.430        87
28.440        47
28.450        87
28.460        87
28.470        60
28.480        73
28.490        73
28.500        60
28.510        80
28.520       113
28.530       100
28.540       100
28.550       100
28.560       100
28.570        80
28.580        67
28.590       100
28.600        87
28.610       100
28.620        60
28.630        73
28.640       107
28.650       100
28.660       107
28.670        93
28.680       140
28.690       100
28.700       133
28.710       120
28.720        73
28.730        47
28.740        93
28.750       107
28.760        40
28.770       107
28.780       100
28.790       127
28.800       100
28.810        67
28.820       107
28.830       100
28.840        73
28.850        87
28.860        80
28.870        67
28.880        87
28.890        60
28.900        93
28.910       107
28.920        67
28.930        60
28.940        80
28.950        80
28.960        67
28.970        60
28.980        80
28.990       100
29.000        87
29.010        93
29.020        93
29.030       100
29.040        73
29.050       107
29.060       127
29.070        67
29.080        33
29.090        67
29.100        93
29.110        93
29.120        67
29.130        80
29.140       127
29.150        80
29.160        87
29.170       100
29.180       153
29.190        87
29.200        93
29.210       107
29.220       107
29.230       140
29.240        73
29.250        60
29.260        67
29.270       113
29.280        60
29.290        93
29.300        87
29.310       120
29.320        87
29.330       107
29.340       120
29.350       133
29.360       133
29.370        53
29.380        87
29.390       113
29.400       120
29.410        47
29.420        80
29.430        53
29.440       100
29.450       120
29.460       113
29.470       113
29.480        80
29.490        73
29.500       113
29.510        60
29.520        67
29.530        53
29.540       113
29.550       107
29.560       140
29.570       100
29.580       160
29.590       107
29.600       113
29.610       127
29.620        73
29.630       100
29.640       107
29.650        67
29.660       127
29.670       140
29.680       127
29.690       107
29.700        87
29.710        87
29.720        73
29.730       107
29.740       100
29.750       107
29.760        80
29.770        80
29.780       100
29.790        40
29.800        73
29.810       100
29.820        60
29.830        73
29.840        80
29.850        80
29.860        67
29.870        80
29.880       127
29.890        73
29.900        53
29.910        40
29.920        93
29.930        60
29.940        87
29.950        47
29.960        53
29.970        73
29.980        80
29.990        80
30.000        80
30.010        67
30.020        53
30.030        93
30.040       100
30.050        67
30.060        93
30.070        87
30.080        53
30.090       113
30.100        47
30.110        67
30.120        80
30.130        47
30.140        80
30.150       120
30.160        80
30.170       107
30.180        60
30.190        67
30.200       113
30.210        73
30.220        80
30.230       100
30.240        60
30.250        67
30.260        80
30.270        60
30.280        67
30.290       107
30.300        60
30.310        93
30.320        67
30.330        40
30.340       100
30.350        73
30.360       107
30.370       120
30.380       113
30.390        73
30.400        60
30.410        80
30.420        80
30.430        67
30.440        93
30.450        73
30.460        87
30.470        80
30.480        40
30.490        47
30.500        93
30.510        47
30.520        87
30.530        73
30.540        67
30.550        93
30.560        80
30.570        80
30.580        60
30.590       100
30.600        73
30.610       100
30.620       133
30.630        53
30.640        87
30.650       113
30.660        67
30.670        53
30.680        73
30.690       107
30.700        53
30.710        87
30.720        73
30.730        47
30.740       100
30.750       113
30.760        60
30.770        53
30.780        80
30.790        87
30.800       100
30.810        93
30.820       107
30.830        53
30.840        93
30.850        87
30.860        40
30.870        53
30.880        80
30.890       100
30.900        73
30.910        87
30.920        53
30.930        87
30.940       100
30.950       113
30.960       100
30.970        93
30.980       120
30.990       107
31.000        73
31.010        80
31.020        80
31.030        80
31.040        73
31.050        80
31.060        60
31.070        80
31.080        87
31.090        60
31.100       107
31.110        73
31.120       100
31.130        53
31.140       100
31.150        67
31.160        80
31.170       113
31.180        73
31.190        73
31.200        67
31.210        67
31.220        67
31.230       113
31.240       100
31.250        87
31.260        80
31.270        60
31.280        87
31.290        87
31.300        73
31.310        60
31.320        67
31.330       140
31.340        53
31.350        80
31.360        93
31.370       127
31.380       113
31.390        80
31.400        47
31.410        93
31.420        73
31.430        93
31.440       100
31.450       107
31.460        67
31.470        60
31.480       100
31.490        80
31.500        87
31.510       107
31.520       107
31.530       100
31.540        73
31.550        93
31.560       127
31.570        80
31.580       113
31.590        80
31.600       113
31.610       107
31.620       133
31.630        67
31.640       120
31.650       113
31.660       153
31.670        60
31.680       127
31.690       120
31.700       127
31.710       167
31.720       173
31.730       153
31.740       133
31.750       200
31.760       227
31.770       180
31.780       173
31.790       207
31.800       260
31.810       220
31.820       367
31.830       300
31.840       340
31.850       360
31.860       413
31.870       393
31.880       373
31.890       347
31.900       393
31.910       293
31.920       393
31.930       247
31.940       327
31.950       300
31.960       373
31.970       313
31.980       433
31.990       400
32.000       313
32.010       347
32.020       433
32.030       506
32.040       500
32.050       486
32.060       693
32.070       700
32.080      1140
32.090      2086
32.100      2652
32.110      3152
32.120      3778
32.130      4118
32.140      4025
32.150      3592
32.160      2932
32.170      2412
32.180      1513
32.190      1086
32.200       766
32.210       686
32.220       526
32.230       573
32.240       400
32.250       300
32.260       393
32.270       420
32.280       253
32.290       300
32.300       273
32.310       333
32.320       240
32.330       220
32.340       200
32.350       267
32.360       240
32.370       233
32.380       173
32.390       193
32.400       180
32.410       173
32.420       187
32.430       193
32.440       133
32.450       127
32.460       147
32.470       153
32.480       127
32.490       180
32.500       200
32.510        87
32.520        67
32.530       113
32.540       107
32.550       193
32.560       120
32.570       160
32.580       160
32.590       153
32.600       140
32.610       173
32.620       113
32.630       160
32.640       120
32.650       107
32.660       127
32.670       160
32.680       140
32.690       153
32.700       133
32.710       153
32.720        93
32.730       140
32.740       127
32.750       140
32.760       147
32.770       133
32.780       100
32.790       220
32.800       140
32.810       140
32.820       207
32.830       147
32.840       180
32.850       120
32.860       167
32.870       107
32.880       140
32.890       127
32.900       160
32.910       100
32.920        93
32.930        93
32.940       133
32.950        93
32.960        93
32.970       100
32.980       133
32.990       107
33.000       153
33.010       133
33.020       100
33.030        67
33.040       107
33.050       147
33.060       127
33.070       100
33.080        87
33.090        87
33.100        93
33.110       113
33.120       107
33.130        80
33.140        87
33.150        67
33.160       127
33.170       100
33.180       127
33.190        73
33.200       113
33.210       113
33.220       153
33.230       100
33.240        80
33.250       120
33.260       133
33.270       220
33.280       107
33.290       160
33.300       127
33.310       133
33.320       133
33.330       133
33.340        80
33.350        87
33.360       127
33.370       113
33.380        67
33.390       127
33.400        80
33.410       107
33.420       120
33.430       100
33.440        93
33.450       113
33.460        73
33.470       100
33.480       107
33.490       120
33.500       167
33.510       113
33.520       100
33.530       113
33.540       127
33.550       133
33.560        80
33.570        80
33.580       140
33.590       133
33.600        87
33.610       147
33.620       107
33.630       133
33.640        87
33.650       147
33.660       120
33.670       100
33.680       140
33.690       153
33.700       147
33.710        67
33.720        80
33.730       120
33.740        93
33.750       100
33.760       120
33.770       140
33.780       133
33.790       127
33.800       113
33.810       120
33.820       107
33.830        80
33.840       140
33.850       107
33.860       120
33.870       120
33.880       113
33.890       153
33.900       173
33.910       100
33.920       140
33.930       107
33.940        73
33.950        87
33.960       100
33.970        87
33.980        93
33.990        87
34.000        67
34.010        53
34.020       107
34.030        53
34.040       107
34.050       113
34.060       153
34.070        80
34.080       107
34.090       133
34.100        87
34.110       120
34.120       113
34.130       120
34.140        87
34.150        87
34.160        93
34.170       113
34.180        53
34.190       100
34.200       113
34.210       100
34.220       100
34.230       127
34.240       113
34.250       187
34.260       160
34.270       127
34.280       160
34.290       153
34.300       173
34.310       113
34.320       187
34.330       113
34.340       160
34.350       213
34.360       227
34.370       280
34.380       393
34.390       393
34.400       500
34.410       706
34.420       773
34.430      1006
34.440      1060
34.450      1180
34.460      1166
34.470      1180
34.480      1240
34.490       966
34.500      1200
34.510      1293
34.520      1220
34.530      1233
34.540      1166
34.550      1286
34.560      1319
34.570      1359
34.580      1200
34.590      1246
34.600      1313
34.610      1339
34.620      1446
34.630      1293
34.640      1326
34.650      1353
34.660      1359
34.670      1333
34.680      1006
34.690      1293
34.700      1273
34.710      1339
34.720      1373
34.730      1386
34.740      1293
34.750      1146
34.760      1193
34.770      1286
34.780      1273
34.790      1240
34.800      1359
34.810      1359
34.820      1406
34.830      1233
34.840      1339
34.850      1299
34.860      1426
34.870      1366
34.880      1493
34.890      1386
34.900      1359
34.910      1273
34.920      1359
34.930      1160
34.940      1226
34.950      1279
34.960      1366
34.970      1513
34.980      1366
34.990      1279
35.000      1366
35.010      1439
35.020      1386
35.030      1553
35.040      1419
35.050      1339
35.060      1519
35.070      1413
35.080      1639
35.090      1653
35.100      1373
35.110      1366
35.120      1399
35.130      1339
35.140      1473
35.150      1546
35.160      1646
35.170      1753
35.180      1586
35.190      1706
35.200      1586
35.210      1613
35.220      1699
35.230      1653
35.240      1573
35.250      1759
35.260      1746
35.270      1626
35.280      1959
35.290      1839
35.300      1933
35.310      2026
35.320      2106
35.330      2106
35.340      2033
35.350      2199
35.360      2332
35.370      2526
35.380      2772
35.390      2779
35.400      3072
35.410      3405
35.420      3625
35.430      4125
35.440      5365
35.450      6464
35.460      8057
35.470      9603
35.480     12035
35.490     13215
35.500     15327
35.510     16907
35.520     18519
35.530     19426
35.540     20992
35.550     22478
35.560     26230
35.570     30041
35.580     37152
35.590     51146
35.600     83553
35.610    139597
35.620    203272
35.630    245155
35.640    267553
35.650    275057
35.660    276796
35.670    271458
35.680    262495
35.690    239064
35.700    204438
35.710    188638
35.720    188831
35.730    195282
35.740    202286
35.750    204911
35.760    201619
35.770    188051
35.780    161302
35.790    125596
35.800     85652
35.810     57350
35.820     41164
35.830     30748
35.840     25103
35.850     20865
35.860     18766
35.870     16980
35.880     15947
35.890     13941
35.900     12602
35.910     10522
35.920      9143
35.930      7470
35.940      5538
35.950      5005
35.960      4252
35.970      3419
35.980      3392
35.990      2985
36.000      2939
36.010      2646
36.020      2552
36.030      2626
36.040      2472
36.050      2592
36.060      2252
36.070      2199
36.080      2092
36.090      2186
36.100      1953
36.110      2239
36.120      1993
36.130      1686
36.140      1773
36.150      1773
36.160      1753
36.170      1853
36.180      1833
36.190      1806
36.200      1786
36.210      1726
36.220      1553
36.230      1739
36.240      1566
36.250      1473
36.260      1399
36.270      1413
36.280      1566
36.290      1579
36.300      1353
36.310      1426
36.320      1359
36.330      1519
36.340      1253
36.350      1353
36.360      1326
36.370      1086
36.380      1339
36.390      1393
36.400      1326
36.410      1133
36.420      1120
36.430      1160
36.440      1253
36.450      1180
36.460      1233
36.470      1279
36.480      1246
36.490      1173
36.500      1266
36.510      1180
36.520      1286
36.530      1133
36.540      1233
36.550      1033
36.560      1220
36.570      1146
36.580      1046
36.590      1086
36.600       980
36.610      1046
36.620      1106
36.630      1140
36.640      1060
36.650      1006
36.660       960
36.670      1146
36.680      1053
36.690      1040
36.700       913
36.710      1013
36.720       913
36.730       920
36.740       866
36.750      1006
36.760       960
36.770       846
36.780       866
36.790       860
36.800      1040
36.810       953
36.820       973
36.830       766
36.840      1093
36.850      1040
36.860       846
36.870       820
36.880       973
36.890       993
36.900       953
36.910      1060
36.920       900
36.930      1000
36.940       920
36.950       733
36.960       753
36.970       926
36.980       813
36.990       926
37.000       853
37.010       900
37.020       993
37.030       780
37.040       926
37.050       913
37.060       860
37.070       826
37.080       860
37.090       886
37.100       960
37.110       866
37.120       906
37.130       820
37.140       746
37.150       920
37.160       860
37.170       933
37.180       806
37.190       913
37.200       866
37.210       806
37.220       760
37.230       906
37.240       893
37.250       733
37.260       820
37.270       786
37.280       800
37.290       786
37.300       773
37.310       826
37.320       560
37.330       786
37.340       813
37.350       886
37.360       813
37.370       846
37.380       853
37.390       820
37.400       760
37.410       920
37.420       813
37.430       800
37.440       813
37.450       740
37.460       813
37.470       726
37.480       773
37.490       846
37.500       633
37.510       693
37.520       713
37.530       806
37.540       853
37.550       726
37.560       680
37.570       746
37.580       700
37.590       733
37.600       766
37.610       813
37.620       753
37.630       780
37.640       806
37.650       753
37.660       733
37.670       680
37.680       633
37.690       686
37.700       773
37.710       640
37.720       786
37.730       746
37.740       660
37.750       686
37.760       700
37.770       620
37.780       720
37.790       633
37.800       686
37.810       680
37.820       773
37.830       773
37.840       653
37.850       706
37.860       626
37.870       626
37.880       746
37.890       793
37.900       620
37.910       573
37.920       700
37.930       553
37.940       700
37.950       760
37.960       773
37.970       686
37.980       466
37.990       560
38.000       480
38.010       640
38.020       633
38.030       646
38.040       680
38.050       593
38.060       713
38.070       606
38.080       680
38.090       673
38.100       740
38.110       673
38.120       693
38.130       753
38.140       626
38.150       693
38.160       666
38.170       560
38.180       580
38.190       646
38.200       666
38.210       726
38.220       586
38.230       660
38.240       653
38.250       653
38.260       626
38.270       553
38.280       593
38.290       680
38.300       486
38.310       513
38.320       660
38.330       640
38.340       653
38.350       693
38.360       613
38.370       606
38.380       560
38.390       546
38.400       633
38.410       520
38.420       626
38.430       580
38.440       546
38.450       633
38.460       553
38.470       566
38.480       653
38.490       546
38.500       640
38.510       560
38.520       546
38.530       586
38.540       506
38.550       626
38.560       660
38.570       593
38.580       566
38.590       600
38.600       653
38.610       540
38.620       613
38.630       506
38.640       566
38.650       520
38.660       480
38.670       533
38.680       653
38.690       520
38.700       613
38.710       586
38.720       640
38.730       640
38.740       466
38.750       633
38.760       520
38.770       560
38.780       560
38.790       493
38.800       540
38.810       546
38.820       520
38.830       620
38.840       486
38.850       633
38.860       546
38.870       546
38.880       546
38.890       553
38.900       540
38.910       553
38.920       613
38.930       573
38.940       540
38.950       473
38.960       453
38.970       560
38.980       400
38.990       433
39.000       506
39.010       500
39.020       620
39.030       613
39.040       640
39.050       520
39.060       380
39.070       486
39.080       526
39.090       466
39.100       506
39.110       520
39.120       493
39.130       493
39.140       593
39.150       586
39.160       533
39.170       586
39.180       500
39.190       526
39.200       513
39.210       520
39.220       426
39.230       460
39.240       433
39.250       446
39.260       480
39.270       566
39.280       526
39.290       473
39.300       466
39.310       553
39.320       506
39.330       540
39.340       640
39.350       553
39.360       453
39.370       600
39.380       653
39.390       646
39.400       586
39.410       633
39.420       653
39.430       786
39.440       673
39.450       526
39.460       566
39.470       486
39.480       540
39.490       573
39.500       553
39.510       453
39.520       640
39.530       553
39.540       526
39.550       513
39.560       446
39.570       460
39.580       593
39.590       540
39.600       526
39.610       513
39.620       580
39.630       407
39.640       413
39.650       413
39.660       466
39.670       513
39.680       466
39.690       453
39.700       446
39.710       367
39.720       580
39.730       446
39.740       526
39.750       460
39.760       520
39.770       400
39.780       407
39.790       446
39.800       440
39.810       407
39.820       446
39.830       460
39.840       307
39.850       387
39.860       407
39.870       393
39.880       453
39.890       466
39.900       480
39.910       460
39.920       453
39.930       440
39.940       433
39.950       407
39.960       400
39.970       460
39.980       333
39.990       413
40.000       480
40.010       393
40.020       440
40.030       426
40.040       466
40.050       440
40.060       446
40.070       446
40.080       440
40.090       446
40.100       413
40.110       433
40.120       426
40.130       407
40.140       413
40.150       333
40.160       360
40.170       347
40.180       400
40.190       500
40.200       426
40.210       400
40.220       360
40.230       300
40.240       473
40.250       413
40.260       466
40.270       426
40.280       413
40.290       453
40.300       413
40.310       380
40.320       340
40.330       380
40.340       466
40.350       433
40.360       307
40.370       313
40.380       333
40.390       367
40.400       380
40.410       433
40.420       387
40.430       347
40.440       440
40.450       360
40.460       333
40.470       393
40.480       400
40.490       387
40.500       400
40.510       360
40.520       340
40.530       353
40.540       393
40.550       387
40.560       387
40.570       387
40.580       466
40.590       393
40.600       387
40.610       480
40.620       407
40.630       307
40.640       333
40.650       426
40.660       353
40.670       327
40.680       407
40.690       320
40.700       327
40.710       393
40.720       320
40.730       340
40.740       273
40.750       373
40.760       420
40.770       267
40.780       280
40.790       347
40.800       433
40.810       446
40.820       440
40.830       373
40.840       340
40.850       287
40.860       387
40.870       327
40.880       353
40.890       267
40.900       407
40.910       360
40.920       360
40.930       413
40.940       400
40.950       433
40.960       360
40.970       320
40.980       320
40.990       333
41.000       387
41.010       313
41.020       420
41.030       387
41.040       360
41.050       400
41.060       393
41.070       367
41.080       393
41.090       413
41.100       393
41.110       320
41.120       333
41.130       380
41.140       407
41.150       367
41.160       300
41.170       273
41.180       353
41.190       387
41.200       247
41.210       340
41.220       446
41.230       327
41.240       380
41.250       327
41.260       327
41.270       380
41.280       280
41.290       380
41.300       387
41.310       287
41.320       413
41.330       327
41.340       340
41.350       233
41.360       380
41.370       367
41.380       460
41.390       380
41.400       353
41.410       420
41.420       367
41.430       353
41.440       373
41.450       333
41.460       353
41.470       227
41.480       367
41.490       407
41.500       360
41.510       407
41.520       320
41.530       300
41.540       340
41.550       313
41.560       280
41.570       333
41.580       307
41.590       293
41.600       247
41.610       387
41.620       307
41.630       307
41.640       327
41.650       340
41.660       360
41.670       367
41.680       380
41.690       267
41.700       393
41.710       407
41.720       333
41.730       420
41.740       227
41.750       426
41.760       293
41.770       293
41.780       267
41.790       307
41.800       420
41.810       393
41.820       327
41.830       353
41.840       400
41.850       353
41.860       400
41.870       466
41.880       313
41.890       327
41.900       426
41.910       353
41.920       273
41.930       307
41.940       367
41.950       373
41.960       340
41.970       240
41.980       313
41.990       260
42.000       333
42.010       287
42.020       287
42.030       327
42.040       340
42.050       253
42.060       327
42.070       367
42.080       327
42.090       267
42.100       233
42.110       313
42.120       220
42.130       360
42.140       307
42.150       287
42.160       333
42.170       307
42.180       293
42.190       327
42.200       253
42.210       240
42.220       267
42.230       287
42.240       233
42.250       307
42.260       273
42.270       287
42.280       333
42.290       267
42.300       247
42.310       267
42.320       293
42.330       293
42.340       247
42.350       280
42.360       307
42.370       307
42.380       267
42.390       273
42.400       220
42.410       267
42.420       247
42.430       247
42.440       280
42.450       213
42.460       280
42.470       293
42.480       313
42.490       233
42.500       240
42.510       227
42.520       213
42.530       273
42.540       187
42.550       227
42.560       287
42.570       213
42.580       280
42.590       320
42.600       287
42.610       320
42.620       213
42.630       213
42.640       280
42.650       260
42.660       333
42.670       193
42.680       253
42.690       207
42.700       307
42.710       313
42.720       313
42.730       233
42.740       253
42.750       207
42.760       293
42.770       240
42.780       260
42.790       313
42.800       347
42.810       247
42.820       273
42.830       273
42.840       233
42.850       273
42.860       300
42.870       233
42.880       187
42.890       227
42.900       260
42.910       267
42.920       333
42.930       300
42.940       227
42.950       220
42.960       273
42.970       207
42.980       327
42.990       207
43.000       240
43.010       247
43.020       227
43.030       253
43.040       207
43.050       253
43.060       247
43.070       273
43.080       253
43.090       333
43.100       287
43.110       247
43.120       227
43.130       173
43.140       293
43.150       220
43.160       313
43.170       233
43.180       287
43.190       227
43.200       213
43.210       300
43.220       260
43.230       253
43.240       193
43.250       300
43.260       253
43.270       300
43.280       213
43.290       227
43.300       200
43.310       253
43.320       140
43.330       247
43.340       220
43.350       180
43.360       227
43.370       220
43.380       200
43.390       193
43.400       293
43.410       173
43.420       220
43.430       173
43.440       220
43.450       220
43.460       147
43.470       167
43.480       300
43.490       240
43.500       180
43.510       240
43.520       213
43.530       260
43.540       247
43.550       287
43.560       160
43.570       193
43.580       207
43.590       280
43.600       173
43.610       233
43.620       227
43.630       240
43.640       233
43.650       180
43.660       267
43.670       247
43.680       247
43.690       167
43.700       253
43.710       140
43.720       200
43.730       267
43.740       207
43.750       253
43.760       273
43.770       213
43.780       260
43.790       187
43.800       180
43.810       207
43.820       220
43.830       153
43.840       153
43.850       260
43.860       253
43.870       160
43.880       160
43.890       160
43.900       247
43.910       227
43.920       227
43.930       173
43.940       253
43.950       187
43.960       193
43.970       133
43.980       253
43.990       227
44.000       247
44.010       253
44.020       253
44.030       233
44.040       213
44.050       193
44.060       180
44.070       167
44.080       233
44.090       173
44.100       227
44.110       187
44.120       200
44.130       173
44.140       280
44.150       180
44.160       133
44.170       147
44.180       180
44.190       173
44.200       127
44.210       153
44.220       140
44.230       207
44.240       120
44.250       200
44.260       160
44.270       180
44.280       193
44.290       193
44.300       140
44.310       187
44.320       173
44.330       220
44.340       140
44.350       160
44.360       167
44.370       200
44.380       187
44.390       180
44.400       173
44.410       233
44.420       153
44.430       153
44.440       227
44.450       207
44.460       127
44.470       207
44.480       127
44.490       180
44.500       180
44.510       147
44.520       253
44.530       120
44.540       180
44.550       167
44.560       167
44.570       167
44.580       140
44.590       187
44.600       220
44.610       180
44.620       173
44.630       193
44.640       180
44.650       173
44.660       200
44.670       193
44.680       207
44.690       153
44.700       140
44.710       207
44.720       153
44.730       160
44.740       193
44.750       133
44.760       167
44.770       147
44.780       213
44.790       193
44.800       193
44.810       180
44.820       160
44.830       167
44.840       193
44.850       140
44.860       187
44.870       187
44.880       187
44.890       153
44.900       173
44.910       187
44.920       147
44.930       180
44.940       233
44.950        80
44.960       133
44.970       207
44.980       173
44.990       167
45.000       160
45.010       200
45.020       160
45.030       120
45.040       127
45.050       220
45.060       193
45.070       173
45.080       127
45.090       193
45.100       133
45.110       160
45.120       160
45.130       153
45.140       173
45.150       140
45.160       180
45.170       173
45.180       153
45.190       173
45.200       120
45.210       173
45.220       180
45.230       240
45.240       167
45.250       173
45.260       153
45.270       167
45.280       147
45.290       207
45.300       207
45.310       167
45.320       140
45.330       187
45.340       147
45.350       180
45.360       140
45.370       140
45.380       187
45.390       133
45.400       147
45.410       113
45.420       147
45.430       180
45.440       140
45.450       173
45.460       127
45.470       120
45.480       100
45.490       120
45.500       113
45.510       113
45.520       227
45.530       113
45.540       147
45.550       180
45.560       193
45.570       207
45.580       173
45.590       167
45.600       147
45.610       213
45.620       153
45.630       173
45.640       193
45.650       207
45.660       207
45.670       187
45.680       133
45.690       193
45.700       220
45.710       173
45.720       100
45.730       140
45.740       167
45.750       153
45.760       167
45.770       213
45.780       193
45.790       167
45.800       180
45.810       153
45.820       173
45.830       180
45.840       120
45.850       133
45.860       153
45.870       220
45.880       173
45.890       147
45.900       127
45.910       160
45.920       160
45.930       127
45.940       127
45.950       153
45.960       127
45.970       113
45.980       133
45.990       133
46.000        93
46.010       107
46.020       180
46.030       127
46.040       153
46.050       180
46.060       153
46.070       133
46.080       227
46.090       180
46.100       113
46.110       120
46.120       193
46.130       120
46.140       120
46.150       167
46.160       120
46.170       147
46.180       180
46.190       127
46.200        93
46.210       227
46.220       147
46.230       107
46.240       153
46.250       120
46.260       160
46.270       133
46.280       160
46.290       180
46.300       160
46.310       113
46.320       113
46.330       133
46.340       147
46.350       140
46.360       127
46.370       140
46.380       100
46.390       173
46.400       107
46.410       180
46.420       153
46.430        80
46.440       140
46.450       107
46.460       160
46.470       120
46.480       153
46.490       113
46.500       113
46.510        93
46.520       107
46.530        87
46.540        93
46.550       133
46.560       140
46.570       160
46.580       107
46.590       140
46.600       133
46.610        73
46.620       153
46.630        87
46.640       153
46.650       147
46.660        93
46.670       153
46.680       127
46.690        73
46.700       153
46.710        93
46.720       167
46.730       107
46.740        73
46.750       160
46.760       127
46.770        80
46.780       140
46.790       133
46.800       147
46.810        80
46.820       153
46.830       160
46.840       113
46.850        93
46.860       100
46.870       107
46.880       113
46.890       107
46.900       127
46.910       153
46.920        93
46.930       120
46.940       120
46.950       193
46.960        80
46.970        87
46.980       133
46.990       107
47.000        80
47.010       133
47.020        93
47.030       120
47.040        93
47.050        60
47.060       167
47.070       133
47.080       127
47.090       167
47.100       100
47.110       100
47.120       107
47.130       147
47.140       120
47.150       100
47.160        93
47.170       107
47.180       167
47.190        80
47.200       120
47.210       113
47.220       133
47.230       120
47.240        93
47.250       133
47.260       160
47.270       120
47.280        87
47.290       100
47.300       127
47.310       100
47.320       153
47.330       100
47.340       133
47.350       120
47.360       180
47.370        80
47.380       113
47.390       120
47.400       187
47.410       100
47.420       167
47.430       133
47.440        80
47.450        80
47.460        73
47.470       147
47.480       147
47.490       127
47.500       133
47.510       100
47.520       133
47.530       120
47.540       113
47.550       113
47.560       160
47.570       107
47.580        60
47.590       120
47.600       113
47.610       127
47.620        80
47.630       160
47.640       147
47.650       133
47.660       160
47.670       133
47.680        87
47.690        87
47.700       140
47.710        93
47.720       120
47.730       100
47.740        73
47.750       153
47.760        87
47.770        80
47.780       127
47.790       160
47.800        73
47.810       113
47.820       140
47.830        80
47.840       140
47.850       120
47.860       100
47.870       120
47.880       140
47.890        80
47.900        87
47.910        87
47.920        73
47.930        80
47.940       100
47.950       100
47.960        73
47.970       153
47.980        80
47.990        73
48.000       107
48.010        40
48.020       113
48.030       107
48.040        93
48.050       133
48.060       133
48.070        53
48.080        67
48.090       100
48.100        87
48.110       107
48.120        67
48.130       147
48.140       167
48.150       127
48.160       147
48.170       107
48.180       133
48.190       193
48.200        60
48.210       120
48.220        80
48.230        67
48.240       113
48.250       107
48.260       100
48.270       167
48.280        87
48.290        93
48.300       113
48.310        80
48.320       113
48.330       100
48.340        80
48.350       100
48.360        80
48.370       100
48.380        80
48.390       167
48.400       107
48.410       100
48.420       100
48.430       140
48.440        93
48.450       127
48.460        93
48.470        93
48.480        93
48.490       100
48.500        87
48.510        93
48.520        93
48.530        53
48.540        87
48.550        73
48.560       127
48.570       100
48.580       127
48.590        80
48.600       113
48.610       107
48.620        67
48.630       113
48.640       107
48.650        80
48.660        80
48.670       113
48.680       100
48.690       153
48.700        73
48.710        93
48.720        87
48.730        40
48.740       107
48.750       100
48.760        87
48.770        60
48.780        60
48.790       127
48.800        87
48.810       100
48.820        67
48.830       100
48.840       133
48.850       127
48.860        67
48.870        73
48.880        67
48.890        73
48.900        87
48.910       107
48.920        80
48.930       100
48.940        87
48.950        73
48.960       100
48.970        27
48.980       120
48.990        53
49.000        67
49.010        73
49.020       107
49.030        67
49.040        67
49.050       153
49.060        67
49.070        93
49.080        47
49.090       113
49.100        87
49.110        53
49.120        93
49.130        73
49.140        73
49.150       120
49.160       140
49.170        80
49.180        73
49.190        67
49.200        93
49.210       133
49.220        93
49.230       100
49.240       100
49.250        53
49.260       113
49.270        73
49.280       120
49.290       127
49.300       107
49.310        53
49.320        73
49.330        67
49.340        53
49.350       127
49.360        80
49.370        93
49.380       100
49.390        93
49.400        87
49.410        73
49.420        73
49.430       100
49.440        80
49.450        67
49.460        93
49.470        73
49.480       113
49.490        80
49.500        87
49.510       113
49.520        73
49.530       107
49.540        87
49.550        80
49.560        93
49.570        60
49.580        93
49.590        73
49.600        87
49.610        93
49.620       107
49.630        53
49.640        60
49.650        80
49.660        67
49.670        87
49.680        80
49.690        80
49.700        67
49.710       113
49.720        67
49.730        87
49.740        53
49.750       113
49.760        73
49.770        40
49.780        93
49.790        73
49.800        40
49.810        93
49.820        73
49.830        93
49.840       100
49.850        60
49.860        73
49.870        60
49.880        80
49.890        60
49.900        80
49.910        53
49.920       113
49.930        53
49.940        87
49.950        47
49.960       107
49.970       127
49.980        53
49.990        87
50.000        93
50.010        67
50.020        87
50.030        73
50.040        67
50.050       100
50.060        80
50.070       100
50.080        73
50.090        67
50.100        87
50.110        40
50.120        53
50.130       107
50.140       140
50.150        60
50.160       113
50.170        60
50.180        80
50.190        80
50.200        80
50.210        93
50.220        73
50.230        60
50.240        67
50.250       100
50.260        47
50.270       100
50.280        67
50.290        47
50.300        73
50.310        47
50.320       100
50.330        67
50.340        33
50.350        60
50.360        73
50.370        93
50.380       120
50.390        27
50.400        93
50.410       107
50.420        60
50.430       120
50.440        87
50.450        60
50.460        87
50.470        47
50.480       107
50.490        73
50.500        47
50.510        80
50.520        87
50.530        87
50.540        40
50.550        93
50.560        67
50.570        53
50.580        80
50.590        87
50.600        47
50.610        27
50.620        53
50.630        87
50.640       100
50.650        47
50.660       100
50.670        53
50.680        87
50.690       120
50.700        73
50.710        60
50.720        53
50.730        87
50.740        60
50.750        47
50.760        40
50.770        87
50.780        67
50.790       120
50.800        73
50.810       107
50.820        73
50.830        53
50.840       113
50.850       133
50.860        53
50.870        87
50.880       100
50.890        27
50.900        47
50.910       100
50.920       100
50.930       107
50.940        67
50.950       120
50.960        47
50.970       127
50.980        47
50.990       100
51.000        53
51.010        33
51.020        40
51.030       100
51.040        60
51.050        87
51.060        60
51.070        80
51.080        73
51.090        67
51.100        60
51.110        80
51.120        60
51.130        47
51.140       107
51.150        60
51.160        67
51.170        47
51.180        93
51.190        87
51.200        93
51.210        87
51.220        47
51.230        53
51.240        80
51.250        67
51.260        60
51.270        80
51.280        47
51.290        60
51.300        53
51.310        73
51.320        73
51.330        40
51.340       147
51.350        80
51.360       113
51.370        67
51.380        47
51.390        53
51.400        40
51.410        73
51.420        53
51.430        60
51.440        53
51.450        67
51.460        53
51.470        73
51.480        53
51.490        80
51.500        87
51.510        47
51.520        73
51.530        40
51.540       100
51.550        73
51.560        53
51.570        87
51.580        33
51.590        80
51.600        67
51.610        53
51.620        47
51.630        40
51.640        87
51.650        80
51.660        67
51.670        53
51.680        60
51.690        73
51.700        53
51.710       107
51.720        67
51.730        73
51.740       113
51.750       120
51.760        73
51.770        53
51.780        60
51.790        87
51.800        67
51.810        87
51.820        13
51.830        47
51.840        67
51.850        47
51.860        93
51.870        53
51.880        73
51.890        60
51.900        93
51.910        33
51.920        67
51.930        87
51.940        47
51.950        40
51.960        80
51.970        60
51.980        67
51.990        67
52.000        67
52.010        33
52.020        67
52.030        53
52.040        27
52.050        60
52.060        40
52.070        80
52.080        27
52.090        53
52.100        13
52.110        67
52.120        53
52.130        80
52.140        53
52.150        40
52.160        47
52.170        87
52.180        60
52.190        60
52.200        33
52.210        47
52.220        80
52.230        47
52.240        93
52.250        73
52.260        73
52.270        67
52.280        47
52.290        67
52.300        80
52.310        47
52.320        80
52.330        80
52.340        73
52.350        80
52.360        80
52.370        73
52.380        87
52.390        73
52.400        87
52.410        73
52.420        40
52.430        73
52.440        67
52.450        73
52.460        73
52.470        60
52.480        40
52.490        40
52.500        53
52.510        73
52.520        60
52.530        53
52.540        73
52.550        93
52.560        80
52.570        33
52.580        53
52.590        67
52.600        87
52.610        53
52.620        87
52.630        33
52.640        60
52.650        27
52.660        80
52.670        67
52.680        33
52.690        67
52.700        87
52.710        67
52.720        60
52.730        80
52.740        47
52.750        20
52.760       107
52.770        87
52.780        40
52.790        60
52.800        47
52.810        40
52.820        93
52.830        80
52.840        67
52.850        53
52.860        60
52.870        93
52.880        47
52.890        73
52.900        40
52.910        40
52.920        47
52.930        53
52.940        60
52.950        53
52.960        60
52.970        67
52.980        67
52.990        60
53.000        67
53.010        67
53.020        47
53.030        80
53.040        47
53.050        67
53.060        53
53.070        73
53.080        67
53.090        47
53.100        53
53.110        67
53.120        80
53.130        20
53.140        60
53.150        53
53.160        67
53.170        47
53.180        33
53.190        67
53.200        67
53.210        73
53.220        53
53.230        80
53.240        40
53.250        60
53.260        40
53.270        47
53.280        47
53.290        20
53.300        60
53.310        53
53.320        67
53.330        47
53.340        27
53.350        60
53.360        53
53.370        53
53.380        67
53.390        47
53.400        40
53.410        60
53.420        60
53.430        33
53.440        67
53.450        73
53.460        33
53.470        67
53.480        47
53.490        27
53.500        93
53.510        53
53.520        40
53.530        27
53.540        87
53.550        73
53.560       113
53.570        73
53.580        47
53.590        40
53.600        33
53.610        53
53.620        27
53.630        47
53.640        67
53.650        33
53.660        40
53.670        60
53.680        47
53.690        60
53.700        73
53.710        33
53.720        13
53.730        87
53.740        40
53.750        60
53.760        40
53.770        40
53.780        40
53.790        80
53.800        73
53.810        80
53.820        53
53.830        67
53.840        67
53.850        47
53.860        20
53.870        53
53.880        33
53.890        27
53.900        47
53.910        67
53.920        33
53.930        40
53.940        40
53.950        73
53.960        67
53.970        67
53.980        60
53.990        53
54.000        47
54.010        67
54.020        60
54.030        13
54.040        87
54.050        40
54.060        47
54.070        87
54.080        47
54.090        47
54.100        20
54.110         7
54.120        53
54.130        73
54.140        53
54.150        93
54.160        47
54.170        27
54.180        47
54.190        73
54.200        53
54.210        47
54.220        53
54.230        27
54.240        60
54.250        67
54.260        60
54.270        33
54.280        60
54.290        67
54.300        40
54.310        67
54.320        67
54.330        80
54.340        73
54.350        93
54.360        60
54.370        27
54.380        53
54.390        53
54.400        47
54.410        53
54.420        60
54.430        40
54.440        67
54.450        47
54.460        67
54.470        27
54.480        47
54.490        40
54.500        20
54.510        87
54.520        40
54.530        67
54.540        53
54.550        67
54.560        33
54.570        53
54.580        40
54.590       100
54.600        60
54.610        80
54.620        40
54.630        47
54.640        67
54.650        53
54.660        33
54.670        67
54.680        47
54.690        40
54.700        47
54.710        53
54.720        67
54.730        60
54.740        20
54.750        67
54.760        87
54.770        47
54.780        40
54.790        47
54.800       100
54.810        33
54.820        33
54.830        47
54.840        53
54.850        27
54.860        47
54.870        47
54.880        13
54.890        40
54.900        40
54.910        53
54.920        60
54.930        40
54.940        60
54.950        67
54.960        33
54.970        87
54.980        60
54.990        20
55.000        47
55.010        47
55.020        53
55.030        67
55.040        73
55.050        93
55.060        87
55.070        60
55.080        53
55.090        73
55.100        47
55.110        47
55.120        40
55.130        60
55.140        60
55.150        73
55.160        60
55.170        33
55.180        40
55.190        47
55.200        60
55.210        27
55.220        53
55.230        40
55.240        33
55.250        67
55.260        87
55.270        47
55.280        53
55.290        40
55.300        60
55.310        87
55.320        80
55.330        73
55.340        67
55.350        60
55.360        27
55.370        53
55.380        60
55.390        80
55.400        67
55.410        53
55.420        80
55.430        40
55.440        33
55.450        47
55.460        73
55.470        33
55.480        20
55.490        80
55.500        47
55.510        20
55.520        47
55.530        73
55.540        47
55.550        53
55.560        40
55.570        47
55.580        53
55.590        33
55.600        33
55.610        40
55.620        53
55.630       107
55.640        27
55.650        87
55.660        80
55.670        40
55.680        53
55.690        60
55.700        60
55.710        80
55.720        40
55.730        40
55.740        60
55.750        47
55.760        80
55.770        67
55.780        27
55.790        53
55.800        40
55.810        33
55.820        53
55.830        40
55.840        40
55.850        67
55.860        33
55.870        73
55.880        20
55.890        33
55.900        33
55.910        67
55.920        67
55.930        60
55.940        53
55.950        53
55.960        67
55.970        40
55.980        53
55.990        67
56.000        40
56.010        67
56.020        67
56.030        33
56.040        60
56.050        53
56.060        47
56.070        53
56.080        47
56.090        33
56.100        53
56.110        47
56.120        33
56.130        20
56.140        67
56.150        47
56.160        60
56.170        33
56.180        33
56.190        47
56.200        73
56.210        47
56.220        73
56.230        47
56.240        67
56.250        20
56.260        67
56.270        40
56.280        67
56.290        60
56.300        73
56.310       113
56.320        40
56.330        33
56.340        53
56.350        60
56.360        60
56.370        60
56.380        73
56.390        47
56.400        53
56.410        47
56.420        67
56.430        60
56.440        13
56.450        33
56.460        33
56.470        53
56.480        47
56.490        67
56.500        80
56.510        27
56.520        53
56.530        67
56.540        33
56.550        53
56.560       120
56.570        60
56.580        80
56.590        67
56.600        27
56.610        80
56.620        60
56.630        60
56.640        80
56.650        40
56.660        67
56.670        67
56.680        60
56.690        47
56.700        47
56.710        73
56.720        27
56.730       100
56.740        67
56.750        33
56.760        80
56.770        67
56.780       127
56.790        87
56.800       113
56.810        80
56.820        87
56.830       107
56.840        93
56.850       107
56.860        80
56.870       107
56.880       153
56.890        93
56.900       127
56.910       127
56.920       107
56.930       120
56.940       120
56.950       127
56.960       147
56.970       187
56.980       153
56.990       113
57.000       127
57.010       140
57.020       180
57.030       140
57.040       160
57.050       120
57.060       173
57.070       107
57.080       113
57.090       147
57.100       127
57.110        87
57.120       120
57.130        87
57.140        93
57.150        93
57.160        80
57.170       127
57.180        80
57.190        67
57.200       113
57.210        60
57.220        87
57.230        47
57.240        87
57.250        93
57.260       107
57.270       100
57.280        73
57.290        93
57.300        53
57.310        60
57.320       107
57.330        60
57.340        93
57.350        80
57.360        53
57.370        53
57.380       133
57.390        87
57.400        80
57.410        93
57.420        53
57.430        80
57.440        47
57.450        40
57.460        67
57.470        47
57.480        53
57.490        53
57.500        20
57.510        87
57.520        40
57.530        53
57.540        40
57.550        40
57.560        60
57.570        53
57.580        53
57.590        40
57.600        87
57.610        67
57.620        33
57.630        47
57.640        53
57.650        67
57.660        53
57.670        80
57.680        40
57.690        20
57.700        73
57.710        40
57.720        40
57.730        40
57.740        27
57.750        53
57.760        20
57.770        53
57.780        40
57.790        47
57.800        53
57.810        33
57.820        40
57.830        73
57.840        73
57.850        47
57.860        47
57.870        40
57.880        47
57.890        60
57.900        73
57.910        53
57.920        40
57.930        47
57.940        47
57.950        33
57.960        47
57.970        33
57.980        53
57.990        47
58.000        80
58.010        33
58.020        47
58.030        73
58.040        60
58.050        33
58.060        67
58.070        53
58.080        53
58.090        73
58.100        40
58.110        27
58.120        40
58.130        53
58.140        20
58.150        47
58.160        40
58.170        27
58.180        53
58.190        47
58.200        27
58.210        53
58.220        53
58.230        67
58.240        53
58.250        47
58.260        60
58.270        60
58.280        73
58.290        47
58.300        73
58.310        80
58.320        47
58.330        33
58.340        53
58.350        53
58.360        33
58.370        53
58.380        33
58.390        53
58.400        33
58.410        40
58.420        40
58.430        47
58.440        20
58.450        20
58.460        60
58.470        60
58.480        20
58.490        67
58.500        47
58.510        53
58.520        27
58.530        40
58.540        20
58.550        40
58.560        40
58.570        27
58.580        47
58.590        53
58.600        33
58.610        33
58.620        53
58.630        27
58.640        53
58.650        73
58.660        67
58.670        47
58.680        47
58.690        67
58.700        60
58.710        47
58.720        53
58.730        53
58.740        33
58.750        47
58.760        60
58.770        53
58.780        47
58.790        73
58.800        60
58.810        47
58.820        40
58.830        60
58.840        33
58.850        27
58.860        73
58.870        33
58.880        33
58.890        53
58.900        20
58.910        67
58.920        73
58.930        47
58.940        20
58.950        80
58.960        67
58.970        20
58.980        40
58.990        40
59.000        40
59.010        53
59.020        27
59.030        33
59.040        33
59.050        33
59.060        53
59.070        47
59.080        40
59.090        47
59.100        60
59.110        47
59.120        53
59.130        47
59.140        40
59.150        47
59.160        20
59.170        60
59.180        20
59.190        27
59.200        47
59.210        47
59.220        40
59.230        53
59.240        60
59.250        80
59.260        60
59.270        33
59.280        73
59.290        20
59.300        33
59.310        13
59.320        67
59.330        40
59.340        53
59.350        47
59.360        27
59.370        60
59.380        27
59.390        40
59.400        80
59.410        40
59.420        53
59.430        27
59.440        87
59.450        53
59.460        27
59.470        47
59.480        67
59.490        20
59.500        27
59.510        47
59.520        53
59.530        20
59.540        53
59.550        40
59.560        33
59.570        53
59.580        47
59.590        73
59.600        47
59.610        67
59.620        53
59.630        53
59.640        60
59.650        13
59.660        87
59.670        67
59.680        27
59.690        53
59.700        47
59.710        93
59.720        40
59.730        53
59.740        40
59.750        47
59.760        40
59.770       100
59.780        27
59.790        40
59.800        27
59.810        27
59.820        40
59.830        40
59.840        27
59.850        60
59.860        47
59.870        53
59.880        40
59.890        53
59.900        67
59.910        53
59.920        53
59.930        60
59.940        53
59.950        53
59.960        33
59.970        27
59.980        67
59.990        40
60.000        40
