20.000        33
20.010        40
20.020        27
20.030        40
20.040        53
20.050        53
20.060        53
20.070        40
20.080        33
20.090        60
20.100        47
20.110        20
20.120        27
20.130        53
20.140        53
20.150        53
20.160        47
20.170        20
20.180        53
20.190        27
20.200        47
20.210        73
20.220        47
20.230        27
20.240        80
20.250        40
20.260        87
20.270        67
20.280        53
20.290        27
20.300        33
20.310        27
20.320        33
20.330        33
20.340        53
20.350        53
20.360        67
20.370        47
20.380        13
20.390        33
20.400        20
20.410        40
20.420        53
20.430        40
20.440        73
20.450        53
20.460        47
20.470        67
20.480        40
20.490        67
20.500        27
20.510        40
20.520        73
20.530        60
20.540        33
20.550        53
20.560        60
20.570        87
20.580        73
20.590        33
20.600        33
20.610        47
20.620        33
20.630        33
20.640        33
20.650        40
20.660        53
20.670        40
20.680        33
20.690        33
20.700        40
20.710        60
20.720        40
20.730        60
20.740        13
20.750        40
20.760        47
20.770        53
20.780        40
20.790        33
20.800        20
20.810        53
20.820        47
20.830        33
20.840        27
20.850        67
20.860        53
20.870        20
20.880        20
20.890        27
20.900        40
20.910        47
20.920        40
20.930        33
20.940        33
20.950        67
20.960        60
20.970        40
20.980        60
20.990        47
21.000        60
21.010        47
21.020        67
21.030        20
21.040        33
21.050        20
21.060        33
21.070        87
21.080        40
21.090        33
21.100        40
21.110        40
21.120        33
21.130        93
21.140        53
21.150        60
21.160        20
21.170        27
21.180        33
21.190        33
21.200        20
21.210        47
21.220        27
21.230        47
21.240       113
21.250        20
21.260        33
21.270        60
21.280        27
21.290        33
21.300        53
21.310        40
21.320        47
21.330        27
21.340        27
21.350        27
21.360        33
21.370        27
21.380        20
21.390        53
21.400        40
21.410        67
21.420        67
21.430        47
21.440        47
21.450        47
21.460        53
21.470        40
21.480        60
21.490        13
21.500        47
21.510        40
21.520        20
21.530        27
21.540        20
21.550        13
21.560        47
21.570        13
21.580        27
21.590        40
21.600        47
21.610        40
21.620        47
21.630        47
21.640        27
21.650        67
21.660        13
21.670        40
21.680        67
21.690        40
21.700        40
21.710        40
21.720        40
21.730        33
21.740        27
21.750        53
21.760        27
21.770        60
21.780        33
21.790        47
21.800        40
21.810        40
21.820        47
21.830        20
21.840        33
21.850        53
21.860        53
21.870        60
21.880        47
21.890        53
21.900        67
21.910        67
21.920        73
21.930        13
21.940        33
21.950        73
21.960        40
21.970        80
21.980        33
21.990        33
22.000        27
22.010        40
22.020        33
22.030        40
22.040        47
22.050        33
22.060        60
22.070        80
22.080        47
22.090        47
22.100        60
22.110        53
22.120        60
22.130        47
22.140        47
22.150        67
22.160        53
22.170        40
22.180        87
22.190        27
22.200        80
22.210        67
22.220        73
22.230        73
22.240        67
22.250        53
22.260        93
22.270       100
22.280        60
22.290       107
22.300       100
22.310        60
22.320       107
22.330       133
22.340       140
22.350       147
22.360       160
22.370       220
22.380       153
22.390       200
22.400       287
22.410       193
22.420       247
22.430       307
22.440       340
22.450       387
22.460       460
22.470       466
22.480       520
22.490       506
22.500       506
22.510       440
22.520       420
22.530       546
22.540       413
22.550       287
22.560       260
22.570       273
22.580       247
22.590       193
22.600       133
22.610       140
22.620       147
22.630        87
22.640        67
22.650       100
22.660        80
22.670        47
22.680        87
22.690        60
22.700        73
22.710        53
22.720        47
22.730        40
22.740       100
22.750        47
22.760        47
22.770        73
22.780        47
22.790        27
22.800        67
22.810        60
22.820        27
22.830        53
22.840        73
22.850        53
22.860        20
22.870        20
22.880        40
22.890        20
22.900        87
22.910        20
22.920        33
22.930        33
22.940        60
22.950        73
22.960        47
22.970        27
22.980        53
22.990        47
23.000        53
23.010        13
23.020        47
23.030        27
23.040        47
23.050        33
23.060        40
23.070        33
23.080        60
23.090        33
23.100        27
23.110        33
23.120         7
23.130        27
23.140        40
23.150        53
23.160        33
23.170        27
23.180        20
23.190        60
23.200        40
23.210        33
23.220        60
23.230        33
23.240        27
23.250        47
23.260        13
23.270        67
23.280        20
23.290        13
23.300        53
23.310        60
23.320        20
23.330        33
23.340        40
23.350        67
23.360        27
23.370        33
23.380        27
23.390        20
23.400        40
23.410        47
23.420        20
23.430        47
23.440        27
23.450        40
23.460        20
23.470        27
23.480        53
23.490        47
23.500        47
23.510        53
23.520        13
23.530        40
23.540        40
23.550        73
23.560        47
23.570        20
23.580        27
23.590        67
23.600        40
23.610        27
23.620        13
23.630        13
23.640        27
23.650        20
23.660        47
23.670        40
23.680        67
23.690        47
23.700        20
23.710        53
23.720        20
23.730        33
23.740        40
23.750        33
23.760        40
23.770        67
23.780        40
23.790        47
23.800        40
23.810        33
23.820        53
23.830        27
23.840        47
23.850        33
23.860        27
23.870        13
23.880        33
23.890        20
23.900        40
23.910        40
23.920        40
23.930        13
23.940        27
23.950        47
23.960        33
23.970        27
23.980        40
23.990        47
24.000        33
24.010        13
24.020        40
24.030        60
24.040        47
24.050        40
24.060        47
24.070        27
24.080        33
24.090        20
24.100        27
24.110        40
24.120        33
24.130        13
24.140        20
24.150        47
24.160        53
24.170        20
24.180        20
24.190        60
24.200        40
24.210        27
24.220        27
24.230        33
24.240        13
24.250        20
24.260        53
24.270        87
24.280        53
24.290        20
24.300        40
24.310        13
24.320        53
24.330        40
24.340        67
24.350        27
24.360        27
24.370        13
24.380        33
24.390        40
24.400        73
24.410        47
24.420        40
24.430        27
24.440        40
24.450        80
24.460        47
24.470         7
24.480        20
24.490        40
24.500        27
24.510        33
24.520        27
24.530        40
24.540        20
24.550        53
24.560        40
24.570        47
24.580        40
24.590        60
24.600        40
24.610        13
24.620        40
24.630         7
24.640        40
24.650        40
24.660        53
24.670        33
24.680        27
24.690        60
24.700        33
24.710        67
24.720        47
24.730        60
24.740        47
24.750        40
24.760        47
24.770        47
24.780        60
24.790        47
24.800        27
24.810        13
24.820        87
24.830        73
24.840        40
24.850        20
24.860        27
24.870        40
24.880        20
24.890        20
24.900        47
24.910        67
24.920        40
24.930        33
24.940        27
24.950        47
24.960        27
24.970        47
24.980        33
24.990        20
25.000        33
25.010        40
25.020        40
25.030        33
25.040        27
25.050        33
25.060        13
25.070        53
25.080         7
25.090        60
25.100        47
25.110        33
25.120        33
25.130        47
25.140        33
25.150        53
25.160        60
25.170        33
25.180        33
25.190        47
25.200        33
25.210        47
25.220        40
25.230        60
25.240        40
25.250        27
25.260        47
25.270        13
25.280        27
25.290        40
25.300        47
25.310        40
25.320        33
25.330        53
25.340         7
25.350        27
25.360        33
25.370        53
25.380        40
25.390        53
25.400        60
25.410        53
25.420        40
25.430        53
25.440        73
25.450        80
25.460        47
25.470        20
25.480       100
25.490        47
25.500        53
25.510        80
25.520        33
25.530       107
25.540       100
25.550       133
25.560       127
25.570        60
25.580       107
25.590       160
25.600       180
25.610       167
25.620       127
25.630       100
25.640       173
25.650        73
25.660       120
25.670       107
25.680        47
25.690        80
25.700        87
25.710        87
25.720        53
25.730        33
25.740        53
25.750        40
25.760        13
25.770        33
25.780        40
25.790        33
25.800        33
25.810        73
25.820        53
25.830        40
25.840        27
25.850        47
25.860        33
25.870        87
25.880        33
25.890        73
25.900        13
25.910        33
25.920        33
25.930        40
25.940        13
25.950        53
25.960        33
25.970        20
25.980         7
25.990        53
26.000        53
26.010        20
26.020        20
26.030        27
26.040        27
26.050        33
26.060        33
26.070        13
26.080        33
26.090        47
26.100        60
26.110        27
26.120        13
26.130        47
26.140        20
26.150        53
26.160        60
26.170        27
26.180        27
26.190        53
26.200        20
26.210        33
26.220        47
26.230        20
26.240        47
26.250        20
26.260        20
26.270         7
26.280        20
26.290        47
26.300        67
26.310        33
26.320        40
26.330        40
26.340        13
26.350        47
26.360        47
26.370        20
26.380        20
26.390        27
26.400        47
26.410        33
26.420        47
26.430        20
26.440        53
26.450        47
26.460        47
26.470        47
26.480        27
26.490        27
26.500        53
26.510        13
26.520        27
26.530        53
26.540        47
26.550        20
26.560        20
26.570        27
26.580        40
26.590        33
26.600        13
26.610        33
26.620        40
26.630        33
26.640        33
26.650        40
26.660        33
26.670        27
26.680        40
26.690        40
26.700        33
26.710        67
26.720        33
26.730        33
26.740        27
26.750        20
26.760        33
26.770        87
26.780        47
26.790         7
26.800        47
26.810        13
26.820        33
26.830        33
26.840        27
26.850        20
26.860        53
26.870        20
26.880        13
26.890        20
26.900        27
26.910        40
26.920        40
26.930        13
26.940        33
26.950        60
26.960        27
26.970        27
26.980        20
26.990        33
27.000        40
27.010        33
27.020        20
27.030        27
27.040        20
27.050        27
27.060        20
27.070        60
27.080        53
27.090        27
27.100        20
27.110        40
27.120        33
27.130        40
27.140        33
27.150        33
27.160        20
27.170        40
27.180        47
27.190        27
27.200        40
27.210        60
27.220        40
27.230         7
27.240        40
27.250        27
27.260        40
27.270        13
27.280        33
27.290         7
27.300        33
27.310        33
27.320        27
27.330        67
27.340        53
27.350        27
27.360         7
27.370        20
27.380        40
27.390        33
27.400        47
27.410         7
27.420        40
27.430        73
27.440        13
27.450        40
27.460        13
27.470        33
27.480        20
27.490        20
27.500        47
27.510         7
27.520        20
27.530        13
27.540        67
27.550        40
27.560        33
27.570        33
27.580        47
27.590        47
27.600        27
27.610        13
27.620         7
27.630        27
27.640        13
27.650        20
27.660        13
27.670        20
27.680        33
27.690        13
27.700        27
27.710        53
27.720        13
27.730        53
27.740         0
27.750        20
27.760        33
27.770        33
27.780        53
27.790        33
27.800        20
27.810        20
27.820        53
27.830        20
27.840        27
27.850        20
27.860        27
27.870        40
27.880        27
27.890         0
27.900        40
27.910        33
27.920        27
27.930        47
27.940        20
27.950        20
27.960        33
27.970        47
27.980         7
27.990        20
28.000        40
28.010        33
28.020        33
28.030        20
28.040        20
28.050        47
28.060        33
28.070        40
28.080        40
28.090        20
28.100         7
28.110        13
28.120        13
28.130        13
28.140        27
28.150        47
28.160        33
28.170         7
28.180        27
28.190        27
28.200        40
28.210        20
28.220        13
28.230        20
28.240        27
28.250         7
28.260        20
28.270        27
28.280        20
28.290        40
28.300        27
28.310        20
28.320        33
28.330        20
28.340        27
28.350        27
28.360        40
28.370        33
28.380        33
28.390        13
28.400        53
28.410        33
28.420        13
28.430        13
28.440        33
28.450         7
28.460        33
28.470         7
28.480        40
28.490        13
28.500        27
28.510        40
28.520        20
28.530        20
28.540        33
28.550        20
28.560        20
28.570        27
28.580        27
28.590        33
28.600        53
28.610         7
28.620         7
28.630        40
28.640         0
28.650        40
28.660        33
28.670        33
28.680        27
28.690        33
28.700        27
28.710         7
28.720        27
28.730        33
28.740        13
28.750        27
28.760        33
28.770         7
28.780         7
28.790        60
28.800        27
28.810        13
28.820        27
28.830        27
28.840        20
28.850        33
28.860        27
28.870        53
28.880        53
28.890         7
28.900         7
28.910        33
28.920        40
28.930        47
28.940        33
28.950        60
28.960        47
28.970        60
28.980        40
28.990        20
29.000        13
29.010        33
29.020        33
29.030        13
29.040         7
29.050        33
29.060        27
29.070        47
29.080        33
29.090         7
29.100        20
29.110        33
29.120        20
29.130        27
29.140        20
29.150         7
29.160        60
29.170        27
29.180        40
29.190         7
29.200        40
29.210        60
29.220        60
29.230        40
29.240         0
29.250        13
29.260        33
29.270         0
29.280        27
29.290        73
29.300        40
29.310        53
29.320        33
29.330        33
29.340        40
29.350        40
29.360         7
29.370        53
29.380        27
29.390        47
29.400        33
29.410        47
29.420        27
29.430        20
29.440        33
29.450        47
29.460        33
29.470        33
29.480        33
29.490        27
29.500        47
29.510        27
29.520        27
29.530        13
29.540        27
29.550        13
29.560        33
29.570        53
29.580        33
29.590         7
29.600        40
29.610         7
29.620        40
29.630        27
29.640         0
29.650         7
29.660        13
29.670        13
29.680        33
29.690        60
29.700        20
29.710        33
29.720        27
29.730        47
29.740        20
29.750        13
29.760        33
29.770        33
29.780        27
29.790        33
29.800        47
29.810        40
29.820        33
29.830        13
29.840        33
29.850        20
29.860        27
29.870        20
29.880        27
29.890        20
29.900        13
29.910        53
29.920        47
29.930        20
29.940        33
29.950        27
29.960        13
29.970        20
29.980        33
29.990        20
30.000        20
30.010        40
30.020        33
30.030        20
30.040        33
30.050        20
30.060        13
30.070        27
30.080        27
30.090        47
30.100        33
30.110        40
30.120        20
30.130        27
30.140        20
30.150        47
30.160        13
30.170        13
30.180        40
30.190        47
30.200        33
30.210        20
30.220        20
30.230        27
30.240        13
30.250        20
30.260        20
30.270         7
30.280        13
30.290        67
30.300         7
30.310        27
30.320         7
30.330        33
30.340        80
30.350        20
30.360        40
30.370        20
30.380        20
30.390        27
30.400        20
30.410        27
30.420        33
30.430        20
30.440        13
30.450        40
30.460        53
30.470        20
30.480        53
30.490        20
30.500        40
30.510        20
30.520        33
30.530        27
30.540        33
30.550        20
30.560        47
30.570        40
30.580        20
30.590        33
30.600        27
30.610        20
30.620        13
30.630        27
30.640        27
30.650        20
30.660        20
30.670        27
30.680        13
30.690        40
30.700        53
30.710        20
30.720        13
30.730        13
30.740        20
30.750        47
30.760        47
30.770         7
30.780        13
30.790        27
30.800        40
30.810        47
30.820        27
30.830        60
30.840        27
30.850        27
30.860         7
30.870        13
30.880        40
30.890        20
30.900        13
30.910        33
30.920        27
30.930        40
30.940        47
30.950         7
30.960         0
30.970        13
30.980        27
30.990        53
31.000        20
31.010        27
31.020        20
31.030        40
31.040        33
31.050        87
31.060        27
31.070        47
31.080        27
31.090        20
31.100        33
31.110        73
31.120        40
31.130        47
31.140        13
31.150        47
31.160        33
31.170        40
31.180        27
31.190        40
31.200        27
31.210        33
31.220        60
31.230        33
31.240         7
31.250        13
31.260        13
31.270        20
31.280        13
31.290        27
31.300        53
31.310        40
31.320        33
31.330        20
31.340        47
31.350        40
31.360        40
31.370        27
31.380        33
31.390        53
31.400        40
31.410        60
31.420        60
31.430        47
31.440        40
31.450        40
31.460        47
31.470        40
31.480        13
31.490        27
31.500        33
31.510        20
31.520        20
31.530        33
31.540        27
31.550        53
31.560        13
31.570        40
31.580        47
31.590        47
31.600        47
31.610        40
31.620        53
31.630        20
31.640        27
31.650        40
31.660        40
31.670        20
31.680        13
31.690        20
31.700        80
31.710        40
31.720        80
31.730        67
31.740        53
31.750        67
31.760        73
31.770        67
31.780        87
31.790       120
31.800       127
31.810       127
31.820       113
31.830       120
31.840       133
31.850       167
31.860       107
31.870       133
31.880       133
31.890       187
31.900       173
31.910       233
31.920       267
31.930       213
31.940       300
31.950       247
31.960       167
31.970       267
31.980       393
31.990       293
32.000       233
32.010       313
32.020       313
32.030       240
32.040       220
32.050       293
32.060       153
32.070       173
32.080       260
32.090       147
32.100       180
32.110       153
32.120       107
32.130       147
32.140       147
32.150        87
32.160       113
32.170        33
32.180        73
32.190        53
32.200        47
32.210        67
32.220        47
32.230        60
32.240        80
32.250        53
32.260        60
32.270        40
32.280        53
32.290        27
32.300        33
32.310        27
32.320        20
32.330        27
32.340        13
32.350        67
32.360        33
32.370        20
32.380        20
32.390        40
32.400        33
32.410        40
32.420        27
32.430        27
32.440        47
32.450        27
32.460         7
32.470        20
32.480        33
32.490        33
32.500        53
32.510         0
32.520        27
32.530        13
32.540        53
32.550        40
32.560        27
32.570        20
32.580        47
32.590        20
32.600        33
32.610        20
32.620        27
32.630        47
32.640        40
32.650        13
32.660        27
32.670        53
32.680        40
32.690        33
32.700        27
32.710         0
32.720        20
32.730        20
32.740        20
32.750        47
32.760        33
32.770         7
32.780         0
32.790        13
32.800        40
32.810        20
32.820        40
32.830        33
32.840        33
32.850        33
32.860        47
32.870        40
32.880        13
32.890         7
32.900        13
32.910        33
32.920        20
32.930        20
32.940        27
32.950        20
32.960        20
32.970        13
32.980        47
32.990        47
33.000        20
33.010        20
33.020        47
33.030        33
33.040        27
33.050        27
33.060        27
33.070        20
33.080        20
33.090        60
33.100        47
33.110        20
33.120        33
33.130        33
33.140        13
33.150        27
33.160        40
33.170        20
33.180        27
33.190        13
33.200        27
33.210        33
33.220        67
33.230        13
33.240        33
33.250        60
33.260         0
33.270        53
33.280        13
33.290        13
33.300        13
33.310        40
33.320        20
33.330        40
33.340        27
33.350         7
33.360        40
33.370        27
33.380        20
33.390        33
33.400        27
33.410        27
33.420         7
33.430        13
33.440         7
33.450         7
33.460        13
33.470        27
33.480         0
33.490         7
33.500        40
33.510        27
33.520        40
33.530        27
33.540        40
33.550        27
33.560        40
33.570        20
33.580        20
33.590        13
33.600        20
33.610        13
33.620        27
33.630        20
33.640         0
33.650        27
33.660        53
33.670        13
33.680        20
33.690        13
33.700        27
33.710        27
33.720        20
33.730        27
33.740         0
33.750         7
33.760        20
33.770        33
33.780        33
33.790        20
33.800        13
33.810        13
33.820        33
33.830        27
33.840        40
33.850        33
33.860        33
33.870        27
33.880        40
33.890         7
33.900        20
33.910        13
33.920        33
33.930        13
33.940        27
33.950        40
33.960        13
33.970        20
33.980        33
33.990        20
34.000         7
34.010        33
34.020         7
34.030        33
34.040        27
34.050        33
34.060        20
34.070        13
34.080        27
34.090        20
34.100        20
34.110        33
34.120        20
34.130        33
34.140        20
34.150        47
34.160        20
34.170        20
34.180        20
34.190        33
34.200        13
34.210        20
34.220        47
34.230        40
34.240        13
34.250        13
34.260        27
34.270        20
34.280         7
34.290        20
34.300        27
34.310        33
34.320        27
34.330        40
34.340         0
34.350        40
34.360         7
34.370        27
34.380        13
34.390        33
34.400         7
34.410        27
34.420        27
34.430        27
34.440        20
34.450        27
34.460        20
34.470        53
34.480        33
34.490         7
34.500        20
34.510        53
34.520        27
34.530        20
34.540        27
34.550        13
34.560        20
34.570        27
34.580        20
34.590        13
34.600        47
34.610        20
34.620        33
34.630        20
34.640        13
34.650        27
34.660        27
34.670        27
34.680        27
34.690        27
34.700        20
34.710        40
34.720        13
34.730        27
34.740        13
34.750        27
34.760        33
34.770         7
34.780        20
34.790        33
34.800        40
34.810        40
34.820        47
34.830        27
34.840        20
34.850        33
34.860        40
34.870        47
34.880        20
34.890        20
34.900        33
34.910        33
34.920        47
34.930        33
34.940        47
34.950        53
34.960        80
34.970        40
34.980        60
34.990        53
35.000        73
35.010        93
35.020        67
35.030        93
35.040       113
35.050        87
35.060       153
35.070       133
35.080       113
35.090       127
35.100       127
35.110       213
35.120       193
35.130       233
35.140       187
35.150       307
35.160       253
35.170       380
35.180       413
35.190       347
35.200       400
35.210       400
35.220       426
35.230       426
35.240       367
35.250       260
35.260       220
35.270       280
35.280       227
35.290       233
35.300       193
35.310       200
35.320       213
35.330       113
35.340       147
35.350        40
35.360        87
35.370        40
35.380        47
35.390        80
35.400        53
35.410        27
35.420        20
35.430        40
35.440        40
35.450        20
35.460        53
35.470        27
35.480        33
35.490        40
35.500        40
35.510        53
35.520        27
35.530        33
35.540        13
35.550        33
35.560        27
35.570        20
35.580        20
35.590        33
35.600        20
35.610        33
35.620        20
35.630        80
35.640        33
35.650         7
35.660        13
35.670        33
35.680        20
35.690        27
35.700        40
35.710        33
35.720        20
35.730        27
35.740        40
35.750         7
35.760        33
35.770        33
35.780        33
35.790        20
35.800        40
35.810        27
35.820        60
35.830        33
35.840        13
35.850        53
35.860        20
35.870        20
35.880         0
35.890        47
35.900        20
35.910        33
35.920        20
35.930        33
35.940        27
35.950        20
35.960        47
35.970        20
35.980        33
35.990        27
36.000         0
36.010        13
36.020        13
36.030        13
36.040        20
36.050        53
36.060        27
36.070         7
36.080        47
36.090        27
36.100        27
36.110        13
36.120        27
36.130        27
36.140        27
36.150         0
36.160        13
36.170        20
36.180         7
36.190        20
36.200        13
36.210        13
36.220         7
36.230        13
36.240        27
36.250         7
36.260        27
36.270         7
36.280        27
36.290        33
36.300        13
36.310        27
36.320        40
36.330        33
36.340        27
36.350        13
36.360        13
36.370        47
36.380        47
36.390        13
36.400        27
36.410        27
36.420        33
36.430        13
36.440        27
36.450         7
36.460        27
36.470         0
36.480        27
36.490        33
36.500        20
36.510        20
36.520        20
36.530        27
36.540        13
36.550        13
36.560        27
36.570        20
36.580        27
36.590        13
36.600        33
36.610        27
36.620        40
36.630        40
36.640        53
36.650        27
36.660        13
36.670        27
36.680        20
36.690        13
36.700        13
36.710        20
36.720        27
36.730        20
36.740        13
36.750        27
36.760        33
36.770        27
36.780        27
36.790        20
36.800        13
36.810        13
36.820        40
36.830        27
36.840        20
36.850        47
36.860        53
36.870        27
36.880        13
36.890        27
36.900        27
36.910        33
36.920        60
36.930        60
36.940        40
36.950        60
36.960        27
36.970        47
36.980        47
36.990        33
37.000        33
37.010        13
37.020        33
37.030        40
37.040        20
37.050        27
37.060        27
37.070        33
37.080        27
37.090        33
37.100        20
37.110        60
37.120         7
37.130        27
37.140        27
37.150        20
37.160         7
37.170        33
37.180        20
37.190        13
37.200        33
37.210        13
37.220        27
37.230         0
37.240        13
37.250         7
37.260        27
37.270        40
37.280        40
37.290        27
37.300         7
37.310        13
37.320         7
37.330        27
37.340        20
37.350        13
37.360        27
37.370        20
37.380        27
37.390        13
37.400        40
37.410        13
37.420        27
37.430        13
37.440        27
37.450         7
37.460        20
37.470        40
37.480         7
37.490         7
37.500        13
37.510        27
37.520        40
37.530        13
37.540        20
37.550        20
37.560         7
37.570        27
37.580        40
37.590        53
37.600        47
37.610        13
37.620        20
37.630       147
37.640        33
37.650        47
37.660        33
37.670        20
37.680         7
37.690        27
37.700        40
37.710        33
37.720        87
37.730        40
37.740         0
37.750        73
37.760        27
37.770        60
37.780        60
37.790        87
37.800        73
37.810       120
37.820       140
37.830       113
37.840        73
37.850       107
37.860       113
37.870        80
37.880       140
37.890        80
37.900        87
37.910       100
37.920        67
37.930        93
37.940        87
37.950        60
37.960        80
37.970        53
37.980        40
37.990        53
38.000        13
38.010        27
38.020        33
38.030        47
38.040        47
38.050        33
38.060         7
38.070        27
38.080        40
38.090        60
38.100        13
38.110        20
38.120        13
38.130         7
38.140        27
38.150        40
38.160        13
38.170        20
38.180        27
38.190        33
38.200        33
38.210        27
38.220        40
38.230        13
38.240         7
38.250        20
38.260        47
38.270        20
38.280        13
38.290        33
38.300        60
38.310        33
38.320        33
38.330        20
38.340        20
38.350        27
38.360        20
38.370        40
38.380        20
38.390         7
38.400        27
38.410        13
38.420        20
38.430         7
38.440        47
38.450        27
38.460        53
38.470        33
38.480        13
38.490        47
38.500         7
38.510         7
38.520        13
38.530        33
38.540        27
38.550        13
38.560        40
38.570        20
38.580        27
38.590        13
38.600        40
38.610        20
38.620        13
38.630        47
38.640        27
38.650        53
38.660        27
38.670        27
38.680        20
38.690        33
38.700        20
38.710        13
38.720        47
38.730        33
38.740        33
38.750        20
38.760        13
38.770        13
38.780        33
38.790        53
38.800         7
38.810        20
38.820        20
38.830        13
38.840        33
38.850         7
38.860        20
38.870        13
38.880        13
38.890         7
38.900        33
38.910        33
38.920        27
38.930        33
38.940        53
38.950        53
38.960         7
38.970        20
38.980        40
38.990        47
39.000        47
39.010        27
39.020        33
39.030        47
39.040        13
39.050        20
39.060         7
39.070         7
39.080        13
39.090        27
39.100         7
39.110        20
39.120        20
39.130         0
39.140         7
39.150        20
39.160        20
39.170         7
39.180        13
39.190        27
39.200        20
39.210        13
39.220        27
39.230        40
39.240        33
39.250        47
39.260        20
39.270        27
39.280        27
39.290        33
39.300        60
39.310        33
39.320        27
39.330        40
39.340        27
39.350        67
39.360        40
39.370        60
39.380        60
39.390        60
39.400        33
39.410        87
39.420       100
39.430        67
39.440        80
39.450        67
39.460       100
39.470       127
39.480       120
39.490       120
39.500       113
39.510        93
39.520       100
39.530       113
39.540       180
39.550       127
39.560       160
39.570        93
39.580       147
39.590        60
39.600        60
39.610       120
39.620       107
39.630        73
39.640        93
39.650        53
39.660        47
39.670       100
39.680        53
39.690        20
39.700        67
39.710        40
39.720        40
39.730        13
39.740        27
39.750        40
39.760        33
39.770        27
39.780        27
39.790        20
39.800        33
39.810        53
39.820        40
39.830        13
39.840        53
39.850        40
39.860        33
39.870        20
39.880        13
39.890        27
39.900        20
39.910        33
39.920        27
39.930         7
39.940        33
39.950         7
39.960        13
39.970        20
39.980        13
39.990        20
40.000        13
40.010        20
40.020         7
40.030        27
40.040        27
40.050        27
40.060        20
40.070        20
40.080        33
40.090        40
40.100        27
40.110        47
40.120        13
40.130        20
40.140        27
40.150        33
40.160        33
40.170        20
40.180        13
40.190        40
40.200        20
40.210        33
40.220        20
40.230         0
40.240        20
40.250         7
40.260        27
40.270        33
40.280        13
40.290        27
40.300        27
40.310        13
40.320        27
40.330         7
40.340         7
40.350        27
40.360        27
40.370        13
40.380        27
40.390        13
40.400        13
40.410        33
40.420        60
40.430        20
40.440        13
40.450         7
40.460        20
40.470        33
40.480        27
40.490        13
40.500        27
40.510        60
40.520        33
40.530        20
40.540         7
40.550        27
40.560        20
40.570        20
40.580        20
40.590        20
40.600        27
40.610        33
40.620        20
40.630        27
40.640         7
40.650        27
40.660        13
40.670        27
40.680        33
40.690        40
40.700        27
40.710        27
40.720        33
40.730        47
40.740        67
40.750        40
40.760        33
40.770        13
40.780        27
40.790        13
40.800        33
40.810        13
40.820        27
40.830        13
40.840        13
40.850        20
40.860        33
40.870        20
40.880         7
40.890        20
40.900        20
40.910        27
40.920        40
40.930         7
40.940        33
40.950         0
40.960        33
40.970        33
40.980        13
40.990        53
41.000        27
41.010        33
41.020        13
41.030        20
41.040        27
41.050        20
41.060        27
41.070        73
41.080        40
41.090        33
41.100        27
41.110        33
41.120        33
41.130         7
41.140        47
41.150        60
41.160        20
41.170        20
41.180        27
41.190        60
41.200         7
41.210        47
41.220        33
41.230        40
41.240        27
41.250        13
41.260         7
41.270        67
41.280        13
41.290        47
41.300        20
41.310        13
41.320         7
41.330        27
41.340         7
41.350        40
41.360        13
41.370        27
41.380        20
41.390        33
41.400        27
41.410        13
41.420         7
41.430        33
41.440        67
41.450        20
41.460         0
41.470         7
41.480         7
41.490        27
41.500         7
41.510        20
41.520        27
41.530        27
41.540        13
41.550        47
41.560        27
41.570        53
41.580        33
41.590        47
41.600        40
41.610        40
41.620        87
41.630        53
41.640        60
41.650        60
41.660       107
41.670        87
41.680        87
41.690       147
41.700       100
41.710       120
41.720       127
41.730        67
41.740       113
41.750       107
41.760        87
41.770        80
41.780        60
41.790        60
41.800       100
41.810       120
41.820       100
41.830        53
41.840        33
41.850        67
41.860        33
41.870        13
41.880        40
41.890        33
41.900        20
41.910        13
41.920        13
41.930        40
41.940        20
41.950        20
41.960        27
41.970         0
41.980        20
41.990        47
42.000        13
42.010        40
42.020        20
42.030        20
42.040        40
42.050        20
42.060        27
42.070        13
42.080        27
42.090        33
42.100        27
42.110        33
42.120         7
42.130        13
42.140        33
42.150        20
42.160        13
42.170        47
42.180        53
42.190        40
42.200        13
42.210        20
42.220        27
42.230        40
42.240        33
42.250        13
42.260        20
42.270         7
42.280        27
42.290        27
42.300         7
42.310        27
42.320        13
42.330        33
42.340        13
42.350        20
42.360        53
42.370         0
42.380        20
42.390        27
42.400        27
42.410        33
42.420        13
42.430        13
42.440        20
42.450        27
42.460        13
42.470        27
42.480        13
42.490        40
42.500        27
42.510        27
42.520        27
42.530        13
42.540        13
42.550        20
42.560        13
42.570         0
42.580        27
42.590        13
42.600         7
42.610        27
42.620        13
42.630        20
42.640        13
42.650        20
42.660        27
42.670         7
42.680        13
42.690        13
42.700        33
42.710        27
42.720        40
42.730        20
42.740        47
42.750         7
42.760        13
42.770         7
42.780         0
42.790        47
42.800        33
42.810        27
42.820         7
42.830        27
42.840         0
42.850        60
42.860        13
42.870        20
42.880        13
42.890        27
42.900         0
42.910        33
42.920        20
42.930        27
42.940         7
42.950        33
42.960        33
42.970        20
42.980        40
42.990        20
43.000         0
43.010        40
43.020        13
43.030        20
43.040        40
43.050        33
43.060        20
43.070        27
43.080        20
43.090        40
43.100        20
43.110        27
43.120        13
43.130        20
43.140        40
43.150        47
43.160        40
43.170        47
43.180        27
43.190        53
43.200        47
43.210        20
43.220        60
43.230        20
43.240        20
43.250        73
43.260        47
43.270        33
43.280        47
43.290        93
43.300        27
43.310        80
43.320       113
43.330       140
43.340       167
43.350       233
43.360       227
43.370       220
43.380       240
43.390       260
43.400       313
43.410       140
43.420       187
43.430       200
43.440       193
43.450       133
43.460       100
43.470       133
43.480       100
43.490       147
43.500       167
43.510       140
43.520        87
43.530        87
43.540       100
43.550        73
43.560        87
43.570        27
43.580        27
43.590        53
43.600        47
43.610        13
43.620        40
43.630        33
43.640        33
43.650        20
43.660        13
43.670        20
43.680        20
43.690        33
43.700        33
43.710        27
43.720        67
43.730        33
43.740        33
43.750        20
43.760        27
43.770         7
43.780         7
43.790        13
43.800        20
43.810        13
43.820        20
43.830        27
43.840        47
43.850         7
43.860        27
43.870        33
43.880        27
43.890        13
43.900         7
43.910        33
43.920        20
43.930         0
43.940        20
43.950        20
43.960        40
43.970        20
43.980        20
43.990        13
44.000        20
44.010        13
44.020        33
44.030         7
44.040         7
44.050        13
44.060        20
44.070        27
44.080        20
44.090        33
44.100         7
44.110        13
44.120         0
44.130        40
44.140        13
44.150        40
44.160        13
44.170        20
44.180        13
44.190        27
44.200         7
44.210         0
44.220        13
44.230        20
44.240        47
44.250        13
44.260        13
44.270         7
44.280        33
44.290        20
44.300        47
44.310        13
44.320        20
44.330        33
44.340         7
44.350        47
44.360        20
44.370         7
44.380        27
44.390        27
44.400         7
44.410        27
44.420         7
44.430        20
44.440        40
44.450        13
44.460        40
44.470         7
44.480        33
44.490        47
44.500        33
44.510        47
44.520        67
44.530        47
44.540        27
44.550        27
44.560        20
44.570        47
44.580        13
44.590        27
44.600        27
44.610        20
44.620        40
44.630        40
44.640        33
44.650        13
44.660        13
44.670        40
44.680        20
44.690        27
44.700        20
44.710        27
44.720        27
44.730        20
44.740         7
44.750         7
44.760        40
44.770        33
44.780        27
44.790        27
44.800        33
44.810        20
44.820        33
44.830        13
44.840        53
44.850        40
44.860        40
44.870        40
44.880        40
44.890        40
44.900        47
44.910        60
44.920        27
44.930        20
44.940        67
44.950        60
44.960        33
44.970        53
44.980        40
44.990        27
45.000        40
45.010        13
45.020        27
45.030         0
45.040        67
45.050        27
45.060        33
45.070        33
45.080        53
45.090        20
45.100        47
45.110        27
45.120        33
45.130        47
45.140        27
45.150        47
45.160        27
45.170        40
45.180        47
45.190        60
45.200        73
45.210        33
45.220        40
45.230        27
45.240        40
45.250        20
45.260        60
45.270        47
45.280        60
45.290        53
45.300        33
45.310        67
45.320        60
45.330        60
45.340        53
45.350        33
45.360        47
45.370        47
45.380        93
45.390        67
45.400        60
45.410        73
45.420        80
45.430       107
45.440        53
45.450        53
45.460        80
45.470        67
45.480       107
45.490       107
45.500        67
45.510       107
45.520       133
45.530       133
45.540       120
45.550       213
45.560       113
45.570       147
45.580       160
45.590       200
45.600       167
45.610       253
45.620       200
45.630       253
45.640       240
45.650       313
45.660       380
45.670       400
45.680       426
45.690       327
45.700       446
45.710       560
45.720       573
45.730       640
45.740       660
45.750       733
45.760       600
45.770       740
45.780       813
45.790       833
45.800       946
45.810      1100
45.820      1086
45.830      1086
45.840      1126
45.850      1186
45.860      1226
45.870      1286
45.880      1319
45.890      1266
45.900      1326
45.910      1200
45.920      1153
45.930      1173
45.940      1006
45.950       893
45.960      1000
45.970       873
45.980       840
45.990       800
46.000       666
46.010       613
46.020       653
46.030       640
46.040       580
46.050       400
46.060       380
46.070       373
46.080       387
46.090       273
46.100       313
46.110       307
46.120       220
46.130       200
46.140       173
46.150       167
46.160       160
46.170       167
46.180       173
46.190       100
46.200       147
46.210       140
46.220        93
46.230        73
46.240        67
46.250       120
46.260       120
46.270        87
46.280        73
46.290       127
46.300       107
46.310        73
46.320        67
46.330        73
46.340        87
46.350        33
46.360        73
46.370        73
46.380        67
46.390        20
46.400        33
46.410        67
46.420       107
46.430        47
46.440        27
46.450        47
46.460        60
46.470        40
46.480        40
46.490        27
46.500        27
46.510        40
46.520        20
46.530        80
46.540        47
46.550         7
46.560        33
46.570        40
46.580        40
46.590        13
46.600        27
46.610        53
46.620        47
46.630        33
46.640        27
46.650        40
46.660        13
46.670        27
46.680        20
46.690        40
46.700        47
46.710        27
46.720        33
46.730        40
46.740        20
46.750        27
46.760        47
46.770        60
46.780        13
46.790        53
46.800        33
46.810        40
46.820        33
46.830        27
46.840        20
46.850        13
46.860        20
46.870        53
46.880        27
46.890        40
46.900        27
46.910         7
46.920        40
46.930        20
46.940        33
46.950        73
46.960        33
46.970        27
46.980        13
46.990        33
47.000        40
47.010        13
47.020        40
47.030        13
47.040        27
47.050        20
47.060        27
47.070        27
47.080        33
47.090        20
47.100        33
47.110        40
47.120        33
47.130        27
47.140        33
47.150        20
47.160        47
47.170        33
47.180        47
47.190        20
47.200        20
47.210        27
47.220        40
47.230        27
47.240        40
47.250        20
47.260        67
47.270        47
47.280        33
47.290         7
47.300        13
47.310        20
47.320        13
47.330        40
47.340        47
47.350        13
47.360        13
47.370        20
47.380        13
47.390        20
47.400        20
47.410        40
47.420        13
47.430        67
47.440        33
47.450        13
47.460        27
47.470        40
47.480        33
47.490        33
47.500        27
47.510        33
47.520        47
47.530        20
47.540         0
47.550        47
47.560        13
47.570        27
47.580        20
47.590        13
47.600        13
47.610        33
47.620        33
47.630        33
47.640        27
47.650        20
47.660        27
47.670        40
47.680         7
47.690        27
47.700        20
47.710        13
47.720         7
47.730         7
47.740        20
47.750        33
47.760        33
47.770        40
47.780         7
47.790         0
47.800        13
47.810         7
47.820        33
47.830        20
47.840        47
47.850         7
47.860        20
47.870        20
47.880        27
47.890        13
47.900        40
47.910        20
47.920        67
47.930        20
47.940        27
47.950        40
47.960        20
47.970         7
47.980        40
47.990        33
48.000        40
48.010        27
48.020        33
48.030         0
48.040        40
48.050        20
48.060        40
48.070        27
48.080        13
48.090        13
48.100        27
48.110        20
48.120        13
48.130        33
48.140        40
48.150        20
48.160        33
48.170        60
48.180        27
48.190        20
48.200        40
48.210        20
48.220        33
48.230        20
48.240        33
48.250        33
48.260        20
48.270        13
48.280        27
48.290        33
48.300        27
48.310        40
48.320        33
48.330        27
48.340        20
48.350        40
48.360        27
48.370        20
48.380        20
48.390        27
48.400         7
48.410        13
48.420        27
48.430        27
48.440        20
48.450        40
48.460        13
48.470        20
48.480        60
48.490        27
48.500        13
48.510        20
48.520         7
48.530        20
48.540        20
48.550        20
48.560        47
48.570        20
48.580        20
48.590        20
48.600         7
48.610        20
48.620         7
48.630        13
48.640        13
48.650        20
48.660        27
48.670        40
48.680        27
48.690         7
48.700         7
48.710        27
48.720        20
48.730        47
48.740        13
48.750        20
48.760        40
48.770         7
48.780         0
48.790        20
48.800        20
48.810         7
48.820        27
48.830        13
48.840        33
48.850        13
48.860        20
48.870         7
48.880        13
48.890        20
48.900        33
48.910        13
48.920        33
48.930        20
48.940        13
48.950        27
48.960         7
48.970         7
48.980        20
48.990        47
49.000        20
49.010        27
49.020        40
49.030        13
49.040        40
49.050        20
49.060        13
49.070        27
49.080        13
49.090        13
49.100         7
49.110        13
49.120        13
49.130        13
49.140         7
49.150         7
49.160        20
49.170        40
49.180        40
49.190        20
49.200         0
49.210        20
49.220        13
49.230        13
49.240         7
49.250        20
49.260        47
49.270        33
49.280         7
49.290        20
49.300        27
49.310        13
49.320        27
49.330        13
49.340        27
49.350         0
49.360        13
49.370        13
49.380         7
49.390         7
49.400        20
49.410        27
49.420        13
49.430        27
49.440        20
49.450        40
49.460         0
49.470        20
49.480         0
49.490        20
49.500        13
49.510         7
49.520        13
49.530         7
49.540        13
49.550        13
49.560         7
49.570        13
49.580        13
49.590         7
49.600        20
49.610        20
49.620        13
49.630        20
49.640        20
49.650        13
49.660        20
49.670        20
49.680        33
49.690         0
49.700        27
49.710        20
49.720         7
49.730        20
49.740        13
49.750         7
49.760        33
49.770         0
49.780        27
49.790        13
49.800        40
49.810        13
49.820        20
49.830        33
49.840         7
49.850        33
49.860        20
49.870        13
49.880        20
49.890        20
49.900        13
49.910        33
49.920        13
49.930        47
49.940         7
49.950        20
49.960        13
49.970        13
49.980         7
49.990         7
50.000        47
50.010        33
50.020        13
50.030        13
50.040         7
50.050        33
50.060        33
50.070        33
50.080         7
50.090        13
50.100         7
50.110        27
50.120         0
50.130        33
50.140        20
50.150        20
50.160         7
50.170        13
50.180         0
50.190        33
50.200        20
50.210        33
50.220        27
50.230         0
50.240        33
50.250        20
50.260        40
50.270        27
50.280         7
50.290        27
50.300        20
50.310        33
50.320        33
50.330        13
50.340        20
50.350        27
50.360        40
50.370        13
50.380         0
50.390         7
50.400        27
50.410        13
50.420        13
50.430         0
50.440        27
50.450        33
50.460         7
50.470        20
50.480         0
50.490        13
50.500        27
50.510        20
50.520        13
50.530        20
50.540        20
50.550        13
50.560        13
50.570        13
50.580         7
50.590         7
50.600        27
50.610         7
50.620         0
50.630         7
50.640         7
50.650        27
50.660        33
50.670        13
50.680        13
50.690        33
50.700         7
50.710         0
50.720        33
50.730         7
50.740         7
50.750         7
50.760        20
50.770         7
50.780         7
50.790        13
50.800         7
50.810        33
50.820        13
50.830        33
50.840         7
50.850        13
50.860        20
50.870        27
50.880        27
50.890        40
50.900         0
50.910        27
50.920        27
50.930        20
50.940        13
50.950         7
50.960         7
50.970        27
50.980        20
50.990         0
51.000        20
51.010         7
51.020         7
51.030        27
51.040        13
51.050        13
51.060        13
51.070        20
51.080        20
51.090         0
51.100         7
51.110        13
51.120        20
51.130         7
51.140         7
51.150        13
51.160        13
51.170        13
51.180        33
51.190        33
51.200        27
51.210        20
51.220        33
51.230        20
51.240        27
51.250         7
51.260        20
51.270        33
51.280        20
51.290         7
51.300        13
51.310        27
51.320        20
51.330         0
51.340        20
51.350        47
51.360        13
51.370        27
51.380        33
51.390        13
51.400        27
51.410        33
51.420         7
51.430        13
51.440        13
51.450         7
51.460        20
51.470        13
51.480        27
51.490        27
51.500        40
51.510        33
51.520        60
51.530        20
51.540        20
51.550        27
51.560        13
51.570        13
51.580        33
51.590        13
51.600        40
51.610        20
51.620         0
51.630        27
51.640        67
51.650        40
51.660        13
51.670         7
51.680        13
51.690        13
51.700        20
51.710         7
51.720        33
51.730         7
51.740        13
51.750        20
51.760        20
51.770         0
51.780        27
51.790        13
51.800        13
51.810        27
51.820         7
51.830        27
51.840        27
51.850        20
51.860        13
51.870        33
51.880         7
51.890        27
51.900        20
51.910        20
51.920         7
51.930         7
51.940        13
51.950        20
51.960        33
51.970        13
51.980        13
51.990        33
52.000        13
52.010         0
52.020        33
52.030         7
52.040        20
52.050         7
52.060        40
52.070        20
52.080        20
52.090        33
52.100        20
52.110        47
52.120        20
52.130        27
52.140         7
52.150        27
52.160        27
52.170        13
52.180        13
52.190        13
52.200        13
52.210        47
52.220        13
52.230        33
52.240         7
52.250         0
52.260         7
52.270        33
52.280        13
52.290        20
52.300        33
52.310         7
52.320        27
52.330        33
52.340        33
52.350        20
52.360        13
52.370        20
52.380        40
52.390         0
52.400        33
52.410        20
52.420        60
52.430        27
52.440        20
52.450        20
52.460        27
52.470        13
52.480        27
52.490         7
52.500        13
52.510         7
52.520        20
52.530        53
52.540        33
52.550        67
52.560        67
52.570        73
52.580       107
52.590       113
52.600        80
52.610        73
52.620       107
52.630        53
52.640        53
52.650        47
52.660        40
52.670        60
52.680        47
52.690        53
52.700        73
52.710        40
52.720        53
52.730        67
52.740        13
52.750        20
52.760        40
52.770        53
52.780        20
52.790        27
52.800        60
52.810        20
52.820        13
52.830        20
52.840         7
52.850        13
52.860        13
52.870        20
52.880        13
52.890        13
52.900         7
52.910        20
52.920        13
52.930        33
52.940        40
52.950        27
52.960        13
52.970        27
52.980        13
52.990        13
53.000        13
53.010         0
53.020        20
53.030         0
53.040        27
53.050         7
53.060        13
53.070         7
53.080        27
53.090        40
53.100        13
53.110        13
53.120        13
53.130        13
53.140        13
53.150        33
53.160        20
53.170        13
53.180        13
53.190        40
53.200        33
53.210        13
53.220        20
53.230        27
53.240        20
53.250        13
53.260        20
53.270        13
53.280        47
53.290         0
53.300        13
53.310        13
53.320         7
53.330         7
53.340        13
53.350        13
53.360         7
53.370         7
53.380        13
53.390        13
53.400        20
53.410        33
53.420        20
53.430        40
53.440        13
53.450         7
53.460        27
53.470         7
53.480         7
53.490        13
53.500        20
53.510        27
53.520        13
53.530        27
53.540        27
53.550        33
53.560        27
53.570        20
53.580        33
53.590        20
53.600        13
53.610        27
53.620        20
53.630        20
53.640         7
53.650        20
53.660        40
53.670        20
53.680        13
53.690        33
53.700        20
53.710        13
53.720        20
53.730        13
53.740         7
53.750        20
53.760         0
53.770        20
53.780        13
53.790         0
53.800         7
53.810        13
53.820        13
53.830        20
53.840        20
53.850        20
53.860        27
53.870        13
53.880        20
53.890        13
53.900        13
53.910        20
53.920        27
53.930        20
53.940         0
53.950        27
53.960        13
53.970        33
53.980        13
53.990        40
54.000        33
54.010        27
54.020        13
54.030        27
54.040         0
54.050        27
54.060         7
54.070        13
54.080        13
54.090        13
54.100        20
54.110        20
54.120        27
54.130        20
54.140         7
54.150        13
54.160        20
54.170        33
54.180        20
54.190         0
54.200        13
54.210        20
54.220         7
54.230         7
54.240        27
54.250        20
54.260         0
54.270        13
54.280        47
54.290         0
54.300        13
54.310        13
54.320        20
54.330        20
54.340         7
54.350        13
54.360        20
54.370        13
54.380        13
54.390        27
54.400        33
54.410         7
54.420        20
54.430        13
54.440        20
54.450        13
54.460        40
54.470         0
54.480        20
54.490        20
54.500         7
54.510         7
54.520         0
54.530         0
54.540        27
54.550         7
54.560        13
54.570        27
54.580        13
54.590        13
54.600         7
54.610         7
54.620        27
54.630        13
54.640        27
54.650         7
54.660        20
54.670        20
54.680        20
54.690        27
54.700        27
54.710         7
54.720         0
54.730         7
54.740        13
54.750        20
54.760        13
54.770        13
54.780        27
54.790         0
54.800        20
54.810         0
54.820         7
54.830        13
54.840        33
54.850        53
54.860        20
54.870        13
54.880         0
54.890        40
54.900        20
54.910         0
54.920        13
54.930        13
54.940        20
54.950        27
54.960        20
54.970        13
54.980        13
54.990        33
55.000        27
55.010         7
55.020        40
55.030        20
55.040        13
55.050        33
55.060         7
55.070        27
55.080        20
55.090         7
55.100        33
55.110        13
55.120         7
55.130        33
55.140         7
55.150         7
55.160        33
55.170         7
55.180        27
55.190        13
55.200        27
55.210        27
55.220         7
55.230         7
55.240        13
55.250        13
55.260        20
55.270         7
55.280        20
55.290         7
55.300        13
55.310        13
55.320        27
55.330        33
55.340        13
55.350        20
55.360        27
55.370         7
55.380        13
55.390         0
55.400        20
55.410         0
55.420         0
55.430        20
55.440        27
55.450         7
55.460        27
55.470        13
55.480        13
55.490        20
55.500         7
55.510         0
55.520         7
55.530         7
55.540        20
55.550         7
55.560         0
55.570        20
55.580        20
55.590        20
55.600        33
55.610        13
55.620        20
55.630        20
55.640        20
55.650         7
55.660        20
55.670        33
55.680        33
55.690        27
55.700        13
55.710        13
55.720        13
55.730        47
55.740        13
55.750        20
55.760         0
55.770         7
55.780         7
55.790        40
55.800        40
55.810        13
55.820        27
55.830        20
55.840         7
55.850         7
55.860         7
55.870        33
55.880        20
55.890        33
55.900        20
55.910         7
55.920        27
55.930        27
55.940        20
55.950        33
55.960         0
55.970         7
55.980        13
55.990         7
56.000        27
56.010        13
56.020         0
56.030        27
56.040         7
56.050        13
56.060        13
56.070        13
56.080        20
56.090        13
56.100        20
56.110        40
56.120        27
56.130        27
56.140        27
56.150        27
56.160        20
56.170        20
56.180        20
56.190        13
56.200         7
56.210        20
56.220         0
56.230         7
56.240        27
56.250         7
56.260         7
56.270        20
56.280         7
56.290         7
56.300        33
56.310         7
56.320        13
56.330        27
56.340        13
56.350        13
56.360         0
56.370        47
56.380        13
56.390         7
56.400        13
56.410         0
56.420        27
56.430        13
56.440        13
56.450         7
56.460        20
56.470        13
56.480        13
56.490        13
56.500        13
56.510        40
56.520        13
56.530         7
56.540         7
56.550         0
56.560        20
56.570        20
56.580        40
56.590        13
56.600         0
56.610        13
56.620        20
56.630        13
56.640        20
56.650        13
56.660        40
56.670         7
56.680         0
56.690        13
56.700        20
56.710        20
56.720         7
56.730        13
56.740        13
56.750         7
56.760        13
56.770        13
56.780        13
56.790        33
56.800        13
56.810         7
56.820        13
56.830        33
56.840         0
56.850        40
56.860        47
56.870        40
56.880        47
56.890        27
56.900        20
56.910        53
56.920        60
56.930        60
56.940        53
56.950        67
56.960        27
56.970        53
56.980        73
56.990        53
57.000       100
57.010        73
57.020        40
57.030        40
57.040        40
57.050        60
57.060        40
57.070        60
57.080        73
57.090        60
57.100        67
57.110        40
57.120        60
57.130        53
57.140       100
57.150        73
57.160        73
57.170        40
57.180        60
57.190        47
57.200        33
57.210        60
57.220        67
57.230        87
57.240        67
57.250        33
57.260        53
57.270        40
57.280        40
57.290        47
57.300        47
57.310        27
57.320        33
57.330        33
57.340        47
57.350        40
57.360        27
57.370        13
57.380        67
57.390        40
57.400        13
57.410        67
57.420        87
57.430        53
57.440        93
57.450        73
57.460       127
57.470        87
57.480       147
57.490       240
57.500       173
57.510       273
57.520       367
57.530       360
57.540       273
57.550       327
57.560       420
57.570       333
57.580       287
57.590       240
57.600       200
57.610       147
57.620       127
57.630       140
57.640       113
57.650       140
57.660       233
57.670       207
57.680       180
57.690       220
57.700       233
57.710       200
57.720       127
57.730       120
57.740       247
57.750       147
57.760        93
57.770        53
57.780        33
57.790        40
57.800        40
57.810        47
57.820        13
57.830        33
57.840        40
57.850        13
57.860        13
57.870        20
57.880        13
57.890        13
57.900        13
57.910        13
57.920        20
57.930        20
57.940        20
57.950        13
57.960        13
57.970        27
57.980        27
57.990         0
58.000         7
58.010        27
58.020        33
58.030        13
58.040        20
58.050        27
58.060         7
58.070         0
58.080        20
58.090        13
58.100        53
58.110         7
58.120        27
58.130        33
58.140        33
58.150         7
58.160         7
58.170        20
58.180        20
58.190         7
58.200        27
58.210         7
58.220        27
58.230        20
58.240        33
58.250         7
58.260         7
58.270        27
58.280        13
58.290        20
58.300        13
58.310         7
58.320        20
58.330        20
58.340        20
58.350        33
58.360        13
58.370        33
58.380        20
58.390        13
58.400        13
58.410        13
58.420        33
58.430         0
58.440        20
58.450         7
58.460         7
58.470        20
58.480         7
58.490         7
58.500        20
58.510         0
58.520        13
58.530         7
58.540        20
58.550         7
58.560        27
58.570        27
58.580         7
58.590        13
58.600         0
58.610        13
58.620        20
58.630        33
58.640         7
58.650        13
58.660         7
58.670         7
58.680        20
58.690        13
58.700         7
58.710         0
58.720        13
58.730         0
58.740        20
58.750         7
58.760        13
58.770         7
58.780        33
58.790         7
58.800        13
58.810        20
58.820        20
58.830        13
58.840        20
58.850        20
58.860         7
58.870         7
58.880        13
58.890        20
58.900        20
58.910        33
58.920         0
58.930         7
58.940         7
58.950         7
58.960        13
58.970        20
58.980         0
58.990        20
59.000        27
59.010         0
59.020         7
59.030        20
59.040        20
59.050        33
59.060        27
59.070        13
59.080        13
59.090        13
59.100         0
59.110        13
59.120        27
59.130         7
59.140        20
59.150         0
59.160         7
59.170         7
59.180         0
59.190         7
59.200        20
59.210        20
59.220         7
59.230         7
59.240        20
59.250         0
59.260        20
59.270        33
59.280        13
59.290         0
59.300        20
59.310         7
59.320        13
59.330        20
59.340        47
59.350         7
59.360        13
59.370        20
59.380        20
59.390        20
59.400         7
59.410         7
59.420        20
59.430        33
59.440        13
59.450        13
59.460        33
59.470        53
59.480        13
59.490         7
59.500        40
59.510        47
59.520        27
59.530        13
59.540        40
59.550        20
59.560         0
59.570        20
59.580        13
59.590         7
59.600         7
59.610        20
59.620         7
59.630         7
59.640        13
59.650         0
59.660        47
59.670        13
59.680         7
59.690        33
59.700        20
59.710        40
59.720         7
59.730         0
59.740         7
59.750         7
59.760        33
59.770        13
59.780        20
59.790        20
59.800        27
59.810        13
59.820        20
59.830        13
59.840        60
59.850         7
59.860        20
59.870        13
59.880        20
59.890        27
59.900        53
59.910        13
59.920         0
59.930         0
59.940        13
59.950        20
59.960        20
59.970         0
59.980        20
59.990         7
60.000         7
