20.000       100
20.010       100
20.020       147
20.030       147
20.040       133
20.050       107
20.060       167
20.070       173
20.080       133
20.090       147
20.100       153
20.110       207
20.120       147
20.130       147
20.140       153
20.150       120
20.160       173
20.170       160
20.180       113
20.190       187
20.200       140
20.210       220
20.220       187
20.230       113
20.240       127
20.250       180
20.260       167
20.270       173
20.280       173
20.290       153
20.300       113
20.310       100
20.320       160
20.330       167
20.340       167
20.350       173
20.360       127
20.370       173
20.380       180
20.390       167
20.400       140
20.410       200
20.420       160
20.430       233
20.440       173
20.450       160
20.460       200
20.470       140
20.480       200
20.490       147
20.500       167
20.510       233
20.520       147
20.530       227
20.540       107
20.550       173
20.560        93
20.570       133
20.580       140
20.590       173
20.600       167
20.610       193
20.620       120
20.630       220
20.640       147
20.650       140
20.660       153
20.670       173
20.680       220
20.690       133
20.700       193
20.710       240
20.720       140
20.730       153
20.740       193
20.750       193
20.760       247
20.770       240
20.780       213
20.790       240
20.800       167
20.810       200
20.820       220
20.830       153
20.840       200
20.850       307
20.860       173
20.870       173
20.880       187
20.890       247
20.900       180
20.910       173
20.920       273
20.930       220
20.940       287
20.950       200
20.960       267
20.970       267
20.980       227
20.990       147
21.000       220
21.010       207
21.020       240
21.030       187
21.040       307
21.050       233
21.060       280
21.070       193
21.080       247
21.090       247
21.100       280
21.110       260
21.120       200
21.130       300
21.140       260
21.150       213
21.160       253
21.170       293
21.180       340
21.190       400
21.200       600
21.210       626
21.220       680
21.230       733
21.240       640
21.250       720
21.260       713
21.270       466
21.280       466
21.290       373
21.300       267
21.310       233
21.320       240
21.330       187
21.340       280
21.350       273
21.360       280
21.370       180
21.380       267
21.390       240
21.400       200
21.410       273
21.420       220
21.430       227
21.440       193
21.450       253
21.460       207
21.470       140
21.480       193
21.490       280
21.500       193
21.510       227
21.520       260
21.530       260
21.540       227
21.550       213
21.560       220
21.570       220
21.580       280
21.590       247
21.600       253
21.610       220
21.620       247
21.630       207
21.640       280
21.650       240
21.660       207
21.670       293
21.680       227
21.690       200
21.700       253
21.710       200
21.720       253
21.730       307
21.740       280
21.750       160
21.760       167
21.770       267
21.780       200
21.790       160
21.800       233
21.810       280
21.820       147
21.830       260
21.840       207
21.850       233
21.860       267
21.870       253
21.880       273
21.890       260
21.900       200
21.910       240
21.920       313
21.930       260
21.940       280
21.950       247
21.960       247
21.970       313
21.980       227
21.990       207
22.000       227
22.010       233
22.020       273
22.030       313
22.040       233
22.050       260
22.060       220
22.070       287
22.080       320
22.090       300
22.100       180
22.110       267
22.120       320
22.130       400
22.140       267
22.150       293
22.160       380
22.170       407
22.180       380
22.190       486
22.200       460
22.210       686
22.220       666
22.230       633
22.240       666
22.250       766
22.260       813
22.270       746
22.280       980
22.290       793
22.300       986
22.310       853
22.320      1046
22.330       960
22.340       926
22.350       926
22.360       960
22.370       986
22.380       926
22.390       873
22.400       746
22.410       880
22.420       820
22.430       780
22.440       566
22.450       760
22.460       713
22.470       806
22.480       686
22.490       580
22.500       686
22.510       493
22.520       526
22.530       560
22.540       473
22.550       586
22.560       413
22.570       486
22.580       387
22.590       466
22.600       307
22.610       333
22.620       380
22.630       320
22.640       267
22.650       300
22.660       227
22.670       187
22.680       247
22.690       287
22.700       280
22.710       307
22.720       367
22.730       367
22.740       393
22.750       413
22.760       440
22.770       460
22.780       407
22.790       440
22.800       426
22.810       387
22.820       486
22.830       413
22.840       506
22.850       486
22.860       333
22.870       360
22.880       553
22.890       446
22.900       353
22.910       393
22.920       440
22.930       360
22.940       493
22.950       387
22.960       426
22.970       413
22.980       420
22.990       407
23.000       393
23.010       486
23.020       493
23.030       480
23.040       373
23.050       426
23.060       387
23.070       433
23.080       353
23.090       473
23.100       453
23.110       473
23.120       466
23.130       540
23.140       347
23.150       440
23.160       327
23.170       493
23.180       500
23.190       533
23.200       520
23.210       506
23.220       453
23.230       526
23.240       526
23.250       553
23.260       606
23.270       566
23.280       560
23.290       613
23.300       746
23.310       786
23.320       793
23.330       866
23.340       980
23.350      1233
23.360      1133
23.370      1546
23.380      1513
23.390      1959
23.400      1979
23.410      2286
23.420      2766
23.430      3385
23.440      3858
23.450      5471
23.460      7497
23.470     12782
23.480     21458
23.490     31427
23.500     42483
23.510     50153
23.520     51140
23.530     52632
23.540     52999
23.550     50853
23.560     47361
23.570     41044
23.580     35752
23.590     30534
23.600     25623
23.610     22411
23.620     16427
23.630     11342
23.640      7630
23.650      5518
23.660      4711
23.670      3679
23.680      3225
23.690      2772
23.700      2352
23.710      2073
23.720      2079
23.730      1646
23.740      1299
23.750      1113
23.760       886
23.770       993
23.780       680
23.790       740
23.800       646
23.810       600
23.820       500
23.830       633
23.840       526
23.850       533
23.860       560
23.870       600
23.880       433
23.890       533
23.900       413
23.910       446
23.920       353
23.930       513
23.940       453
23.950       473
23.960       387
23.970       473
23.980       493
23.990       460
24.000       393
24.010       486
24.020       446
24.030       373
24.040       407
24.050       473
24.060       433
24.070       426
24.080       353
24.090       513
24.100       333
24.110       353
24.120       426
24.130       393
24.140       400
24.150       460
24.160       453
24.170       513
24.180       433
24.190       367
24.200       393
24.210       426
24.220       446
24.230       340
24.240       387
24.250       313
24.260       367
24.270       486
24.280       440
24.290       367
24.300       387
24.310       426
24.320       380
24.330       407
24.340       353
24.350       333
24.360       273
24.370       307
24.380       340
24.390       293
24.400       473
24.410       426
24.420       313
24.430       407
24.440       400
24.450       340
24.460       426
24.470       333
24.480       400
24.490       347
24.500       333
24.510       393
24.520       407
24.530       260
24.540       380
24.550       347
24.560       360
24.570       433
24.580       367
24.590       347
24.600       413
24.610       320
24.620       327
24.630       333
24.640       387
24.650       307
24.660       353
24.670       313
24.680       313
24.690       333
24.700       327
24.710       347
24.720       333
24.730       347
24.740       320
24.750       407
24.760       347
24.770       347
24.780       360
24.790       373
24.800       340
24.810       367
24.820       353
24.830       380
24.840       387
24.850       313
24.860       293
24.870       307
24.880       280
24.890       367
24.900       407
24.910       253
24.920       307
24.930       273
24.940       393
24.950       307
24.960       393
24.970       353
24.980       340
24.990       353
25.000       393
25.010       347
25.020       313
25.030       387
25.040       313
25.050       300
25.060       380
25.070       387
25.080       293
25.090       407
25.100       353
25.110       420
25.120       360
25.130       273
25.140       333
25.150       280
25.160       347
25.170       360
25.180       300
25.190       453
25.200       360
25.210       320
25.220       400
25.230       347
25.240       367
25.250       353
25.260       327
25.270       360
25.280       380
25.290       367
25.300       333
25.310       307
25.320       267
25.330       367
25.340       347
25.350       413
25.360       347
25.370       353
25.380       333
25.390       333
25.400       407
25.410       267
25.420       293
25.430       347
25.440       320
25.450       293
25.460       267
25.470       273
25.480       293
25.490       407
25.500       380
25.510       307
25.520       340
25.530       313
25.540       300
25.550       300
25.560       287
25.570       333
25.580       333
25.590       287
25.600       407
25.610       360
25.620       353
25.630       287
25.640       373
25.650       333
25.660       407
25.670       367
25.680       267
25.690       293
25.700       380
25.710       307
25.720       327
25.730       347
25.740       260
25.750       300
25.760       327
25.770       300
25.780       340
25.790       347
25.800       367
25.810       333
25.820       353
25.830       400
25.840       293
25.850       407
25.860       293
25.870       233
25.880       300
25.890       367
25.900       320
25.910       340
25.920       320
25.930       387
25.940       320
25.950       353
25.960       307
25.970       327
25.980       320
25.990       293
26.000       260
26.010       327
26.020       367
26.030       287
26.040       227
26.050       267
26.060       313
26.070       380
26.080       327
26.090       267
26.100       207
26.110       373
26.120       320
26.130       273
26.140       220
26.150       333
26.160       280
26.170       280
26.180       327
26.190       287
26.200       273
26.210       273
26.220       267
26.230       426
26.240       200
26.250       420
26.260       260
26.270       287
26.280       293
26.290       247
26.300       320
26.310       287
26.320       347
26.330       307
26.340       300
26.350       340
26.360       373
26.370       240
26.380       353
26.390       340
26.400       320
26.410       340
26.420       267
26.430       293
26.440       273
26.450       287
26.460       300
26.470       260
26.480       333
26.490       253
26.500       247
26.510       267
26.520       333
26.530       233
26.540       253
26.550       233
26.560       333
26.570       327
26.580       240
26.590       353
26.600       247
26.610       207
26.620       347
26.630       273
26.640       313
26.650       260
26.660       353
26.670       327
26.680       293
26.690       307
26.700       273
26.710       193
26.720       353
26.730       267
26.740       307
26.750       333
26.760       320
26.770       307
26.780       360
26.790       233
26.800       380
26.810       267
26.820       300
26.830       293
26.840       253
26.850       287
26.860       247
26.870       327
26.880       273
26.890       200
26.900       287
26.910       333
26.920       300
26.930       227
26.940       240
26.950       227
26.960       233
26.970       280
26.980       253
26.990       253
27.000       293
27.010       280
27.020       220
27.030       240
27.040       347
27.050       247
27.060       267
27.070       293
27.080       213
27.090       280
27.100       193
27.110       260
27.120       347
27.130       273
27.140       227
27.150       267
27.160       240
27.170       287
27.180       220
27.190       180
27.200       227
27.210       373
27.220       280
27.230       300
27.240       327
27.250       253
27.260       333
27.270       227
27.280       227
27.290       247
27.300       247
27.310       240
27.320       207
27.330       340
27.340       267
27.350       300
27.360       220
27.370       247
27.380       180
27.390       253
27.400       253
27.410       280
27.420       220
27.430       247
27.440       293
27.450       227
27.460       287
27.470       367
27.480       227
27.490       213
27.500       287
27.510       227
27.520       167
27.530       233
27.540       340
27.550       200
27.560       247
27.570       267
27.580       320
27.590       293
27.600       220
27.610       247
27.620       213
27.630       247
27.640       300
27.650       253
27.660       213
27.670       267
27.680       233
27.690       213
27.700       287
27.710       227
27.720       267
27.730       287
27.740       227
27.750       193
27.760       300
27.770       200
27.780       267
27.790       200
27.800       220
27.810       220
27.820       213
27.830       220
27.840       227
27.850       207
27.860       240
27.870       160
27.880       233
27.890       280
27.900       273
27.910       153
27.920       267
27.930       207
27.940       247
27.950       267
27.960       267
27.970       340
27.980       180
27.990       240
28.000       220
28.010       207
28.020       280
28.030       207
28.040       233
28.050       287
28.060       220
28.070       260
28.080       293
28.090       240
28.100       260
28.110       193
28.120       233
28.130       220
28.140       220
28.150       267
28.160       247
28.170       227
28.180       233
28.190       273
28.200       227
28.210       207
28.220       260
28.230       247
28.240       227
28.250       227
28.260       253
28.270       227
28.280       267
28.290       207
28.300       220
28.310       207
28.320       280
28.330       147
28.340       253
28.350       200
28.360       187
28.370       247
28.380       273
28.390       213
28.400       253
28.410       200
28.420       260
28.430       167
28.440       187
28.450       253
28.460       140
28.470       220
28.480       187
28.490       213
28.500       160
28.510       247
28.520       167
28.530       140
28.540       267
28.550       260
28.560       167
28.570       173
28.580       160
28.590       247
28.600       213
28.610       213
28.620       220
28.630       140
28.640       160
28.650       247
28.660        87
28.670       193
28.680       180
28.690       233
28.700       307
28.710       153
28.720       200
28.730       207
28.740       260
28.750       207
28.760       173
28.770       207
28.780       180
28.790       233
28.800       153
28.810       207
28.820       300
28.830       207
28.840       187
28.850       207
28.860       280
28.870       213
28.880       147
28.890       207
28.900       227
28.910       140
28.920       167
28.930       260
28.940       213
28.950       153
28.960       220
28.970       267
28.980       180
28.990       220
29.000       180
29.010       153
29.020       180
29.030       180
29.040       260
29.050       193
29.060       173
29.070       200
29.080       120
29.090       180
29.100       160
29.110       193
29.120       180
29.130       213
29.140       160
29.150       213
29.160       167
29.170       187
29.180       187
29.190       327
29.200       233
29.210       187
29.220       260
29.230       153
29.240       267
29.250       160
29.260       200
29.270       313
29.280       167
29.290       253
29.300       200
29.310       280
29.320       167
29.330       153
29.340       173
29.350       200
29.360       180
29.370       240
29.380       133
29.390       227
29.400       260
29.410       180
29.420       273
29.430       187
29.440       107
29.450       240
29.460       140
29.470       173
29.480       180
29.490       193
29.500       180
29.510       227
29.520       200
29.530       193
29.540       167
29.550       140
29.560       140
29.570       180
29.580       173
29.590       167
29.600       140
29.610       207
29.620       207
29.630       200
29.640       180
29.650       213
29.660       120
29.670       207
29.680       173
29.690       153
29.700       120
29.710       187
29.720       167
29.730       193
29.740       140
29.750       127
29.760       220
29.770       180
29.780        80
29.790       240
29.800       147
29.810       127
29.820       153
29.830       200
29.840       187
29.850       140
29.860       120
29.870       213
29.880       120
29.890       127
29.900       153
29.910       147
29.920       120
29.930       200
29.940       140
29.950       153
29.960       167
29.970       147
29.980       187
29.990       147
30.000       147
30.010       213
30.020       213
30.030       140
30.040       173
30.050       193
30.060       213
30.070       193
30.080       200
30.090       240
30.100       133
30.110       140
30.120       160
30.130       107
30.140       187
30.150       140
30.160       113
30.170       200
30.180       120
30.190       133
30.200        93
30.210       133
30.220       193
30.230       140
30.240       187
30.250       133
30.260       153
30.270       140
30.280       147
30.290       173
30.300       133
30.310       133
30.320       133
30.330       127
30.340       173
30.350       153
30.360       173
30.370       153
30.380       133
30.390       153
30.400       167
30.410       180
30.420       187
30.430        93
30.440       147
30.450       153
30.460       133
30.470       160
30.480       153
30.490       187
30.500       180
30.510       133
30.520        80
30.530       160
30.540       173
30.550       193
30.560       193
30.570       180
30.580       193
30.590       133
30.600       127
30.610       140
30.620       207
30.630       160
30.640       133
30.650       100
30.660       147
30.670       213
30.680       140
30.690       173
30.700       147
30.710       153
30.720       180
30.730       180
30.740        93
30.750       160
30.760       160
30.770       153
30.780       120
30.790       133
30.800       167
30.810       147
30.820       133
30.830       140
30.840       173
30.850       127
30.860       127
30.870       160
30.880       107
30.890        80
30.900       113
30.910        67
30.920       153
30.930       120
30.940       167
30.950       107
30.960       153
30.970       133
30.980       133
30.990       120
31.000       100
31.010       160
31.020       160
31.030       140
31.040       193
31.050       120
31.060       107
31.070       113
31.080       107
31.090       120
31.100       120
31.110       167
31.120       140
31.130       127
31.140       220
31.150       147
31.160       160
31.170       133
31.180        73
31.190       193
31.200        80
31.210       113
31.220       133
31.230       147
31.240       120
31.250       127
31.260       120
31.270       107
31.280       153
31.290        93
31.300        87
31.310       120
31.320       147
31.330       140
31.340       127
31.350       160
31.360       107
31.370       147
31.380       113
31.390       140
31.400        93
31.410       113
31.420       147
31.430        87
31.440       160
31.450       120
31.460       107
31.470       140
31.480       113
31.490       133
31.500       160
31.510       120
31.520       133
31.530       127
31.540       127
31.550       100
31.560        67
31.570       133
31.580       160
31.590       127
31.600       160
31.610       107
31.620       127
31.630        87
31.640       167
31.650       133
31.660       193
31.670       127
31.680        87
31.690       160
31.700       133
31.710       107
31.720       120
31.730       107
31.740       147
31.750       193
31.760        93
31.770       133
31.780       127
31.790       180
31.800       160
31.810       147
31.820        93
31.830       140
31.840       133
31.850       173
31.860       120
31.870       113
31.880       153
31.890       113
31.900       127
31.910       113
31.920       153
31.930       100
31.940       127
31.950       153
31.960       207
31.970       107
31.980        93
31.990       193
32.000       140
32.010       127
32.020       127
32.030        73
32.040       133
32.050       193
32.060       227
32.070       127
32.080       133
32.090       147
32.100       147
32.110       100
32.120       107
32.130       100
32.140       133
32.150       147
32.160       100
32.170       133
32.180       173
32.190       113
32.200       120
32.210        93
32.220        47
32.230        73
32.240        60
32.250        93
32.260       153
32.270       107
32.280       147
32.290       107
32.300       127
32.310        93
32.320       133
32.330        93
32.340       113
32.350       127
32.360       127
32.370       127
32.380       100
32.390       133
32.400       153
32.410       113
32.420       100
32.430        87
32.440       107
32.450       133
32.460       140
32.470       127
32.480       120
32.490       140
32.500       133
32.510        93
32.520       120
32.530       133
32.540       107
32.550       127
32.560       127
32.570       107
32.580       107
32.590        93
32.600        87
32.610       100
32.620       120
32.630       107
32.640       207
32.650       127
32.660       113
32.670       120
32.680       127
32.690       167
32.700       107
32.710        93
32.720       120
32.730       113
32.740       140
32.750       107
32.760       120
32.770        67
32.780        87
32.790       120
32.800        73
32.810        73
32.820       100
32.830        33
32.840       187
32.850       127
32.860       133
32.870        80
32.880       107
32.890        80
32.900        67
32.910       100
32.920       147
32.930       120
32.940       153
32.950       113
32.960       127
32.970       113
32.980        67
32.990       107
33.000       127
33.010        87
33.020       100
33.030       133
33.040        73
33.050       160
33.060        93
33.070       140
33.080       100
33.090        80
33.100       140
33.110        93
33.120        93
33.130       147
33.140        60
33.150       100
33.160        80
33.170       120
33.180        53
33.190        80
33.200       107
33.210        67
33.220       100
33.230        93
33.240        87
33.250       147
33.260        80
33.270       120
33.280       107
33.290        87
33.300        53
33.310       120
33.320        73
33.330       100
33.340       113
33.350        93
33.360       113
33.370        80
33.380       120
33.390        80
33.400       100
33.410        87
33.420        80
33.430       100
33.440        93
33.450       100
33.460       113
33.470       147
33.480        93
33.490        67
33.500       127
33.510        93
33.520       113
33.530       100
33.540       113
33.550        87
33.560        73
33.570        93
33.580       167
33.590       120
33.600       100
33.610       120
33.620        93
33.630       120
33.640       100
33.650        80
33.660       120
33.670        73
33.680       100
33.690       113
33.700        87
33.710        93
33.720       100
33.730        93
33.740       153
33.750        67
33.760        87
33.770       100
33.780       120
33.790       147
33.800       127
33.810       100
33.820        80
33.830        87
33.840       120
33.850       107
33.860        73
33.870        80
33.880       100
33.890       100
33.900        87
33.910        87
33.920       100
33.930        80
33.940       153
33.950        93
33.960        87
33.970       120
33.980        73
33.990        67
34.000       107
34.010       107
34.020        60
34.030        87
34.040        93
34.050       107
34.060        47
34.070        80
34.080       113
34.090        80
34.100        87
34.110        87
34.120        93
34.130       113
34.140        73
34.150       107
34.160       113
34.170        87
34.180        80
34.190        80
34.200        60
34.210       100
34.220       133
34.230        80
34.240       120
34.250        73
34.260       113
34.270       113
34.280        80
34.290        53
34.300        87
34.310        53
34.320        93
34.330        73
34.340       107
34.350       107
34.360       100
34.370       127
34.380        73
34.390       160
34.400       127
34.410        73
34.420       127
34.430       100
34.440        60
34.450       113
34.460       127
34.470        93
34.480        80
34.490        60
34.500       107
34.510        80
34.520        60
34.530       100
34.540       127
34.550        87
34.560       120
34.570        80
34.580        73
34.590        67
34.600       113
34.610        53
34.620        53
34.630        67
34.640        73
34.650        67
34.660        67
34.670        80
34.680        73
34.690       140
34.700        73
34.710       100
34.720        67
34.730        73
34.740       127
34.750        67
34.760        87
34.770        80
34.780        60
34.790        47
34.800        87
34.810        47
34.820        60
34.830       107
34.840        80
34.850       100
34.860        47
34.870        40
34.880        47
34.890        53
34.900        80
34.910       120
34.920        40
34.930        60
34.940        60
34.950       107
34.960        73
34.970       113
34.980       107
34.990        87
35.000        93
35.010        80
35.020        80
35.030         7
35.040        60
35.050        93
35.060        73
35.070        87
35.080        80
35.090       113
35.100        67
35.110        73
35.120        67
35.130        73
35.140       120
35.150        73
35.160        60
35.170        60
35.180       100
35.190        80
35.200        47
35.210        87
35.220        87
35.230        27
35.240        73
35.250        53
35.260        80
35.270        53
35.280        60
35.290        73
35.300        67
35.310        47
35.320        67
35.330        93
35.340        80
35.350        67
35.360        93
35.370        80
35.380       113
35.390        73
35.400        67
35.410        47
35.420        67
35.430        67
35.440        40
35.450        80
35.460        53
35.470        53
35.480        40
35.490        60
35.500       107
35.510        60
35.520        47
35.530        73
35.540        93
35.550        53
35.560        53
35.570       113
35.580        53
35.590        53
35.600       100
35.610        53
35.620        60
35.630        80
35.640        73
35.650       120
35.660        80
35.670        87
35.680        33
35.690        87
35.700        87
35.710        67
35.720        60
35.730        87
35.740        60
35.750        73
35.760        60
35.770        40
35.780       120
35.790        73
35.800        87
35.810        60
35.820       127
35.830        93
35.840        53
35.850        53
35.860        67
35.870        80
35.880        87
35.890       100
35.900        87
35.910        67
35.920        67
35.930        53
35.940       127
35.950        73
35.960        80
35.970        67
35.980        53
35.990       107
36.000        60
36.010        40
36.020        67
36.030        73
36.040        60
36.050       100
36.060        53
36.070        93
36.080        67
36.090        73
36.100        80
36.110        60
36.120        53
36.130       100
36.140        47
36.150        80
36.160        67
36.170        73
36.180        53
36.190       107
36.200        67
36.210        73
36.220        53
36.230        47
36.240       100
36.250        73
36.260        47
36.270        47
36.280        73
36.290        33
36.300       107
36.310        73
36.320        53
36.330        87
36.340        80
36.350        47
36.360        73
36.370        33
36.380        53
36.390        67
36.400        67
36.410        53
36.420        67
36.430        53
36.440        73
36.450        40
36.460        60
36.470        40
36.480        60
36.490        93
36.500        73
36.510        80
36.520        60
36.530        93
36.540        60
36.550        80
36.560        53
36.570        80
36.580        60
36.590       100
36.600        47
36.610        60
36.620        40
36.630        60
36.640        80
36.650        67
36.660        67
36.670        60
36.680        60
36.690        33
36.700        67
36.710        67
36.720        53
36.730        47
36.740        67
36.750        73
36.760        27
36.770        87
36.780        40
36.790        67
36.800        87
36.810        53
36.820        27
36.830        40
36.840        40
36.850        47
36.860        40
36.870        73
36.880        60
36.890        67
36.900        73
36.910        33
36.920        73
36.930        60
36.940        47
36.950        93
36.960        67
36.970        73
36.980        60
36.990       100
37.000        33
37.010        80
37.020        73
37.030        67
37.040        60
37.050        73
37.060        33
37.070       107
37.080        60
37.090        73
37.100        73
37.110        73
37.120        67
37.130        73
37.140        67
37.150        33
37.160        47
37.170        67
37.180        60
37.190        33
37.200        73
37.210        67
37.220        67
37.230        73
37.240        60
37.250        73
37.260        93
37.270       100
37.280        27
37.290        53
37.300        33
37.310        67
37.320        87
37.330        60
37.340        67
37.350        60
37.360        80
37.370        33
37.380        87
37.390        40
37.400       100
37.410        47
37.420        40
37.430        53
37.440        40
37.450        87
37.460        60
37.470        40
37.480        80
37.490       107
37.500        73
37.510       133
37.520        27
37.530        80
37.540        67
37.550        73
37.560        67
37.570        80
37.580        73
37.590        60
37.600        67
37.610        80
37.620        73
37.630        33
37.640        67
37.650        47
37.660        67
37.670       107
37.680        60
37.690        33
37.700        60
37.710        47
37.720        80
37.730        73
37.740        80
37.750        33
37.760        40
37.770        73
37.780       127
37.790        80
37.800        87
37.810        87
37.820        93
37.830        53
37.840        53
37.850        53
37.860        73
37.870        33
37.880        53
37.890        60
37.900        73
37.910        73
37.920        53
37.930        73
37.940        53
37.950        60
37.960        73
37.970        47
37.980        67
37.990        40
38.000        60
38.010        60
38.020        93
38.030        60
38.040        67
38.050        60
38.060        67
38.070        47
38.080        80
38.090        87
38.100        60
38.110        53
38.120        67
38.130        40
38.140        53
38.150        80
38.160        93
38.170        53
38.180        47
38.190        53
38.200        60
38.210        80
38.220        67
38.230        67
38.240       113
38.250       100
38.260        47
38.270        73
38.280        67
38.290        47
38.300        73
38.310        33
38.320        67
38.330        53
38.340        80
38.350        87
38.360        73
38.370        73
38.380       100
38.390        40
38.400        33
38.410        73
38.420        47
38.430        53
38.440        47
38.450        73
38.460        47
38.470        40
38.480        47
38.490        27
38.500        67
38.510        67
38.520        67
38.530        47
38.540        27
38.550        60
38.560        73
38.570        73
38.580        53
38.590        40
38.600        80
38.610        60
38.620        87
38.630        40
38.640        40
38.650        47
38.660        27
38.670        40
38.680        47
38.690        47
38.700        67
38.710        87
38.720        53
38.730        67
38.740       100
38.750        60
38.760       100
38.770        47
38.780        80
38.790        53
38.800        47
38.810        47
38.820        40
38.830        73
38.840        53
38.850        80
38.860        40
38.870        87
38.880        33
38.890        60
38.900        27
38.910        67
38.920        53
38.930        80
38.940        47
38.950        93
38.960        33
38.970        80
38.980        47
38.990        87
39.000        47
39.010        67
39.020        27
39.030        53
39.040        60
39.050        80
39.060        40
39.070        60
39.080        47
39.090        73
39.100        73
39.110        47
39.120        67
39.130        40
39.140        67
39.150        33
39.160        47
39.170        33
39.180        93
39.190        80
39.200        40
39.210        73
39.220        93
39.230        80
39.240        73
39.250        60
39.260        73
39.270        87
39.280        60
39.290        73
39.300        87
39.310        60
39.320        47
39.330        60
39.340        93
39.350        67
39.360        47
39.370        60
39.380        60
39.390        53
39.400        80
39.410        67
39.420        60
39.430        73
39.440        53
39.450        27
39.460        47
39.470        60
39.480        47
39.490        27
39.500        60
39.510        93
39.520        73
39.530        47
39.540        67
39.550        60
39.560        47
39.570        53
39.580        53
39.590        60
39.600        93
39.610        53
39.620        53
39.630        53
39.640        67
39.650        87
39.660        33
39.670        53
39.680        53
39.690        40
39.700        53
39.710        67
39.720        60
39.730        47
39.740        93
39.750        53
39.760        73
39.770        73
39.780        53
39.790        80
39.800        40
39.810        67
39.820        80
39.830        53
39.840        60
39.850        40
39.860        33
39.870        87
39.880        67
39.890        73
39.900        40
39.910        87
39.920        40
39.930        53
39.940        20
39.950        73
39.960        73
39.970        73
39.980        27
39.990        60
40.000        67
40.010        53
40.020        53
40.030        53
40.040        73
40.050        47
40.060        53
40.070        60
40.080        40
40.090        80
40.100        73
40.110        47
40.120        47
40.130        33
40.140        33
40.150        60
40.160        80
40.170        53
40.180        93
40.190        33
40.200        80
40.210        80
40.220        53
40.230        53
40.240        47
40.250        40
40.260        47
40.270        67
40.280        40
40.290        47
40.300        73
40.310        80
40.320        40
40.330        67
40.340        60
40.350        60
40.360        60
40.370        47
40.380        53
40.390        60
40.400        60
40.410        67
40.420        80
40.430        73
40.440        47
40.450        60
40.460       107
40.470        47
40.480        73
40.490        73
40.500        33
40.510        80
40.520        33
40.530        67
40.540        73
40.550        47
40.560        40
40.570        67
40.580        53
40.590        60
40.600        80
40.610        53
40.620        80
40.630        73
40.640        47
40.650        60
40.660        40
40.670        80
40.680        60
40.690        27
40.700        73
40.710        87
40.720        33
40.730        33
40.740        73
40.750        40
40.760        60
40.770        80
40.780       107
40.790        60
40.800        73
40.810        33
40.820        80
40.830        93
40.840        53
40.850        87
40.860        53
40.870        80
40.880        73
40.890        73
40.900        67
40.910        87
40.920        53
40.930       107
40.940        53
40.950        40
40.960        67
40.970        60
40.980        60
40.990        87
41.000        80
41.010        73
41.020        80
41.030        87
41.040        60
41.050        60
41.060        40
41.070        33
41.080        47
41.090        87
41.100       107
41.110        60
41.120        53
41.130       107
41.140        67
41.150       107
41.160        73
41.170        47
41.180        33
41.190        67
41.200        73
41.210        80
41.220       100
41.230        80
41.240        47
41.250        47
41.260        33
41.270        87
41.280        67
41.290        47
41.300        40
41.310        47
41.320        67
41.330        53
41.340        60
41.350        27
41.360        40
41.370        53
41.380        27
41.390        53
41.400        27
41.410        47
41.420        53
41.430        20
41.440        40
41.450        47
41.460        47
41.470        40
41.480        40
41.490       100
41.500        20
41.510        33
41.520        47
41.530        40
41.540        67
41.550        33
41.560        53
41.570        40
41.580        53
41.590        47
41.600        67
41.610        53
41.620        33
41.630        47
41.640        40
41.650        47
41.660        53
41.670        27
41.680        73
41.690        47
41.700        53
41.710        33
41.720        27
41.730        60
41.740        67
41.750        73
41.760        33
41.770        47
41.780        53
41.790        60
41.800        60
41.810        80
41.820        20
41.830        53
41.840        33
41.850        87
41.860        67
41.870        40
41.880        87
41.890        27
41.900        47
41.910        47
41.920       113
41.930        60
41.940        67
41.950        40
41.960        53
41.970        47
41.980        47
41.990        80
42.000        67
42.010        60
42.020        60
42.030        40
42.040        60
42.050        87
42.060        33
42.070        93
42.080        67
42.090        53
42.100        67
42.110        53
42.120        33
42.130        33
42.140        40
42.150        27
42.160        60
42.170        33
42.180        80
42.190        40
42.200        67
42.210        13
42.220        53
42.230        73
42.240        80
42.250        73
42.260        33
42.270        33
42.280        73
42.290         0
42.300        40
42.310        67
42.320        60
42.330        47
42.340        33
42.350        60
42.360        40
42.370        33
42.380        73
42.390        33
42.400        53
42.410        67
42.420        53
42.430        60
42.440        53
42.450        33
42.460        47
42.470        27
42.480        93
42.490        67
42.500        47
42.510        47
42.520        33
42.530        33
42.540        73
42.550        60
42.560        53
42.570        33
42.580        40
42.590        67
42.600        67
42.610        67
42.620        60
42.630        53
42.640        60
42.650        53
42.660        67
42.670        47
42.680        40
42.690        33
42.700        53
42.710        47
42.720        27
42.730        73
42.740        93
42.750        53
42.760        93
42.770       120
42.780        80
42.790        80
42.800        60
42.810       100
42.820        80
42.830        87
42.840        60
42.850        87
42.860        47
42.870        47
42.880        87
42.890        73
42.900       100
42.910        93
42.920       107
42.930        93
42.940        93
42.950        93
42.960       100
42.970       100
42.980       113
42.990        87
43.000       127
43.010       113
43.020        93
43.030       200
43.040       127
43.050       140
43.060       147
43.070       187
43.080       253
43.090       253
43.100       307
43.110       253
43.120       426
43.130       533
43.140       726
43.150       746
43.160       793
43.170       906
43.180       846
43.190       693
43.200       660
43.210       526
43.220       420
43.230       280
43.240       260
43.250       200
43.260       207
43.270       173
43.280       167
43.290       127
43.300       120
43.310       100
43.320        87
43.330       113
43.340       100
43.350        53
43.360        67
43.370        73
43.380        73
43.390        93
43.400       113
43.410        67
43.420        87
43.430       100
43.440        87
43.450        67
43.460        73
43.470        80
43.480        80
43.490        73
43.500        47
43.510        47
43.520        87
43.530       113
43.540        53
43.550        93
43.560        40
43.570        73
43.580        40
43.590        47
43.600        67
43.610        93
43.620        93
43.630        53
43.640        80
43.650        80
43.660        73
43.670        73
43.680        73
43.690        73
43.700        87
43.710        73
43.720        60
43.730        40
43.740        60
43.750        60
43.760        47
43.770        53
43.780        53
43.790        73
43.800        53
43.810        67
43.820        80
43.830        67
43.840       107
43.850        73
43.860        40
43.870        80
43.880        67
43.890        67
43.900        20
43.910        73
43.920       120
43.930        53
43.940        60
43.950       127
43.960        47
43.970        73
43.980        73
43.990        47
44.000        67
44.010       100
44.020        53
44.030        80
44.040        27
44.050        47
44.060        67
44.070        80
44.080        73
44.090        67
44.100       113
44.110        73
44.120       107
44.130        80
44.140        67
44.150        73
44.160        40
44.170       113
44.180        60
44.190        73
44.200        60
44.210        87
44.220       107
44.230       113
44.240       107
44.250        73
44.260        87
44.270        93
44.280        87
44.290       127
44.300        80
44.310       133
44.320        93
44.330        80
44.340        87
44.350        80
44.360       100
44.370        60
44.380       133
44.390       167
44.400        87
44.410        67
44.420        73
44.430        40
44.440        93
44.450       120
44.460        87
44.470       120
44.480        93
44.490       147
44.500        87
44.510        87
44.520       113
44.530        80
44.540        67
44.550       107
44.560        53
44.570       107
44.580       127
44.590       107
44.600        87
44.610        87
44.620       107
44.630       120
44.640       140
44.650       100
44.660        80
44.670        60
44.680       113
44.690       160
44.700       113
44.710        87
44.720       127
44.730        80
44.740       107
44.750       173
44.760       113
44.770       107
44.780       180
44.790       147
44.800       193
44.810       173
44.820       160
44.830       187
44.840       160
44.850       193
44.860       153
44.870       180
44.880       200
44.890       153
44.900       227
44.910       240
44.920       247
44.930       173
44.940       180
44.950       247
44.960       220
44.970       220
44.980       300
44.990       153
45.000       400
45.010       287
45.020       293
45.030       273
45.040       347
45.050       400
45.060       367
45.070       360
45.080       453
45.090       373
45.100       426
45.110       413
45.120       506
45.130       440
45.140       640
45.150       626
45.160       820
45.170       746
45.180       733
45.190       760
45.200       933
45.210      1126
45.220      1053
45.230      1100
45.240      1293
45.250      1439
45.260      1439
45.270      1493
45.280      1739
45.290      1893
45.300      1933
45.310      2379
45.320      2006
45.330      2139
45.340      2626
45.350      2566
45.360      2752
45.370      2579
45.380      2639
45.390      2766
45.400      2985
45.410      2999
45.420      3159
45.430      3059
45.440      3172
45.450      3212
45.460      1539
45.470      3412
45.480      3365
45.490      3245
45.500      3299
45.510      3499
45.520      3299
45.530      3465
45.540      3319
45.550      3139
45.560      3452
45.570      3352
45.580      3219
45.590      3345
45.600      3199
45.610      3105
45.620      3239
45.630      3032
45.640      3192
45.650      2886
45.660      3059
45.670      3199
45.680      3219
45.690      3145
45.700      3252
45.710      3045
45.720      2965
45.730      2979
45.740      3245
45.750      3032
45.760      2792
45.770      3005
45.780      2832
45.790      3012
45.800      2959
45.810      2706
45.820      3045
45.830      2852
45.840      2719
45.850      2466
45.860      2346
45.870      2372
45.880      2286
45.890      2352
45.900      2179
45.910      2232
45.920      2192
45.930      1859
45.940      1646
45.950      1639
45.960      1486
45.970      1399
45.980      1233
45.990      1266
46.000      1326
46.010       926
46.020      1093
46.030      1073
46.040       926
46.050       726
46.060       740
46.070       786
46.080       740
46.090       640
46.100       700
46.110       540
46.120       586
46.130       486
46.140       433
46.150       373
46.160       473
46.170       327
46.180       373
46.190       367
46.200       333
46.210       300
46.220       207
46.230       313
46.240       340
46.250       300
46.260       313
46.270       213
46.280       333
46.290       253
46.300       227
46.310       333
46.320       313
46.330       307
46.340       393
46.350       280
46.360       353
46.370       307
46.380       380
46.390       340
46.400       387
46.410       407
46.420       333
46.430       347
46.440       393
46.450       313
46.460       440
46.470       347
46.480       380
46.490       380
46.500       373
46.510       260
46.520       287
46.530       267
46.540       347
46.550       280
46.560       367
46.570       340
46.580       320
46.590       413
46.600       213
46.610       287
46.620       273
46.630       267
46.640       340
46.650       313
46.660       233
46.670       313
46.680       260
46.690       307
46.700       380
46.710       280
46.720       213
46.730       313
46.740       260
46.750       247
46.760       407
46.770       240
46.780       293
46.790       253
46.800       267
46.810       227
46.820       293
46.830       253
46.840       267
46.850       293
46.860       327
46.870       320
46.880       227
46.890       267
46.900       267
46.910       200
46.920       320
46.930       253
46.940       340
46.950       333
46.960       253
46.970       293
46.980       273
46.990       213
47.000       293
47.010       207
47.020       300
47.030       227
47.040       267
47.050       260
47.060       260
47.070       207
47.080       260
47.090       227
47.100       260
47.110       340
47.120       327
47.130       287
47.140       293
47.150       253
47.160       227
47.170       293
47.180       387
47.190       267
47.200       293
47.210       227
47.220       267
47.230       273
47.240       313
47.250       300
47.260       287
47.270       227
47.280       267
47.290       300
47.300       260
47.310       393
47.320       320
47.330       247
47.340       273
47.350       267
47.360       313
47.370       167
47.380       327
47.390       280
47.400       327
47.410       327
47.420       420
47.430       347
47.440       327
47.450       380
47.460       227
47.470       307
47.480       353
47.490       307
47.500       307
47.510       287
47.520       340
47.530       433
47.540       380
47.550       473
47.560       387
47.570       486
47.580       353
47.590       380
47.600       473
47.610       486
47.620       466
47.630       486
47.640       546
47.650       540
47.660       453
47.670       546
47.680       506
47.690       546
47.700       680
47.710       720
47.720       660
47.730       946
47.740      1060
47.750       960
47.760      1206
47.770      1226
47.780      1379
47.790      1733
47.800      1826
47.810      1986
47.820      2179
47.830      2292
47.840      2519
47.850      2886
47.860      3145
47.870      3112
47.880      3439
47.890      4165
47.900      4418
47.910      5045
47.920      6211
47.930      7290
47.940      9703
47.950     11982
47.960     15920
47.970     20572
47.980     26963
47.990     36212
48.000     46661
48.010     58743
48.020     68533
48.030     73637
48.040     75583
48.050     73317
48.060     66913
48.070     59390
48.080     50040
48.090     40411
48.100     35026
48.110     32447
48.120     33127
48.130     36265
48.140     39458
48.150     43016
48.160     43569
48.170     43649
48.180     39951
48.190     37172
48.200     30514
48.210     25137
48.220     19605
48.230     14494
48.240     11635
48.250      8790
48.260      7011
48.270      6231
48.280      5318
48.290      4645
48.300      3745
48.310      3605
48.320      2859
48.330      2452
48.340      2272
48.350      1813
48.360      1546
48.370      1499
48.380      1080
48.390      1086
48.400       940
48.410       800
48.420       846
48.430       786
48.440       653
48.450       766
48.460       566
48.470       560
48.480       506
48.490       533
48.500       560
48.510       546
48.520       433
48.530       380
48.540       466
48.550       446
48.560       426
48.570       420
48.580       347
48.590       340
48.600       446
48.610       400
48.620       353
48.630       333
48.640       367
48.650       373
48.660       287
48.670       400
48.680       333
48.690       313
48.700       353
48.710       307
48.720       267
48.730       353
48.740       260
48.750       327
48.760       293
48.770       353
48.780       313
48.790       293
48.800       340
48.810       287
48.820       273
48.830       327
48.840       293
48.850       253
48.860       240
48.870       233
48.880       280
48.890       280
48.900       220
48.910       240
48.920       320
48.930       253
48.940       240
48.950       300
48.960       247
48.970       247
48.980       280
48.990       233
49.000       260
49.010       193
49.020       160
49.030       160
49.040       207
49.050       213
49.060       180
49.070       247
49.080       273
49.090       160
49.100       273
49.110       273
49.120       167
49.130       180
49.140       260
49.150       207
49.160       240
49.170       167
49.180       253
49.190       253
49.200       227
49.210       160
49.220       193
49.230       200
49.240       260
49.250       220
49.260       213
49.270       200
49.280       113
49.290       127
49.300       260
49.310       200
49.320       213
49.330       173
49.340       167
49.350       207
49.360       273
49.370       180
49.380       233
49.390       173
49.400       180
49.410       187
49.420       193
49.430       213
49.440       207
49.450       173
49.460       160
49.470       220
49.480       200
49.490       173
49.500       213
49.510       133
49.520       207
49.530       173
49.540       193
49.550       187
49.560       233
49.570       193
49.580       187
49.590       133
49.600       187
49.610       167
49.620       220
49.630       167
49.640       220
49.650       173
49.660       200
49.670       167
49.680       240
49.690       140
49.700       160
49.710       133
49.720       153
49.730       180
49.740       140
49.750       153
49.760       200
49.770       173
49.780       200
49.790       207
49.800       160
49.810       213
49.820       187
49.830       153
49.840       180
49.850       167
49.860       173
49.870       167
49.880       180
49.890       113
49.900       133
49.910       133
49.920       180
49.930       153
49.940       160
49.950       107
49.960       167
49.970       147
49.980       200
49.990       160
50.000       227
50.010       187
50.020       153
50.030       160
50.040       167
50.050       193
50.060       133
50.070       147
50.080       140
50.090       120
50.100       193
50.110       240
50.120       153
50.130       140
50.140       167
50.150       127
50.160       127
50.170       140
50.180       160
50.190       153
50.200       167
50.210       187
50.220       180
50.230       133
50.240       227
50.250       153
50.260       107
50.270       127
50.280       153
50.290       220
50.300       180
50.310       127
50.320       100
50.330       160
50.340       113
50.350       153
50.360       173
50.370       120
50.380       127
50.390       173
50.400       153
50.410       187
50.420       153
50.430       140
50.440       167
50.450       173
50.460        87
50.470       147
50.480       220
50.490       187
50.500       140
50.510       120
50.520        93
50.530       187
50.540       140
50.550       133
50.560       127
50.570       133
50.580       160
50.590       127
50.600       107
50.610        80
50.620       100
50.630       133
50.640       200
50.650        87
50.660       100
50.670       147
50.680       153
50.690       120
50.700       120
50.710       160
50.720       153
50.730       120
50.740       120
50.750       153
50.760       113
50.770       120
50.780       120
50.790       127
50.800       100
50.810       107
50.820       153
50.830       167
50.840       147
50.850       140
50.860       167
50.870       113
50.880       120
50.890       120
50.900       100
50.910       120
50.920       133
50.930       120
50.940       220
50.950       107
50.960       127
50.970       120
50.980       140
50.990       113
51.000       147
51.010        80
51.020       147
51.030        93
51.040        73
51.050       113
51.060       127
51.070       140
51.080       107
51.090       160
51.100       107
51.110       153
51.120       100
51.130       107
51.140       140
51.150       153
51.160       120
51.170       107
51.180       187
51.190       140
51.200       147
51.210       120
51.220        93
51.230       140
51.240        87
51.250       107
51.260       160
51.270       100
51.280        80
51.290       120
51.300       140
51.310        80
51.320        53
51.330       153
51.340       113
51.350       153
51.360        87
51.370        93
51.380       133
51.390        93
51.400       120
51.410       120
51.420       107
51.430       147
51.440       140
51.450        80
51.460       127
51.470       113
51.480       113
51.490       133
51.500       153
51.510       133
51.520       133
51.530       160
51.540       113
51.550       107
51.560       133
51.570        80
51.580       127
51.590       127
51.600       100
51.610       107
51.620       120
51.630       120
51.640       127
51.650       113
51.660       133
51.670        93
51.680        87
51.690       133
51.700       100
51.710       140
51.720       107
51.730        87
51.740       153
51.750       100
51.760       120
51.770       107
51.780       127
51.790        80
51.800       127
51.810        87
51.820        80
51.830       160
51.840       173
51.850       153
51.860       107
51.870        80
51.880        73
51.890       127
51.900       133
51.910        80
51.920       100
51.930       133
51.940       140
51.950       107
51.960       140
51.970       133
51.980        87
51.990       133
52.000       140
52.010       113
52.020        67
52.030       100
52.040        80
52.050        80
52.060        87
52.070       107
52.080        87
52.090       133
52.100       107
52.110       120
52.120       147
52.130       133
52.140       107
52.150       107
52.160        60
52.170       120
52.180        80
52.190       113
52.200       113
52.210       160
52.220       120
52.230       120
52.240        87
52.250       133
52.260       147
52.270       100
52.280       120
52.290       107
52.300        67
52.310       127
52.320        93
52.330        93
52.340       100
52.350       107
52.360        93
52.370        67
52.380       127
52.390        87
52.400       127
52.410       160
52.420       100
52.430       140
52.440        93
52.450       120
52.460       153
52.470       100
52.480        80
52.490        87
52.500        60
52.510       127
52.520        93
52.530       120
52.540        93
52.550        87
52.560       127
52.570        93
52.580       133
52.590       113
52.600       127
52.610       113
52.620       100
52.630       107
52.640       107
52.650        60
52.660        80
52.670       113
52.680       120
52.690        73
52.700       113
52.710        87
52.720       120
52.730        67
52.740        93
52.750        87
52.760       113
52.770        80
52.780        93
52.790       153
52.800       100
52.810        67
52.820       127
52.830        27
52.840       113
52.850        67
52.860       127
52.870        73
52.880       127
52.890       133
52.900        87
52.910       127
52.920       133
52.930       147
52.940       113
52.950       127
52.960        80
52.970       127
52.980        80
52.990        73
53.000       100
53.010       127
53.020        53
53.030        67
53.040       160
53.050        87
53.060        93
53.070       120
53.080       107
53.090        93
53.100        93
53.110       100
53.120       113
53.130        80
53.140       113
53.150        87
53.160        93
53.170       127
53.180        87
53.190       133
53.200        80
53.210       127
53.220        40
53.230       113
53.240       167
53.250        87
53.260        67
53.270        73
53.280       153
53.290       113
53.300       113
53.310       107
53.320        87
53.330        67
53.340       127
53.350        73
53.360        53
53.370        80
53.380        87
53.390       153
53.400        73
53.410        80
53.420       127
53.430       100
53.440        67
53.450        67
53.460       160
53.470       120
53.480       120
53.490       120
53.500       100
53.510        67
53.520       100
53.530        53
53.540        80
53.550       113
53.560        93
53.570        87
53.580        93
53.590       107
53.600        87
53.610       147
53.620        40
53.630        47
53.640        93
53.650       140
53.660        87
53.670        67
53.680        93
53.690        87
53.700       127
53.710        87
53.720        60
53.730        87
53.740        73
53.750        80
53.760       133
53.770        87
53.780       100
53.790        93
53.800        93
53.810       100
53.820        93
53.830       100
53.840        53
53.850        73
53.860        33
53.870        93
53.880        67
53.890        47
53.900        60
53.910        80
53.920        53
53.930        87
53.940        47
53.950        53
53.960        67
53.970        73
53.980        80
53.990        60
54.000       160
54.010        93
54.020        87
54.030       120
54.040        93
54.050       100
54.060        93
54.070        80
54.080       107
54.090       133
54.100        80
54.110        93
54.120        73
54.130        80
54.140       100
54.150        87
54.160        73
54.170        60
54.180        67
54.190        60
54.200        87
54.210        33
54.220        80
54.230        73
54.240        67
54.250        60
54.260       100
54.270        60
54.280       147
54.290        60
54.300        47
54.310       100
54.320        87
54.330        53
54.340        87
54.350        67
54.360        80
54.370        67
54.380        67
54.390        53
54.400        67
54.410       107
54.420        67
54.430       140
54.440        93
54.450        47
54.460        60
54.470        67
54.480        87
54.490       107
54.500        73
54.510        80
54.520        87
54.530        67
54.540        73
54.550        93
54.560        47
54.570       120
54.580        53
54.590        87
54.600        60
54.610        60
54.620        80
54.630        67
54.640        80
54.650        53
54.660        60
54.670        73
54.680        87
54.690        87
54.700        73
54.710        73
54.720        73
54.730       100
54.740       107
54.750        47
54.760        93
54.770        53
54.780        73
54.790        73
54.800       100
54.810        87
54.820       100
54.830        93
54.840        87
54.850        40
54.860        53
54.870        73
54.880        67
54.890        60
54.900        53
54.910        47
54.920       100
54.930        73
54.940        73
54.950        87
54.960        87
54.970        87
54.980       107
54.990        80
55.000        67
55.010        33
55.020        47
55.030        47
55.040        60
55.050        53
55.060        67
55.070        87
55.080        80
55.090        87
55.100        87
55.110        67
55.120       113
55.130        67
55.140        53
55.150       127
55.160        53
55.170        80
55.180        80
55.190       100
55.200        87
55.210        40
55.220       107
55.230        87
55.240        73
55.250        67
55.260        40
55.270       120
55.280        47
55.290        40
55.300        73
55.310        67
55.320        47
55.330        87
55.340        67
55.350        27
55.360        20
55.370        53
55.380        80
55.390        53
55.400        53
55.410        73
55.420        40
55.430        53
55.440        87
55.450        67
55.460        80
55.470        73
55.480        73
55.490        60
55.500        73
55.510        53
55.520        87
55.530        40
55.540        67
55.550        53
55.560        93
55.570        27
55.580        73
55.590        80
55.600       107
55.610        40
55.620        87
55.630        60
55.640       153
55.650        40
55.660        33
55.670        60
55.680        27
55.690        73
55.700        93
55.710        53
55.720        80
55.730        93
55.740        60
55.750        47
55.760        40
55.770        60
55.780        47
55.790        53
55.800       107
55.810        67
55.820       107
55.830       120
55.840        40
55.850        80
55.860       107
55.870        87
55.880        47
55.890        47
55.900        67
55.910        67
55.920        73
55.930        73
55.940       100
55.950       120
55.960        80
55.970        93
55.980        67
55.990        53
56.000        60
56.010        93
56.020        67
56.030        60
56.040        73
56.050       107
56.060        27
56.070        53
56.080        73
56.090        60
56.100        33
56.110        87
56.120        53
56.130        33
56.140        27
56.150        33
56.160        87
56.170       100
56.180        93
56.190        67
56.200        93
56.210        60
56.220        47
56.230        47
56.240        60
56.250        67
56.260        93
56.270        47
56.280        53
56.290        67
56.300        73
56.310        60
56.320        27
56.330        67
56.340        40
56.350        67
56.360        60
56.370        33
56.380        67
56.390        60
56.400        60
56.410        40
56.420        73
56.430        33
56.440        27
56.450        93
56.460        60
56.470        33
56.480        73
56.490        20
56.500        53
56.510        33
56.520        33
56.530       107
56.540        40
56.550        47
56.560        60
56.570        53
56.580        93
56.590        40
56.600        60
56.610        87
56.620        47
56.630        80
56.640        47
56.650        53
56.660        60
56.670        53
56.680       113
56.690        93
56.700        47
56.710        67
56.720        73
56.730        53
56.740        73
56.750        73
56.760        87
56.770        47
56.780        67
56.790        53
56.800        80
56.810        60
56.820        67
56.830        60
56.840       107
56.850        80
56.860        60
56.870        93
56.880        40
56.890        53
56.900        47
56.910       113
56.920       127
56.930       100
56.940        60
56.950        47
56.960        60
56.970        67
56.980        67
56.990        47
57.000        40
57.010        47
57.020        80
57.030        80
57.040       120
57.050        60
57.060        87
57.070        73
57.080        40
57.090        73
57.100        40
57.110        53
57.120        67
57.130        80
57.140        40
57.150        33
57.160        40
57.170        47
57.180        13
57.190        40
57.200        53
57.210        33
57.220        40
57.230        80
57.240        73
57.250        73
57.260        53
57.270       120
57.280        87
57.290        47
57.300        47
57.310        40
57.320        47
57.330        33
57.340       100
57.350        80
57.360        80
57.370        40
57.380        27
57.390        53
57.400        73
57.410        60
57.420        40
57.430        73
57.440        47
57.450        40
57.460        73
57.470        73
57.480        80
57.490        20
57.500        40
57.510        40
57.520        73
57.530        73
57.540        93
57.550        73
57.560        60
57.570        47
57.580        80
57.590        47
57.600        33
57.610        40
57.620        73
57.630        40
57.640        80
57.650       113
57.660        33
57.670        53
57.680        40
57.690       120
57.700        73
57.710        93
57.720        73
57.730        87
57.740        73
57.750       107
57.760        60
57.770        80
57.780        80
57.790        40
57.800        53
57.810        33
57.820        33
57.830        33
57.840        40
57.850        80
57.860        33
57.870        27
57.880        40
57.890        53
57.900        47
57.910        33
57.920       113
57.930        40
57.940        40
57.950       100
57.960        80
57.970        40
57.980        80
57.990        20
58.000        53
58.010        53
58.020        60
58.030        60
58.040        33
58.050        33
58.060        47
58.070        47
58.080        80
58.090        60
58.100        47
58.110        73
58.120        60
58.130        53
58.140        73
58.150        53
58.160        47
58.170        47
58.180        53
58.190        27
58.200        33
58.210        33
58.220        27
58.230        47
58.240        40
58.250        60
58.260        27
58.270        20
58.280        47
58.290        40
58.300        47
58.310        40
58.320        33
58.330        27
58.340        60
58.350        20
58.360        13
58.370        87
58.380        73
58.390        47
58.400        40
58.410        53
58.420        20
58.430        33
58.440        53
58.450        53
58.460        67
58.470        47
58.480        47
58.490        20
58.500        13
58.510        67
58.520        33
58.530        20
58.540        40
58.550        27
58.560        67
58.570        33
58.580        13
58.590        47
58.600        87
58.610        60
58.620        47
58.630        33
58.640        20
58.650        33
58.660        13
58.670        47
58.680        40
58.690        60
58.700        53
58.710        60
58.720        73
58.730        20
58.740        47
58.750        47
58.760        73
58.770        60
58.780        60
58.790        53
58.800        27
58.810        60
58.820        20
58.830        40
58.840        20
58.850        33
58.860        80
58.870        33
58.880        67
58.890        40
58.900        47
58.910        73
58.920        47
58.930        93
58.940        47
58.950        53
58.960        13
58.970        60
58.980        33
58.990        60
59.000        40
59.010        80
59.020        67
59.030        47
59.040        40
59.050        33
59.060        27
59.070        27
59.080        27
59.090        67
59.100        40
59.110        60
59.120        93
59.130        80
59.140        53
59.150        80
59.160        53
59.170        47
59.180        27
59.190        33
59.200        87
59.210        27
59.220        67
59.230        53
59.240        80
59.250        40
59.260        60
59.270        40
59.280        73
59.290        80
59.300        47
59.310        13
59.320        67
59.330        40
59.340        73
59.350        60
59.360        33
59.370        67
59.380        40
59.390        40
59.400        27
59.410        47
59.420        33
59.430        33
59.440        53
59.450        27
59.460        67
59.470        20
59.480        40
59.490        47
59.500        67
59.510        20
59.520        67
59.530        20
59.540        40
59.550        40
59.560        27
59.570        53
59.580        40
59.590        33
59.600        20
59.610         7
59.620        80
59.630        53
59.640        33
59.650        40
59.660        53
59.670        80
59.680        47
59.690        80
59.700        27
59.710        47
59.720        40
59.730        40
59.740        20
59.750        33
59.760         7
59.770        40
59.780        60
59.790        33
59.800       100
59.810        67
59.820        40
59.830        53
59.840        47
59.850        87
59.860        60
59.870        27
59.880        53
59.890        33
59.900        60
59.910        60
59.920        40
59.930        53
59.940        67
59.950        47
59.960        67
59.970        27
59.980        40
59.990        87
60.000        73
