20.000         0
20.010         0
20.020        27
20.030        80
20.040        13
20.050        20
20.060        20
20.070        13
20.080        80
20.090        40
20.100        40
20.110        40
20.120        47
20.130        47
20.140        33
20.150        33
20.160        40
20.170        47
20.180        13
20.190        67
20.200        27
20.210        53
20.220        53
20.230        67
20.240        33
20.250        53
20.260        20
20.270        47
20.280        80
20.290        40
20.300        13
20.310        20
20.320        47
20.330        40
20.340        47
20.350        27
20.360        40
20.370        40
20.380        33
20.390        53
20.400        13
20.410        40
20.420        53
20.430        40
20.440        13
20.450        20
20.460        40
20.470        40
20.480        67
20.490        47
20.500        20
20.510        53
20.520        40
20.530        80
20.540        47
20.550        33
20.560        33
20.570        27
20.580        27
20.590        40
20.600        67
20.610        27
20.620        53
20.630        20
20.640        20
20.650        67
20.660        40
20.670        33
20.680        60
20.690        47
20.700        73
20.710        33
20.720        60
20.730        60
20.740        33
20.750        13
20.760        60
20.770        40
20.780        33
20.790        20
20.800        67
20.810        60
20.820        20
20.830        60
20.840        47
20.850        53
20.860        33
20.870        27
20.880        53
20.890        33
20.900        53
20.910        33
20.920        27
20.930        27
20.940        80
20.950        33
20.960        47
20.970        60
20.980        33
20.990        40
21.000        67
21.010        13
21.020        40
21.030        20
21.040        33
21.050        47
21.060        13
21.070         7
21.080        40
21.090        20
21.100       100
21.110        47
21.120        20
21.130        53
21.140        53
21.150        80
21.160        47
21.170        47
21.180        67
21.190        33
21.200        47
21.210        60
21.220        53
21.230        20
21.240        27
21.250        53
21.260        73
21.270        60
21.280        33
21.290        27
21.300        13
21.310        13
21.320        40
21.330        40
21.340        40
21.350        33
21.360        53
21.370        60
21.380        33
21.390        40
21.400        53
21.410        20
21.420        27
21.430        53
21.440        47
21.450        60
21.460        47
21.470        40
21.480        33
21.490        47
21.500        13
21.510        33
21.520        73
21.530         7
21.540        20
21.550        27
21.560         0
21.570        40
21.580        47
21.590        33
21.600        80
21.610        40
21.620        53
21.630        13
21.640        67
21.650        40
21.660        33
21.670        20
21.680        53
21.690        60
21.700        27
21.710        27
21.720        60
21.730        40
21.740        33
21.750        60
21.760        47
21.770        40
21.780        27
21.790        33
21.800        33
21.810        27
21.820        53
21.830        27
21.840        20
21.850        33
21.860        20
21.870        13
21.880        40
21.890        33
21.900        40
21.910        40
21.920        67
21.930        33
21.940        47
21.950        20
21.960        27
21.970        60
21.980        60
21.990        33
22.000        20
22.010        67
22.020        60
22.030        40
22.040        60
22.050        40
22.060        53
22.070        27
22.080        60
22.090        20
22.100        60
22.110        73
22.120        60
22.130        27
22.140        27
22.150        73
22.160        27
22.170        40
22.180        47
22.190        73
22.200        40
22.210        40
22.220        53
22.230        20
22.240        40
22.250        40
22.260        20
22.270        53
22.280        73
22.290        27
22.300        80
22.310        33
22.320        27
22.330        60
22.340        53
22.350        80
22.360        27
22.370        67
22.380        53
22.390        47
22.400        67
22.410        73
22.420        73
22.430        73
22.440        87
22.450       133
22.460       100
22.470        80
22.480        67
22.490        60
22.500        87
22.510       100
22.520        93
22.530        73
22.540        47
22.550        73
22.560       107
22.570        73
22.580        60
22.590       107
22.600        53
22.610        67
22.620        67
22.630        53
22.640        60
22.650        47
22.660        20
22.670        27
22.680        33
22.690        33
22.700        47
22.710        67
22.720        53
22.730        53
22.740        27
22.750        33
22.760        33
22.770        67
22.780        73
22.790        67
22.800        47
22.810        20
22.820        13
22.830        33
22.840        20
22.850        33
22.860        60
22.870        60
22.880        60
22.890        53
22.900        53
22.910        40
22.920        27
22.930        33
22.940        33
22.950        53
22.960        53
22.970        20
22.980        20
22.990        60
23.000        33
23.010         7
23.020        47
23.030        13
23.040        20
23.050        27
23.060        27
23.070        53
23.080        33
23.090        47
23.100        53
23.110        53
23.120        40
23.130        53
23.140        33
23.150        33
23.160        40
23.170        53
23.180        47
23.190        60
23.200        47
23.210        47
23.220        40
23.230        40
23.240        33
23.250        73
23.260        33
23.270        53
23.280        47
23.290        20
23.300        33
23.310        60
23.320        53
23.330        60
23.340        27
23.350        40
23.360        40
23.370        60
23.380        27
23.390        40
23.400        40
23.410        27
23.420        40
23.430        27
23.440        27
23.450        60
23.460        20
23.470        40
23.480        13
23.490        47
23.500        67
23.510        33
23.520        47
23.530         7
23.540        33
23.550        67
23.560        27
23.570        60
23.580        47
23.590        27
23.600        40
23.610        13
23.620        53
23.630        40
23.640        40
23.650        27
23.660        53
23.670        40
23.680        20
23.690        47
23.700        27
23.710        60
23.720        60
23.730        27
23.740        60
23.750        40
23.760         7
23.770        47
23.780        67
23.790        20
23.800        40
23.810        33
23.820        20
23.830        73
23.840         7
23.850        40
23.860        27
23.870        20
23.880        47
23.890        53
23.900        27
23.910        40
23.920        33
23.930        67
23.940        40
23.950        33
23.960        33
23.970        13
23.980        33
23.990        33
24.000        33
24.010        33
24.020        53
24.030        33
24.040        33
24.050        40
24.060        13
24.070        40
24.080        13
24.090        20
24.100        53
24.110        60
24.120       113
24.130        33
24.140        27
24.150        60
24.160        20
24.170        33
24.180        33
24.190        27
24.200        27
24.210        53
24.220        47
24.230        33
24.240        53
24.250        40
24.260        47
24.270        33
24.280        47
24.290        33
24.300        40
24.310        40
24.320        47
24.330        53
24.340        20
24.350        33
24.360        27
24.370        20
24.380        60
24.390        47
24.400        40
24.410        27
24.420        33
24.430        60
24.440        53
24.450        60
24.460        27
24.470        27
24.480        73
24.490        13
24.500        40
24.510        27
24.520        33
24.530        27
24.540        33
24.550        73
24.560        33
24.570        33
24.580        47
24.590        33
24.600        27
24.610        40
24.620        20
24.630        40
24.640        47
24.650        13
24.660        27
24.670        27
24.680        33
24.690         7
24.700        47
24.710        40
24.720        13
24.730        53
24.740        40
24.750         0
24.760        33
24.770        33
24.780        13
24.790        40
24.800        40
24.810        53
24.820        53
24.830        47
24.840        13
24.850        53
24.860        40
24.870        20
24.880        13
24.890        27
24.900        40
24.910        33
24.920        40
24.930        53
24.940        47
24.950        60
24.960        27
24.970        27
24.980        53
24.990        27
25.000        20
25.010        53
25.020        33
25.030        40
25.040        33
25.050         7
25.060        47
25.070        27
25.080        53
25.090        13
25.100        40
25.110        13
25.120        20
25.130        33
25.140        33
25.150        33
25.160        47
25.170        13
25.180        80
25.190        33
25.200        33
25.210        27
25.220        27
25.230        47
25.240        47
25.250        27
25.260        40
25.270        33
25.280        33
25.290        27
25.300        40
25.310        33
25.320        33
25.330        27
25.340        47
25.350        20
25.360        40
25.370        53
25.380        27
25.390        33
25.400        33
25.410        53
25.420        27
25.430        13
25.440        53
25.450        33
25.460        33
25.470        53
25.480        53
25.490        93
25.500        60
25.510        67
25.520        27
25.530        73
25.540        40
25.550        47
25.560        60
25.570       100
25.580        27
25.590        53
25.600        60
25.610        73
25.620        73
25.630       120
25.640        93
25.650       107
25.660       107
25.670        80
25.680        80
25.690        93
25.700        33
25.710        67
25.720        47
25.730        67
25.740        47
25.750        33
25.760        20
25.770        27
25.780        27
25.790        47
25.800        20
25.810        60
25.820        53
25.830        27
25.840        87
25.850        33
25.860        13
25.870        53
25.880        40
25.890        73
25.900        73
25.910        53
25.920        27
25.930        13
25.940        40
25.950        13
25.960        33
25.970        33
25.980        40
25.990        27
26.000        20
26.010        33
26.020        27
26.030        40
26.040        27
26.050        53
26.060        20
26.070        40
26.080        60
26.090        47
26.100        40
26.110        20
26.120        27
26.130        40
26.140        33
26.150        33
26.160        40
26.170        20
26.180        27
26.190        20
26.200        40
26.210        40
26.220        60
26.230        13
26.240        27
26.250        27
26.260        13
26.270        20
26.280        13
26.290        27
26.300        40
26.310        20
26.320        40
26.330        20
26.340        60
26.350        40
26.360        33
26.370        33
26.380        27
26.390        20
26.400        40
26.410         7
26.420        40
26.430        27
26.440        40
26.450        20
26.460        47
26.470        47
26.480        60
26.490        13
26.500        53
26.510        33
26.520        33
26.530         7
26.540        27
26.550        33
26.560        20
26.570        20
26.580        20
26.590        27
26.600        33
26.610        13
26.620        47
26.630        13
26.640        40
26.650        40
26.660        33
26.670        27
26.680        33
26.690        27
26.700        13
26.710        27
26.720        27
26.730        20
26.740        27
26.750        40
26.760        40
26.770        20
26.780        27
26.790        20
26.800        33
26.810        40
26.820        27
26.830        27
26.840        40
26.850         0
26.860        20
26.870        40
26.880        47
26.890        27
26.900        13
26.910        47
26.920        20
26.930        40
26.940        13
26.950        33
26.960        47
26.970        33
26.980        40
26.990        20
27.000        33
27.010        33
27.020        33
27.030        27
27.040        13
27.050        33
27.060        33
27.070        33
27.080        20
27.090        33
27.100        33
27.110        27
27.120        47
27.130        53
27.140        20
27.150        27
27.160        20
27.170        20
27.180        53
27.190         7
27.200        27
27.210        33
27.220        33
27.230        27
27.240        33
27.250        27
27.260         0
27.270        27
27.280        13
27.290        40
27.300        20
27.310        27
27.320        40
27.330        47
27.340        40
27.350        33
27.360        40
27.370        13
27.380        33
27.390         7
27.400        27
27.410        20
27.420         0
27.430        27
27.440        20
27.450         0
27.460        20
27.470        33
27.480        33
27.490        47
27.500        33
27.510        33
27.520        33
27.530        20
27.540        27
27.550        60
27.560        20
27.570        60
27.580        33
27.590        27
27.600        47
27.610        47
27.620        33
27.630        33
27.640        27
27.650        20
27.660        27
27.670        47
27.680        47
27.690        67
27.700        20
27.710        20
27.720        27
27.730        27
27.740        13
27.750        33
27.760        20
27.770        33
27.780        47
27.790        47
27.800        27
27.810        13
27.820        40
27.830        47
27.840        27
27.850        47
27.860        20
27.870        13
27.880        20
27.890        20
27.900        33
27.910        27
27.920        27
27.930        20
27.940         7
27.950        67
27.960        27
27.970         7
27.980        40
27.990        13
28.000        67
28.010        27
28.020        27
28.030        27
28.040        20
28.050        40
28.060        20
28.070        33
28.080        13
28.090        33
28.100        53
28.110        13
28.120        27
28.130        27
28.140        60
28.150        40
28.160        40
28.170        33
28.180        33
28.190        27
28.200        20
28.210        27
28.220        40
28.230        27
28.240        40
28.250        40
28.260        40
28.270        27
28.280        27
28.290        20
28.300        47
28.310        40
28.320         7
28.330        27
28.340        27
28.350        13
28.360        33
28.370        33
28.380         0
28.390         7
28.400        27
28.410        27
28.420        13
28.430        40
28.440         7
28.450        13
28.460        20
28.470        80
28.480        40
28.490        40
28.500        33
28.510         7
28.520        47
28.530        27
28.540        13
28.550        40
28.560        13
28.570        20
28.580        33
28.590        40
28.600        47
28.610        13
28.620        47
28.630        20
28.640        40
28.650        40
28.660        33
28.670        27
28.680        13
28.690        27
28.700        33
28.710        40
28.720        40
28.730        20
28.740        20
28.750        33
28.760        33
28.770        67
28.780        27
28.790        67
28.800        20
28.810        33
28.820        20
28.830        33
28.840        40
28.850        33
28.860        67
28.870        33
28.880        33
28.890        40
28.900        13
28.910         7
28.920        53
28.930         7
28.940        40
28.950        13
28.960        27
28.970        33
28.980        20
28.990        47
29.000        20
29.010        47
29.020        27
29.030        27
29.040        40
29.050        33
29.060        27
29.070        33
29.080        20
29.090        47
29.100        40
29.110        33
29.120        20
29.130        40
29.140        20
29.150        47
29.160        27
29.170        40
29.180        40
29.190         7
29.200        67
29.210        67
29.220        13
29.230        53
29.240        60
29.250        47
29.260        53
29.270        53
29.280        27
29.290        40
29.300        60
29.310        20
29.320        13
29.330        27
29.340        27
29.350        33
29.360        40
29.370        27
29.380        27
29.390        13
29.400        27
29.410        20
29.420        27
29.430        33
29.440        40
29.450        47
29.460        20
29.470        27
29.480        47
29.490        27
29.500        40
29.510        27
29.520        20
29.530        20
29.540        33
29.550        33
29.560        13
29.570        27
29.580        20
29.590        27
29.600        67
29.610        27
29.620        20
29.630        40
29.640        27
29.650         7
29.660        27
29.670        53
29.680        33
29.690        13
29.700        27
29.710        40
29.720        27
29.730        53
29.740        33
29.750        27
29.760        27
29.770        13
29.780        40
29.790        27
29.800        40
29.810        27
29.820        13
29.830        13
29.840        40
29.850        27
29.860        13
29.870         0
29.880        33
29.890        40
29.900        33
29.910        13
29.920        47
29.930        20
29.940        40
29.950        40
29.960        33
29.970        33
29.980        33
29.990        20
30.000        47
30.010        13
30.020        33
30.030        20
30.040        13
30.050        13
30.060        33
30.070        33
30.080        47
30.090         7
30.100        20
30.110        20
30.120        13
30.130        20
30.140        73
30.150        40
30.160        20
30.170        20
30.180        40
30.190        13
30.200        20
30.210        20
30.220        33
30.230        13
30.240        27
30.250        27
30.260        20
30.270         7
30.280        60
30.290         7
30.300        67
30.310        13
30.320        13
30.330        33
30.340        33
30.350         7
30.360        40
30.370        27
30.380        27
30.390        40
30.400        33
30.410        27
30.420        40
30.430        20
30.440        47
30.450        20
30.460        60
30.470        13
30.480        13
30.490        33
30.500        33
30.510        33
30.520        20
30.530        40
30.540        27
30.550        13
30.560        27
30.570        47
30.580        40
30.590        40
30.600        40
30.610        33
30.620        27
30.630        33
30.640        33
30.650        27
30.660        27
30.670        13
30.680        40
30.690        20
30.700        33
30.710        33
30.720        40
30.730        40
30.740         7
30.750        27
30.760        20
30.770        40
30.780        27
30.790        13
30.800        27
30.810        33
30.820        13
30.830        40
30.840        27
30.850        33
30.860        27
30.870        27
30.880        33
30.890        33
30.900        40
30.910        33
30.920        20
30.930        40
30.940        13
30.950        40
30.960        13
30.970        53
30.980        67
30.990        20
31.000        13
31.010        20
31.020        27
31.030        27
31.040        33
31.050        47
31.060        27
31.070        47
31.080         7
31.090        27
31.100        20
31.110        33
31.120        20
31.130        27
31.140        53
31.150        20
31.160        40
31.170        33
31.180        60
31.190        20
31.200        27
31.210        27
31.220        40
31.230        20
31.240        33
31.250        47
31.260        40
31.270        33
31.280        20
31.290        33
31.300        33
31.310        33
31.320         7
31.330        13
31.340        20
31.350        47
31.360        20
31.370        40
31.380        40
31.390        67
31.400        33
31.410        40
31.420        73
31.430        33
31.440        20
31.450        13
31.460        13
31.470        20
31.480        27
31.490        27
31.500        13
31.510        60
31.520        47
31.530        47
31.540        53
31.550        27
31.560        47
31.570        33
31.580        47
31.590        27
31.600        40
31.610         7
31.620        47
31.630        40
31.640        73
31.650        27
31.660        53
31.670        47
31.680        27
31.690        73
31.700        27
31.710        47
31.720        27
31.730        20
31.740        53
31.750        73
31.760        27
31.770        67
31.780        47
31.790        27
31.800        27
31.810       133
31.820        80
31.830        87
31.840        80
31.850        67
31.860       113
31.870       107
31.880       100
31.890       147
31.900       147
31.910       113
31.920       193
31.930       200
31.940       200
31.950       220
31.960       200
31.970       287
31.980       233
31.990       300
32.000       267
32.010       293
32.020       327
32.030       393
32.040       173
32.050       207
32.060       260
32.070       200
32.080       213
32.090       147
32.100       167
32.110       193
32.120       133
32.130       213
32.140       180
32.150       113
32.160       107
32.170       100
32.180       113
32.190        67
32.200        53
32.210        60
32.220        73
32.230        73
32.240        33
32.250        20
32.260        27
32.270        47
32.280        47
32.290        33
32.300        27
32.310        13
32.320        40
32.330        33
32.340        27
32.350        13
32.360        67
32.370        53
32.380        40
32.390        13
32.400        27
32.410        27
32.420        13
32.430        47
32.440        20
32.450        47
32.460        40
32.470        47
32.480        33
32.490        27
32.500        13
32.510        40
32.520        27
32.530        27
32.540        53
32.550        27
32.560        80
32.570        27
32.580        20
32.590        60
32.600        53
32.610        33
32.620        60
32.630        27
32.640        13
32.650        67
32.660        27
32.670        13
32.680        40
32.690        33
32.700        27
32.710        13
32.720        33
32.730        53
32.740        27
32.750        27
32.760        20
32.770        40
32.780        33
32.790        33
32.800         7
32.810        27
32.820        33
32.830        20
32.840        40
32.850        40
32.860        53
32.870        60
32.880        33
32.890        20
32.900        20
32.910        40
32.920        80
32.930         7
32.940         7
32.950        27
32.960        40
32.970        27
32.980        20
32.990         7
33.000        27
33.010        27
33.020         7
33.030        13
33.040        60
33.050        27
33.060        40
33.070        13
33.080        27
33.090        33
33.100        27
33.110        27
33.120        53
33.130        20
33.140        20
33.150        40
33.160        33
33.170        27
33.180        27
33.190        20
33.200        53
33.210        33
33.220        33
33.230        40
33.240         7
33.250        13
33.260        47
33.270        40
33.280        20
33.290        27
33.300        40
33.310        20
33.320        20
33.330        47
33.340        27
33.350        20
33.360        20
33.370        20
33.380        47
33.390        33
33.400        20
33.410         7
33.420        20
33.430        27
33.440        53
33.450        13
33.460        33
33.470        27
33.480        20
33.490        27
33.500        47
33.510        47
33.520         7
33.530        27
33.540        13
33.550        20
33.560        47
33.570        13
33.580        20
33.590        13
33.600        27
33.610        13
33.620        20
33.630        33
33.640        13
33.650        20
33.660        13
33.670        27
33.680        33
33.690        27
33.700        40
33.710        13
33.720         0
33.730        53
33.740         0
33.750        33
33.760        20
33.770        33
33.780        20
33.790        27
33.800        67
33.810        40
33.820        20
33.830         7
33.840        20
33.850        27
33.860        27
33.870        40
33.880        13
33.890        13
33.900        33
33.910        40
33.920        33
33.930        33
33.940        20
33.950        40
33.960         7
33.970        27
33.980        27
33.990        20
34.000         7
34.010        13
34.020        20
34.030        20
34.040        13
34.050        27
34.060         7
34.070        47
34.080        40
34.090        27
34.100        20
34.110        47
34.120        40
34.130        20
34.140        33
34.150        67
34.160        20
34.170        20
34.180        20
34.190        13
34.200        27
34.210        33
34.220         7
34.230        53
34.240        13
34.250        40
34.260        13
34.270        33
34.280        20
34.290        33
34.300        13
34.310        40
34.320        13
34.330         7
34.340        40
34.350        47
34.360        20
34.370         7
34.380        53
34.390        33
34.400        53
34.410        47
34.420        20
34.430        13
34.440        27
34.450         0
34.460        33
34.470        20
34.480        27
34.490        40
34.500        20
34.510         0
34.520        53
34.530        27
34.540        33
34.550        20
34.560        33
34.570        40
34.580        13
34.590        33
34.600        40
34.610        27
34.620         7
34.630        27
34.640        40
34.650        33
34.660        27
34.670        53
34.680        20
34.690        13
34.700        47
34.710        33
34.720        20
34.730        20
34.740        40
34.750        20
34.760        33
34.770        13
34.780        33
34.790        53
34.800         0
34.810        33
34.820        33
34.830        33
34.840        13
34.850        13
34.860        53
34.870        20
34.880        13
34.890        27
34.900        40
34.910        47
34.920        73
34.930        33
34.940        40
34.950        27
34.960        47
34.970        47
34.980        47
34.990        33
35.000        47
35.010        13
35.020        80
35.030       100
35.040        47
35.050        53
35.060       167
35.070       133
35.080       160
35.090       107
35.100       133
35.110       140
35.120       140
35.130       180
35.140       220
35.150       313
35.160       367
35.170       313
35.180       333
35.190       320
35.200       333
35.210       307
35.220       233
35.230       233
35.240       227
35.250       140
35.260       173
35.270       193
35.280       133
35.290       133
35.300       120
35.310       127
35.320       120
35.330       100
35.340        47
35.350        40
35.360        20
35.370        13
35.380        40
35.390        47
35.400        20
35.410         7
35.420        27
35.430        27
35.440        73
35.450        27
35.460        33
35.470        20
35.480        60
35.490        47
35.500        20
35.510        20
35.520         7
35.530        47
35.540        33
35.550        20
35.560        33
35.570        60
35.580        27
35.590        20
35.600        33
35.610        20
35.620        27
35.630        33
35.640        20
35.650        40
35.660        20
35.670        20
35.680        40
35.690        20
35.700        20
35.710        27
35.720         7
35.730        33
35.740         7
35.750        40
35.760        27
35.770         7
35.780        13
35.790        20
35.800        13
35.810        60
35.820        27
35.830        27
35.840        27
35.850        40
35.860        40
35.870        27
35.880        47
35.890        40
35.900        47
35.910        27
35.920        20
35.930        20
35.940        27
35.950        13
35.960        20
35.970        40
35.980         7
35.990         7
36.000        27
36.010        20
36.020        13
36.030        13
36.040         7
36.050        27
36.060         7
36.070         7
36.080        40
36.090        13
36.100        13
36.110        27
36.120        13
36.130        53
36.140        13
36.150        33
36.160        27
36.170        33
36.180        73
36.190        13
36.200        27
36.210         7
36.220        33
36.230        13
36.240        53
36.250        20
36.260        13
36.270        20
36.280        27
36.290        40
36.300         7
36.310        47
36.320        27
36.330         7
36.340         7
36.350        13
36.360         7
36.370        33
36.380        47
36.390        40
36.400        33
36.410        13
36.420        27
36.430        27
36.440         0
36.450        33
36.460        27
36.470        27
36.480        27
36.490        13
36.500        33
36.510        27
36.520        47
36.530        13
36.540        20
36.550        20
36.560        20
36.570        20
36.580        20
36.590        27
36.600        20
36.610        33
36.620        13
36.630        13
36.640        40
36.650        13
36.660        27
36.670        20
36.680        33
36.690        53
36.700        27
36.710        40
36.720        20
36.730        33
36.740        20
36.750        87
36.760        20
36.770        27
36.780        40
36.790        27
36.800         7
36.810         0
36.820        20
36.830         7
36.840        27
36.850        40
36.860        40
36.870        27
36.880        13
36.890        20
36.900        27
36.910        33
36.920        33
36.930        40
36.940        47
36.950        27
36.960        53
36.970        13
36.980        40
36.990        20
37.000        40
37.010        33
37.020        20
37.030        40
37.040        33
37.050        47
37.060        47
37.070        33
37.080        20
37.090         7
37.100        27
37.110        13
37.120        20
37.130        40
37.140        27
37.150        47
37.160        33
37.170        20
37.180        13
37.190        13
37.200         7
37.210        33
37.220        27
37.230        20
37.240        33
37.250        40
37.260        13
37.270        27
37.280        20
37.290         7
37.300        47
37.310        20
37.320        13
37.330        33
37.340        40
37.350        13
37.360        27
37.370        60
37.380        27
37.390        20
37.400        20
37.410        27
37.420        33
37.430        33
37.440        13
37.450        40
37.460        13
37.470        13
37.480        40
37.490        47
37.500        13
37.510         7
37.520        27
37.530        13
37.540        40
37.550        53
37.560        27
37.570        40
37.580        20
37.590        27
37.600        33
37.610        20
37.620        13
37.630        13
37.640        47
37.650        40
37.660        27
37.670        53
37.680         0
37.690        40
37.700        20
37.710        13
37.720        40
37.730        47
37.740        47
37.750        40
37.760        53
37.770        27
37.780        53
37.790        60
37.800        40
37.810        60
37.820        73
37.830       107
37.840        67
37.850        67
37.860       107
37.870        53
37.880        67
37.890        47
37.900        33
37.910        60
37.920        40
37.930        73
37.940        47
37.950        33
37.960        13
37.970        40
37.980        27
37.990        40
38.000        13
38.010        40
38.020        33
38.030         0
38.040        33
38.050        33
38.060        13
38.070        47
38.080        13
38.090        13
38.100        13
38.110        40
38.120         0
38.130         7
38.140        27
38.150        20
38.160        27
38.170        27
38.180        13
38.190        13
38.200        20
38.210        33
38.220        27
38.230        33
38.240        20
38.250        20
38.260        27
38.270         7
38.280         7
38.290        33
38.300        67
38.310        40
38.320         7
38.330        27
38.340         7
38.350        40
38.360        13
38.370        20
38.380        13
38.390        33
38.400        27
38.410        53
38.420        13
38.430        20
38.440        33
38.450        33
38.460        40
38.470        47
38.480        33
38.490        20
38.500        13
38.510        40
38.520        27
38.530        13
38.540        27
38.550        13
38.560        33
38.570        40
38.580        13
38.590        13
38.600        13
38.610        20
38.620        27
38.630        27
38.640         7
38.650        20
38.660        20
38.670        13
38.680        20
38.690        33
38.700        40
38.710        20
38.720         0
38.730        33
38.740        40
38.750        13
38.760        47
38.770        13
38.780        27
38.790        20
38.800        13
38.810        40
38.820         7
38.830        13
38.840         7
38.850        33
38.860         0
38.870        33
38.880        33
38.890         7
38.900         7
38.910        13
38.920        20
38.930        13
38.940        20
38.950        13
38.960        47
38.970        20
38.980        27
38.990        33
39.000        27
39.010        20
39.020        33
39.030        27
39.040        40
39.050        33
39.060        20
39.070        33
39.080        20
39.090        53
39.100        27
39.110        47
39.120        27
39.130        87
39.140        27
39.150        40
39.160        33
39.170        40
39.180        27
39.190        13
39.200        20
39.210        33
39.220        27
39.230        33
39.240        33
39.250        27
39.260        20
39.270        53
39.280        60
39.290        67
39.300        87
39.310        87
39.320       113
39.330       120
39.340       107
39.350       100
39.360       107
39.370       120
39.380       113
39.390       127
39.400       113
39.410       187
39.420        73
39.430       173
39.440       113
39.450       167
39.460       187
39.470       167
39.480       133
39.490       220
39.500       160
39.510       133
39.520       167
39.530       160
39.540       173
39.550       153
39.560       113
39.570        67
39.580       140
39.590        80
39.600       100
39.610        73
39.620       113
39.630       127
39.640        67
39.650        53
39.660        60
39.670        47
39.680        53
39.690        13
39.700        20
39.710        20
39.720        47
39.730        33
39.740        33
39.750        13
39.760        47
39.770        33
39.780        27
39.790        53
39.800        27
39.810        47
39.820        33
39.830        27
39.840        40
39.850        13
39.860        47
39.870        27
39.880        20
39.890        20
39.900        27
39.910        27
39.920        20
39.930        33
39.940        33
39.950        53
39.960         7
39.970        13
39.980        33
39.990        33
40.000        33
40.010        20
40.020        27
40.030         7
40.040         7
40.050         0
40.060        33
40.070        20
40.080        13
40.090        40
40.100        20
40.110         7
40.120        13
40.130        47
40.140        33
40.150        40
40.160        27
40.170        20
40.180        27
40.190        33
40.200        40
40.210        20
40.220        13
40.230         7
40.240        20
40.250        13
40.260        13
40.270        33
40.280         7
40.290        20
40.300        13
40.310        27
40.320        33
40.330        13
40.340        13
40.350        33
40.360        33
40.370        33
40.380         7
40.390        20
40.400        33
40.410        13
40.420        13
40.430        27
40.440        27
40.450        13
40.460        13
40.470        27
40.480        33
40.490        27
40.500         7
40.510        20
40.520        27
40.530        33
40.540        40
40.550        13
40.560         7
40.570        13
40.580        20
40.590        13
40.600        13
40.610         7
40.620        27
40.630        27
40.640        20
40.650        33
40.660        13
40.670        20
40.680        27
40.690        47
40.700        13
40.710        40
40.720        13
40.730        33
40.740        40
40.750        27
40.760        33
40.770        40
40.780        33
40.790        40
40.800        27
40.810        13
40.820        20
40.830        13
40.840        33
40.850        20
40.860        40
40.870        33
40.880        27
40.890        13
40.900        33
40.910        20
40.920         7
40.930        13
40.940        27
40.950        20
40.960        20
40.970        13
40.980        20
40.990        33
41.000        20
41.010         7
41.020        13
41.030         0
41.040         0
41.050        13
41.060        27
41.070        33
41.080         7
41.090        47
41.100        40
41.110        53
41.120        13
41.130        13
41.140        20
41.150        40
41.160        20
41.170         7
41.180        20
41.190        20
41.200        13
41.210        47
41.220        13
41.230        20
41.240         7
41.250        27
41.260        27
41.270        20
41.280        27
41.290        33
41.300        27
41.310        20
41.320         7
41.330         7
41.340         7
41.350        13
41.360        13
41.370         7
41.380         7
41.390         7
41.400         0
41.410        13
41.420        33
41.430        27
41.440         7
41.450        13
41.460        13
41.470        20
41.480        20
41.490        60
41.500        20
41.510         7
41.520        33
41.530         7
41.540        20
41.550        20
41.560        60
41.570        20
41.580        80
41.590         7
41.600        60
41.610        27
41.620        67
41.630        67
41.640        40
41.650        13
41.660        47
41.670        67
41.680        80
41.690       140
41.700       100
41.710       113
41.720       113
41.730       120
41.740        80
41.750       113
41.760        93
41.770        80
41.780        67
41.790        60
41.800        33
41.810        60
41.820        13
41.830        53
41.840       113
41.850        73
41.860        53
41.870        27
41.880        33
41.890        40
41.900        40
41.910         7
41.920        40
41.930        33
41.940        20
41.950        13
41.960        27
41.970         7
41.980        40
41.990         0
42.000        33
42.010        13
42.020        27
42.030        20
42.040        20
42.050         0
42.060        20
42.070        27
42.080        13
42.090        20
42.100        20
42.110        13
42.120        20
42.130        27
42.140        27
42.150        40
42.160        13
42.170         7
42.180         7
42.190        20
42.200        13
42.210        40
42.220        27
42.230        13
42.240        20
42.250        13
42.260        20
42.270        47
42.280        13
42.290         7
42.300        33
42.310        20
42.320        33
42.330        20
42.340        20
42.350        33
42.360        27
42.370        13
42.380        20
42.390        33
42.400        40
42.410        33
42.420        40
42.430        20
42.440        27
42.450        20
42.460        27
42.470         0
42.480        40
42.490        20
42.500        20
42.510        33
42.520        27
42.530        33
42.540        27
42.550        27
42.560        13
42.570        53
42.580         0
42.590        13
42.600        20
42.610        20
42.620        13
42.630         7
42.640        13
42.650         7
42.660        27
42.670        13
42.680        20
42.690        13
42.700        20
42.710        13
42.720        33
42.730         7
42.740        47
42.750        27
42.760        27
42.770        20
42.780        13
42.790        27
42.800        47
42.810        13
42.820        20
42.830        13
42.840        27
42.850        27
42.860        20
42.870        13
42.880        13
42.890        13
42.900        20
42.910        33
42.920        13
42.930        40
42.940        20
42.950        33
42.960        13
42.970        33
42.980        27
42.990        40
43.000        27
43.010         0
43.020        20
43.030        40
43.040        33
43.050        27
43.060        27
43.070        20
43.080        33
43.090        53
43.100        27
43.110        20
43.120        27
43.130        27
43.140         7
43.150         0
43.160        27
43.170        27
43.180        27
43.190        27
43.200        20
43.210        27
43.220        67
43.230        20
43.240        33
43.250        27
43.260        20
43.270        20
43.280        27
43.290        33
43.300        73
43.310        40
43.320        67
43.330        93
43.340        67
43.350        40
43.360       127
43.370       167
43.380       200
43.390       253
43.400       167
43.410       240
43.420       213
43.430       233
43.440       200
43.450       127
43.460        93
43.470       120
43.480       113
43.490       100
43.500        93
43.510       147
43.520       113
43.530       193
43.540       107
43.550        47
43.560        47
43.570        40
43.580        47
43.590        27
43.600        33
43.610        27
43.620        27
43.630        33
43.640        47
43.650        13
43.660        13
43.670        33
43.680        40
43.690        20
43.700        20
43.710        20
43.720        20
43.730        33
43.740        20
43.750        27
43.760        27
43.770        20
43.780        40
43.790         7
43.800        20
43.810         0
43.820        13
43.830        20
43.840        33
43.850         0
43.860        20
43.870        13
43.880        13
43.890        20
43.900        13
43.910        20
43.920        27
43.930        13
43.940        33
43.950         7
43.960        20
43.970        27
43.980        40
43.990        33
44.000         7
44.010        20
44.020        13
44.030        20
44.040         7
44.050        33
44.060        40
44.070        53
44.080        33
44.090        13
44.100         7
44.110        33
44.120        13
44.130        27
44.140        20
44.150        13
44.160        27
44.170        13
44.180         0
44.190        27
44.200        13
44.210        13
44.220        13
44.230         7
44.240         0
44.250         0
44.260        20
44.270        20
44.280         7
44.290        33
44.300        20
44.310        13
44.320        33
44.330        33
44.340        20
44.350        33
44.360        33
44.370        13
44.380        40
44.390        40
44.400        27
44.410        20
44.420         7
44.430         7
44.440         7
44.450        27
44.460        13
44.470        13
44.480        47
44.490         7
44.500        20
44.510        20
44.520        27
44.530        33
44.540        13
44.550        60
44.560         7
44.570        13
44.580        47
44.590        13
44.600        33
44.610        27
44.620        27
44.630        20
44.640        13
44.650         7
44.660        13
44.670        33
44.680        20
44.690        20
44.700        27
44.710        20
44.720        27
44.730         7
44.740        13
44.750         7
44.760        13
44.770         0
44.780         7
44.790        20
44.800        27
44.810        13
44.820        20
44.830         7
44.840        40
44.850        20
44.860        13
44.870        20
44.880        27
44.890        33
44.900        33
44.910         7
44.920        47
44.930        27
44.940        60
44.950         7
44.960         7
44.970        13
44.980        47
44.990        47
45.000         7
45.010        40
45.020        27
45.030        20
45.040        13
45.050         7
45.060        20
45.070        33
45.080        47
45.090        47
45.100         7
45.110        27
45.120        27
45.130        20
45.140        13
45.150        13
45.160        27
45.170        13
45.180        20
45.190        13
45.200        27
45.210        20
45.220         0
45.230        20
45.240        13
45.250        20
45.260        40
45.270        20
45.280        40
45.290        27
45.300        40
45.310        27
45.320        33
45.330         0
45.340        33
45.350         7
45.360        13
45.370        27
45.380        33
45.390        20
45.400         7
45.410        20
45.420        33
45.430        27
45.440         7
45.450        20
45.460        33
45.470        33
45.480        33
45.490         7
45.500        20
45.510        40
45.520        20
45.530        40
45.540        27
45.550        13
45.560        20
45.570        13
45.580        13
45.590         7
45.600         7
45.610        27
45.620        27
45.630        27
45.640        47
45.650        20
45.660        47
45.670        27
45.680        60
45.690        40
45.700        33
45.710        67
45.720        73
45.730        67
45.740        47
45.750        53
45.760        87
45.770        40
45.780        87
45.790        67
45.800        80
45.810        47
45.820        73
45.830        60
45.840        73
45.850       100
45.860       113
45.870        93
45.880       120
45.890       100
45.900        60
45.910        80
45.920       113
45.930        80
45.940       113
45.950        73
45.960       127
45.970        60
45.980        47
45.990       107
46.000        60
46.010        47
46.020        60
46.030        67
46.040        20
46.050        53
46.060        87
46.070        53
46.080        47
46.090        67
46.100        47
46.110        53
46.120        47
46.130        27
46.140        33
46.150        47
46.160        27
46.170        40
46.180        40
46.190        33
46.200        40
46.210        33
46.220        60
46.230        40
46.240         0
46.250         0
46.260        20
46.270        13
46.280        20
46.290        33
46.300         7
46.310         7
46.320        47
46.330        53
46.340        20
46.350        40
46.360        33
46.370        27
46.380        20
46.390        20
46.400        20
46.410        20
46.420        13
46.430         7
46.440        13
46.450        13
46.460         7
46.470        13
46.480        13
46.490         7
46.500        20
46.510        13
46.520        13
46.530        27
46.540        20
46.550        40
46.560        20
46.570        13
46.580        27
46.590        27
46.600        20
46.610        20
46.620        27
46.630        27
46.640        13
46.650         0
46.660         0
46.670         7
46.680        20
46.690        33
46.700        27
46.710        27
46.720         7
46.730         0
46.740         7
46.750        20
46.760         7
46.770        13
46.780        27
46.790        40
46.800        27
46.810        20
46.820        27
46.830        13
46.840        33
46.850        20
46.860        27
46.870        33
46.880        40
46.890        20
46.900         7
46.910        33
46.920        40
46.930         7
46.940        13
46.950        20
46.960        13
46.970        27
46.980         7
46.990        27
47.000        13
47.010        20
47.020         7
47.030        20
47.040        13
47.050        27
47.060        27
47.070        33
47.080        27
47.090        20
47.100        13
47.110        27
47.120         0
47.130        20
47.140         7
47.150        40
47.160        20
47.170        20
47.180        47
47.190        40
47.200        33
47.210         7
47.220         7
47.230         0
47.240        13
47.250         7
47.260        47
47.270        40
47.280        20
47.290        20
47.300        20
47.310        20
47.320        13
47.330        20
47.340        20
47.350        20
47.360        47
47.370        13
47.380        13
47.390         0
47.400         7
47.410        33
47.420        40
47.430        33
47.440         7
47.450        13
47.460        27
47.470         7
47.480         7
47.490        20
47.500        40
47.510        13
47.520         7
47.530        53
47.540        13
47.550         7
47.560        13
47.570        13
47.580        33
47.590        33
47.600         0
47.610         7
47.620        13
47.630        20
47.640        40
47.650        20
47.660        20
47.670         7
47.680        27
47.690         7
47.700        13
47.710        20
47.720        33
47.730         7
47.740         7
47.750        20
47.760        27
47.770         7
47.780        13
47.790        27
47.800         7
47.810        13
47.820        27
47.830        27
47.840        27
47.850        27
47.860         0
47.870        20
47.880         7
47.890        20
47.900        20
47.910        20
47.920        20
47.930        20
47.940        33
47.950        33
47.960         7
47.970        27
47.980        20
47.990        33
48.000        27
48.010         0
48.020        13
48.030        33
48.040        13
48.050        20
48.060        27
48.070         7
48.080        13
48.090        40
48.100        40
48.110         7
48.120         7
48.130        13
48.140        27
48.150        27
48.160         7
48.170        27
48.180        20
48.190        13
48.200         0
48.210        40
48.220         7
48.230        27
48.240         0
48.250         7
48.260         7
48.270        27
48.280        33
48.290        13
48.300        13
48.310        27
48.320        33
48.330         7
48.340        20
48.350        27
48.360        27
48.370        27
48.380        27
48.390        33
48.400        20
48.410        27
48.420        27
48.430         7
48.440        27
48.450        27
48.460        33
48.470        13
48.480        27
48.490        27
48.500        27
48.510        20
48.520        20
48.530        27
48.540        20
48.550         7
48.560        40
48.570        13
48.580         0
48.590        13
48.600        20
48.610         0
48.620         0
48.630        13
48.640        27
48.650        13
48.660         7
48.670        33
48.680        20
48.690        13
48.700        13
48.710        40
48.720         7
48.730         0
48.740        20
48.750        20
48.760        20
48.770         7
48.780        13
48.790        13
48.800         7
48.810        13
48.820        13
48.830         0
48.840        13
48.850        20
48.860        33
48.870         0
48.880        20
48.890        13
48.900        27
48.910        27
48.920        20
48.930        20
48.940         0
48.950        27
48.960        27
48.970         0
48.980        13
48.990        40
49.000        13
49.010        20
49.020        20
49.030        47
49.040        13
49.050        13
49.060        20
49.070         7
49.080        13
49.090        13
49.100        13
49.110        20
49.120        13
49.130        27
49.140        20
49.150        27
49.160        27
49.170        13
49.180        20
49.190        20
49.200        20
49.210        13
49.220        20
49.230         7
49.240        13
49.250        13
49.260        20
49.270         7
49.280         7
49.290         7
49.300        27
49.310         7
49.320        13
49.330        20
49.340        27
49.350        33
49.360        13
49.370        13
49.380         7
49.390        13
49.400        20
49.410        20
49.420        13
49.430        33
49.440         7
49.450        13
49.460        13
49.470        13
49.480        13
49.490         0
49.500        13
49.510        47
49.520        13
49.530        33
49.540         7
49.550        40
49.560        20
49.570         0
49.580         7
49.590        20
49.600        27
49.610        33
49.620        27
49.630        13
49.640         7
49.650        13
49.660        13
49.670         7
49.680        33
49.690        27
49.700         7
49.710        13
49.720        27
49.730         0
49.740         7
49.750         0
49.760        20
49.770        33
49.780        33
49.790        13
49.800         7
49.810        27
49.820         7
49.830        13
49.840         7
49.850        20
49.860        13
49.870         0
49.880        20
49.890         0
49.900        20
49.910         7
49.920        13
49.930        33
49.940        20
49.950        13
49.960        13
49.970        27
49.980         0
49.990        20
50.000        20
50.010         0
50.020        13
50.030        20
50.040        13
50.050        33
50.060         7
50.070        13
50.080        13
50.090        27
50.100        27
50.110        13
50.120        20
50.130        20
50.140         7
50.150        27
50.160        20
50.170        20
50.180        13
50.190        20
50.200         7
50.210        13
50.220         7
50.230         0
50.240         7
50.250        27
50.260        27
50.270         7
50.280        13
50.290        27
50.300        13
50.310        20
50.320        20
50.330        20
50.340        13
50.350        20
50.360        33
50.370         0
50.380        33
50.390        27
50.400         7
50.410        27
50.420         0
50.430        20
50.440        13
50.450        40
50.460         7
50.470        27
50.480         0
50.490         7
50.500        20
50.510        13
50.520        13
50.530        20
50.540         7
50.550         7
50.560         7
50.570        13
50.580         7
50.590        20
50.600        33
50.610         7
50.620        20
50.630        20
50.640        27
50.650        33
50.660        27
50.670        20
50.680        27
50.690         0
50.700        47
50.710        33
50.720        13
50.730        27
50.740        40
50.750        13
50.760         7
50.770        47
50.780        20
50.790        27
50.800        20
50.810        13
50.820         7
50.830        20
50.840         7
50.850         7
50.860        33
50.870         7
50.880        13
50.890        20
50.900         7
50.910        33
50.920        13
50.930         0
50.940        13
50.950        20
50.960         7
50.970        27
50.980        13
50.990         0
51.000         0
51.010        13
51.020        40
51.030        33
51.040        20
51.050        13
51.060         7
51.070        20
51.080        27
51.090         7
51.100         7
51.110        20
51.120        20
51.130         7
51.140         7
51.150        20
51.160         0
51.170        27
51.180        13
51.190        33
51.200        27
51.210        27
51.220         7
51.230         7
51.240        33
51.250        13
51.260        20
51.270        20
51.280         0
51.290        13
51.300        27
51.310         0
51.320         7
51.330        13
51.340         7
51.350         0
51.360        13
51.370         7
51.380        13
51.390        13
51.400         0
51.410        13
51.420        13
51.430        27
51.440        13
51.450        20
51.460        13
51.470        13
51.480        27
51.490        27
51.500         0
51.510        13
51.520        27
51.530         7
51.540         0
51.550         7
51.560         7
51.570        13
51.580        27
51.590        13
51.600        20
51.610        40
51.620        20
51.630        40
51.640        27
51.650        20
51.660        13
51.670        20
51.680        13
51.690        27
51.700        33
51.710        40
51.720        33
51.730        27
51.740         7
51.750        27
51.760        40
51.770        27
51.780        33
51.790        33
51.800        20
51.810        27
51.820        27
51.830        20
51.840         7
51.850        27
51.860        20
51.870        13
51.880        40
51.890         7
51.900        20
51.910        40
51.920        40
51.930        20
51.940         7
51.950        27
51.960        13
51.970        13
51.980        47
51.990        13
52.000         7
52.010        27
52.020         7
52.030        27
52.040        20
52.050        13
52.060         0
52.070        13
52.080        20
52.090        13
52.100        20
52.110        20
52.120        13
52.130         7
52.140        13
52.150        27
52.160         0
52.170        20
52.180        13
52.190         0
52.200        20
52.210        20
52.220        13
52.230        20
52.240         0
52.250        13
52.260         7
52.270        27
52.280         7
52.290         7
52.300        13
52.310        27
52.320        27
52.330         0
52.340        27
52.350        33
52.360         7
52.370        13
52.380        20
52.390         0
52.400        20
52.410        20
52.420        13
52.430        33
52.440        20
52.450        20
52.460        27
52.470        33
52.480         7
52.490        33
52.500        20
52.510        33
52.520        33
52.530        53
52.540        67
52.550        80
52.560        40
52.570       153
52.580       160
52.590       127
52.600       147
52.610       200
52.620       200
52.630       147
52.640       160
52.650       147
52.660       120
52.670        93
52.680        67
52.690        73
52.700        60
52.710        67
52.720       113
52.730       113
52.740       140
52.750       100
52.760       113
52.770        60
52.780       100
52.790        60
52.800        53
52.810        27
52.820        27
52.830        33
52.840         7
52.850        13
52.860         7
52.870        40
52.880        33
52.890        20
52.900        27
52.910        27
52.920        27
52.930        27
52.940        20
52.950         7
52.960        33
52.970        13
52.980        13
52.990        27
53.000        13
53.010        20
53.020         7
53.030         0
53.040        27
53.050        13
53.060         7
53.070        27
53.080        20
53.090        33
53.100        20
53.110         7
53.120        27
53.130         7
53.140         7
53.150        13
53.160        20
53.170         0
53.180         7
53.190        20
53.200        13
53.210        13
53.220        20
53.230        27
53.240        13
53.250        20
53.260        27
53.270        40
53.280        20
53.290        13
53.300        13
53.310        27
53.320         0
53.330        27
53.340        27
53.350         7
53.360        27
53.370         7
53.380        20
53.390        20
53.400        20
53.410        13
53.420        27
53.430        40
53.440        13
53.450        13
53.460        27
53.470        27
53.480         7
53.490         7
53.500        27
53.510        27
53.520        27
53.530        20
53.540        13
53.550        13
53.560         0
53.570        27
53.580         7
53.590        13
53.600        33
53.610         7
53.620         7
53.630        20
53.640         7
53.650        13
53.660        13
53.670        47
53.680        13
53.690        13
53.700        20
53.710         7
53.720         0
53.730         7
53.740        13
53.750        33
53.760        20
53.770        27
53.780         0
53.790        13
53.800         7
53.810        13
53.820        13
53.830         7
53.840         0
53.850        20
53.860        13
53.870        13
53.880        27
53.890        33
53.900        13
53.910        13
53.920        33
53.930         7
53.940        13
53.950        13
53.960        13
53.970        13
53.980        13
53.990        20
54.000         0
54.010         7
54.020         7
54.030         0
54.040         7
54.050        27
54.060         7
54.070         7
54.080         7
54.090        13
54.100         0
54.110        27
54.120        27
54.130        13
54.140        33
54.150        20
54.160        13
54.170        27
54.180        33
54.190         7
54.200        20
54.210        47
54.220        20
54.230        33
54.240        33
54.250         0
54.260        33
54.270        33
54.280         7
54.290         0
54.300         7
54.310        33
54.320        20
54.330        13
54.340        33
54.350         0
54.360        27
54.370         7
54.380         7
54.390        20
54.400        20
54.410        20
54.420        13
54.430        13
54.440        13
54.450        20
54.460         7
54.470        20
54.480        13
54.490        13
54.500        13
54.510        13
54.520        20
54.530        20
54.540        47
54.550        13
54.560        13
54.570        20
54.580        13
54.590        33
54.600        13
54.610        13
54.620         7
54.630        13
54.640         7
54.650        20
54.660         7
54.670        27
54.680        27
54.690         7
54.700        20
54.710         7
54.720        20
54.730        27
54.740         7
54.750        13
54.760        27
54.770        13
54.780        13
54.790         0
54.800        40
54.810        27
54.820         7
54.830        13
54.840         7
54.850        27
54.860        13
54.870        27
54.880        27
54.890        20
54.900        13
54.910         0
54.920        20
54.930        13
54.940        33
54.950        20
54.960         7
54.970        20
54.980         7
54.990        20
55.000        13
55.010         0
55.020        27
55.030        20
55.040        33
55.050         0
55.060        20
55.070         7
55.080        33
55.090        20
55.100         0
55.110        20
55.120        13
55.130        27
55.140        40
55.150        20
55.160         7
55.170         0
55.180        33
55.190         7
55.200        33
55.210        13
55.220        20
55.230        20
55.240         7
55.250        20
55.260        27
55.270         7
55.280         0
55.290        13
55.300        13
55.310        20
55.320        13
55.330         7
55.340        20
55.350        27
55.360        40
55.370        20
55.380        13
55.390        27
55.400        27
55.410        13
55.420         0
55.430        33
55.440        33
55.450         7
55.460        13
55.470        27
55.480        20
55.490        20
55.500        13
55.510        20
55.520        13
55.530         7
55.540         0
55.550         7
55.560         7
55.570        20
55.580        27
55.590        13
55.600        20
55.610        13
55.620        33
55.630         7
55.640        20
55.650        20
55.660        47
55.670         7
55.680         7
55.690        13
55.700        20
55.710         7
55.720        33
55.730         7
55.740        20
55.750         7
55.760        27
55.770         7
55.780         7
55.790        20
55.800         7
55.810        20
55.820        33
55.830        27
55.840        20
55.850         7
55.860         7
55.870        47
55.880         0
55.890         7
55.900        20
55.910        20
55.920        20
55.930         0
55.940         7
55.950         7
55.960        27
55.970        27
55.980        33
55.990         7
56.000        20
56.010        20
56.020        20
56.030        20
56.040        33
56.050        27
56.060        20
56.070        20
56.080        27
56.090        40
56.100        20
56.110        20
56.120        13
56.130         7
56.140        27
56.150        27
56.160        13
56.170        27
56.180        13
56.190        20
56.200        27
56.210        20
56.220         7
56.230         7
56.240        13
56.250        13
56.260        13
56.270        13
56.280        20
56.290        40
56.300        20
56.310         0
56.320        20
56.330        13
56.340        20
56.350        13
56.360         7
56.370        20
56.380        27
56.390        13
56.400        40
56.410        40
56.420        60
56.430        40
56.440        27
56.450        40
56.460        13
56.470        13
56.480        27
56.490         7
56.500        27
56.510        27
56.520        33
56.530        13
56.540        27
56.550        33
56.560        67
56.570        67
56.580        47
56.590        47
56.600        53
56.610        53
56.620        47
56.630        40
56.640        60
56.650        87
56.660        87
56.670        80
56.680        60
56.690        93
56.700        93
56.710        80
56.720        93
56.730       107
56.740       107
56.750       160
56.760       167
56.770       113
56.780        67
56.790        80
56.800       173
56.810       167
56.820       180
56.830       180
56.840       127
56.850       187
56.860       133
56.870       187
56.880       153
56.890       213
56.900       167
56.910       200
56.920       213
56.930       173
56.940       207
56.950       173
56.960       227
56.970       200
56.980       173
56.990       213
57.000       227
57.010       200
57.020       260
57.030       260
57.040       207
57.050       207
57.060       173
57.070       120
57.080       220
57.090       220
57.100       107
57.110       167
57.120       120
57.130       173
57.140       153
57.150       147
57.160       120
57.170        93
57.180       160
57.190       120
57.200       113
57.210       120
57.220       113
57.230       127
57.240       100
57.250        93
57.260        53
57.270       107
57.280        40
57.290        73
57.300        73
57.310        53
57.320        87
57.330        80
57.340        67
57.350        53
57.360        73
57.370        53
57.380        40
57.390        60
57.400        60
57.410        40
57.420        47
57.430        93
57.440        93
57.450       120
57.460       133
57.470       200
57.480       153
57.490       247
57.500       260
57.510       227
57.520       247
57.530       260
57.540       280
57.550       220
57.560       153
57.570       220
57.580       193
57.590       113
57.600       180
57.610       167
57.620       167
57.630       173
57.640       153
57.650       127
57.660       147
57.670       133
57.680       113
57.690       147
57.700       147
57.710       113
57.720       120
57.730       107
57.740       127
57.750        73
57.760        47
57.770        47
57.780        60
57.790        47
57.800        40
57.810        53
57.820        20
57.830        53
57.840        40
57.850        13
57.860        27
57.870        40
57.880        13
57.890        27
57.900        13
57.910        33
57.920         0
57.930        27
57.940         7
57.950        13
57.960        27
57.970        13
57.980        20
57.990        27
58.000         7
58.010        27
58.020         7
58.030        13
58.040        20
58.050         7
58.060        20
58.070        20
58.080        13
58.090        27
58.100        33
58.110        20
58.120        20
58.130        33
58.140        13
58.150        33
58.160        13
58.170        13
58.180        20
58.190        20
58.200        40
58.210        13
58.220        13
58.230        27
58.240         7
58.250        13
58.260        27
58.270         7
58.280        13
58.290        27
58.300        27
58.310         7
58.320         7
58.330        27
58.340         0
58.350         7
58.360        33
58.370         7
58.380         7
58.390         7
58.400        33
58.410        47
58.420        20
58.430        13
58.440        13
58.450        20
58.460        20
58.470         7
58.480        20
58.490         7
58.500        20
58.510         7
58.520        20
58.530         0
58.540        20
58.550         7
58.560         7
58.570        13
58.580         7
58.590         7
58.600        27
58.610         7
58.620        13
58.630        13
58.640         7
58.650        27
58.660         7
58.670        27
58.680        13
58.690        27
58.700        13
58.710        20
58.720        13
58.730         0
58.740         7
58.750         0
58.760        20
58.770        33
58.780         7
58.790        13
58.800         7
58.810        27
58.820        13
58.830         7
58.840        13
58.850         0
58.860        13
58.870        13
58.880         7
58.890        13
58.900        13
58.910        27
58.920        33
58.930         7
58.940        20
58.950        13
58.960        13
58.970         7
58.980        20
58.990        27
59.000         0
59.010         0
59.020        27
59.030        27
59.040        20
59.050        20
59.060         7
59.070         0
59.080        20
59.090        47
59.100         0
59.110        20
59.120        20
59.130        27
59.140         7
59.150         7
59.160        27
59.170         0
59.180         7
59.190         0
59.200         7
59.210         7
59.220        20
59.230         0
59.240        40
59.250        27
59.260        13
59.270         0
59.280        13
59.290         0
59.300        33
59.310         0
59.320        13
59.330         7
59.340         7
59.350        13
59.360        27
59.370        13
59.380        27
59.390        20
59.400         7
59.410        20
59.420        13
59.430        27
59.440         7
59.450        13
59.460        13
59.470        20
59.480        33
59.490        27
59.500        20
59.510        27
59.520        27
59.530        13
59.540        13
59.550        13
59.560         7
59.570        13
59.580        13
59.590         7
59.600        40
59.610        20
59.620        27
59.630        27
59.640         7
59.650         7
59.660        13
59.670        33
59.680        40
59.690        20
59.700        40
59.710        13
59.720        13
59.730        40
59.740        27
59.750        13
59.760        13
59.770        33
59.780        27
59.790         7
59.800        27
59.810        27
59.820        20
59.830        33
59.840        27
59.850        13
59.860        20
59.870        20
59.880        20
59.890        20
59.900        27
59.910         7
59.920        20
59.930        20
59.940        20
59.950        13
59.960        33
59.970        20
59.980         7
59.990        13
60.000         7
