20.000        47
20.010        20
20.020        33
20.030        47
20.040        33
20.050        40
20.060        27
20.070        40
20.080        33
20.090        40
20.100         0
20.110        33
20.120        33
20.130        40
20.140        27
20.150        47
20.160        93
20.170        33
20.180        27
20.190        33
20.200        33
20.210        33
20.220        20
20.230        27
20.240        27
20.250        20
20.260        47
20.270        53
20.280        67
20.290        27
20.300        47
20.310        40
20.320        47
20.330        53
20.340        40
20.350        13
20.360        53
20.370        47
20.380        40
20.390        40
20.400        40
20.410        47
20.420        53
20.430        27
20.440        53
20.450        40
20.460        53
20.470        67
20.480        40
20.490        33
20.500        27
20.510        20
20.520        20
20.530        33
20.540        40
20.550        27
20.560        53
20.570        20
20.580        53
20.590        73
20.600        40
20.610        33
20.620        27
20.630        20
20.640        20
20.650        13
20.660        33
20.670        47
20.680        60
20.690        67
20.700        40
20.710        33
20.720        60
20.730        60
20.740        47
20.750        33
20.760        40
20.770        60
20.780        40
20.790        33
20.800        20
20.810        33
20.820        27
20.830        47
20.840        40
20.850        27
20.860        47
20.870        47
20.880         7
20.890        13
20.900        40
20.910        40
20.920        40
20.930        40
20.940        20
20.950        40
20.960        47
20.970        53
20.980        40
20.990        20
21.000        27
21.010        53
21.020        33
21.030        53
21.040        33
21.050        27
21.060        40
21.070        53
21.080        20
21.090        73
21.100        33
21.110        20
21.120        27
21.130        40
21.140        47
21.150        13
21.160        67
21.170        53
21.180        47
21.190        40
21.200        47
21.210        40
21.220        40
21.230        13
21.240        40
21.250        53
21.260        33
21.270        60
21.280        40
21.290        33
21.300        47
21.310        27
21.320        13
21.330        20
21.340        20
21.350        47
21.360        20
21.370        47
21.380        47
21.390        33
21.400        27
21.410        27
21.420        40
21.430        27
21.440        20
21.450        27
21.460        20
21.470        53
21.480        47
21.490        13
21.500        33
21.510        27
21.520        33
21.530        47
21.540        73
21.550        20
21.560        40
21.570         7
21.580        20
21.590        40
21.600         7
21.610        20
21.620        20
21.630        13
21.640        13
21.650        20
21.660        13
21.670        40
21.680        47
21.690        27
21.700        47
21.710        40
21.720        27
21.730        60
21.740        27
21.750        13
21.760        20
21.770        40
21.780        13
21.790        20
21.800        33
21.810        13
21.820        53
21.830        60
21.840        40
21.850        33
21.860        33
21.870        40
21.880        33
21.890        27
21.900        47
21.910        73
21.920        27
21.930        47
21.940        20
21.950        27
21.960        33
21.970        60
21.980        47
21.990        33
22.000        40
22.010        47
22.020        87
22.030        40
22.040        40
22.050        27
22.060        33
22.070        73
22.080        87
22.090        40
22.100        67
22.110        53
22.120        67
22.130        53
22.140        47
22.150        60
22.160        80
22.170        53
22.180        73
22.190        80
22.200        60
22.210        80
22.220        87
22.230       133
22.240       107
22.250       147
22.260       107
22.270        93
22.280        93
22.290        93
22.300       120
22.310       133
22.320       100
22.330       133
22.340        40
22.350        87
22.360        80
22.370       107
22.380        67
22.390       107
22.400        53
22.410        80
22.420        93
22.430        93
22.440        47
22.450        80
22.460        73
22.470       107
22.480        67
22.490        73
22.500        60
22.510        47
22.520        60
22.530        73
22.540        60
22.550        47
22.560        47
22.570        33
22.580        33
22.590        53
22.600        40
22.610        47
22.620        60
22.630        60
22.640        47
22.650        53
22.660        40
22.670        47
22.680        60
22.690        20
22.700        33
22.710        33
22.720        80
22.730        40
22.740        40
22.750        40
22.760        33
22.770        73
22.780        53
22.790        20
22.800        40
22.810        47
22.820        53
22.830        47
22.840        27
22.850        40
22.860        47
22.870        67
22.880        27
22.890        60
22.900        13
22.910        27
22.920        53
22.930        47
22.940         7
22.950        33
22.960        33
22.970        47
22.980        53
22.990        33
23.000        53
23.010        60
23.020        20
23.030        47
23.040        40
23.050        13
23.060        47
23.070        33
23.080        47
23.090        47
23.100         7
23.110        27
23.120        40
23.130        27
23.140        33
23.150        20
23.160        47
23.170        27
23.180        13
23.190        20
23.200        53
23.210        27
23.220        80
23.230        33
23.240        13
23.250        47
23.260        33
23.270        40
23.280        13
23.290        13
23.300        27
23.310        53
23.320        20
23.330        20
23.340        53
23.350        27
23.360        33
23.370        20
23.380        47
23.390        60
23.400        33
23.410        33
23.420        40
23.430        27
23.440        53
23.450        33
23.460        33
23.470        40
23.480        40
23.490        33
23.500        53
23.510        40
23.520        27
23.530        27
23.540        40
23.550        13
23.560        47
23.570        33
23.580        27
23.590        40
23.600        60
23.610        33
23.620        27
23.630        33
23.640        13
23.650        13
23.660        40
23.670        53
23.680        40
23.690        27
23.700        33
23.710        40
23.720        20
23.730        33
23.740        33
23.750        13
23.760        67
23.770        33
23.780        40
23.790        13
23.800        20
23.810        20
23.820        33
23.830        13
23.840        20
23.850        27
23.860        60
23.870        40
23.880        60
23.890        13
23.900        53
23.910        27
23.920        40
23.930        13
23.940        60
23.950        47
23.960        33
23.970        33
23.980        13
23.990        40
24.000        33
24.010        27
24.020        33
24.030        33
24.040        40
24.050        40
24.060        20
24.070        47
24.080        40
24.090        20
24.100        33
24.110        20
24.120        47
24.130        60
24.140        33
24.150        13
24.160        13
24.170        60
24.180        27
24.190        47
24.200        13
24.210        47
24.220        40
24.230         7
24.240        33
24.250        13
24.260        20
24.270        27
24.280        20
24.290        27
24.300        20
24.310        47
24.320        27
24.330        20
24.340        33
24.350        40
24.360        60
24.370        47
24.380        20
24.390        20
24.400        33
24.410        40
24.420        33
24.430        47
24.440        20
24.450        27
24.460        60
24.470        40
24.480        33
24.490        40
24.500        73
24.510        27
24.520        33
24.530        27
24.540        33
24.550        27
24.560        27
24.570        47
24.580        13
24.590        40
24.600        27
24.610         0
24.620        20
24.630        33
24.640        40
24.650        47
24.660        47
24.670        53
24.680        40
24.690         7
24.700        33
24.710        33
24.720        33
24.730        27
24.740        53
24.750        47
24.760        27
24.770        20
24.780        27
24.790        20
24.800        47
24.810        13
24.820        60
24.830        13
24.840        20
24.850        80
24.860        47
24.870        47
24.880        13
24.890        40
24.900        40
24.910        20
24.920        33
24.930        47
24.940        33
24.950        20
24.960        27
24.970        27
24.980        40
24.990        53
25.000        47
25.010        27
25.020        27
25.030        33
25.040        27
25.050        47
25.060        60
25.070        33
25.080        20
25.090        53
25.100        60
25.110        20
25.120        33
25.130        27
25.140         7
25.150        27
25.160        27
25.170        27
25.180        40
25.190        40
25.200        20
25.210        33
25.220        47
25.230        13
25.240        20
25.250        13
25.260        47
25.270        27
25.280         7
25.290        87
25.300        27
25.310        53
25.320        67
25.330        33
25.340        60
25.350        33
25.360        73
25.370        27
25.380        53
25.390        27
25.400        47
25.410        87
25.420        53
25.430        47
25.440        47
25.450        40
25.460        60
25.470       100
25.480        93
25.490       193
25.500       187
25.510       133
25.520       200
25.530       173
25.540       280
25.550       227
25.560       200
25.570       260
25.580       253
25.590       307
25.600       360
25.610       513
25.620       520
25.630       480
25.640       420
25.650       460
25.660       440
25.670       340
25.680       287
25.690       413
25.700       207
25.710       207
25.720       173
25.730       113
25.740        87
25.750        47
25.760        73
25.770        60
25.780        40
25.790        53
25.800        40
25.810        27
25.820        20
25.830        47
25.840        33
25.850        27
25.860        20
25.870        40
25.880        20
25.890        33
25.900        73
25.910        33
25.920        53
25.930        67
25.940        47
25.950        40
25.960        47
25.970        47
25.980         7
25.990        33
26.000        40
26.010        47
26.020        60
26.030        47
26.040        27
26.050        33
26.060        27
26.070        13
26.080        60
26.090        40
26.100        60
26.110        33
26.120        27
26.130        47
26.140        33
26.150        33
26.160        40
26.170        40
26.180        20
26.190        40
26.200        20
26.210        27
26.220        40
26.230        33
26.240        40
26.250        20
26.260        20
26.270        20
26.280        27
26.290        13
26.300        27
26.310        20
26.320        60
26.330        27
26.340        33
26.350        33
26.360        53
26.370        27
26.380        47
26.390        13
26.400        13
26.410        20
26.420        20
26.430        47
26.440        60
26.450        33
26.460        20
26.470        33
26.480        47
26.490        20
26.500        27
26.510        33
26.520        20
26.530         7
26.540        20
26.550        20
26.560        33
26.570        27
26.580        33
26.590        27
26.600        47
26.610        40
26.620        33
26.630        33
26.640        33
26.650         0
26.660        53
26.670        27
26.680        33
26.690        27
26.700        33
26.710        13
26.720        27
26.730        53
26.740        40
26.750        40
26.760        20
26.770        27
26.780        13
26.790        33
26.800        27
26.810        20
26.820        53
26.830        13
26.840        67
26.850        27
26.860        20
26.870        53
26.880        60
26.890        47
26.900        33
26.910        40
26.920        53
26.930        27
26.940        20
26.950        20
26.960        40
26.970        67
26.980        20
26.990        20
27.000        33
27.010        27
27.020        33
27.030        33
27.040        33
27.050        27
27.060        47
27.070        27
27.080        47
27.090        27
27.100         0
27.110         7
27.120        20
27.130        20
27.140         7
27.150        40
27.160        60
27.170        60
27.180        47
27.190         0
27.200        33
27.210        47
27.220        33
27.230        20
27.240        27
27.250        40
27.260        33
27.270        13
27.280        20
27.290        20
27.300        27
27.310        20
27.320        47
27.330        20
27.340        47
27.350        53
27.360        53
27.370        33
27.380        13
27.390        67
27.400        47
27.410        40
27.420        40
27.430        20
27.440        20
27.450        27
27.460        13
27.470        27
27.480        27
27.490        20
27.500        13
27.510        20
27.520        40
27.530        20
27.540        20
27.550        40
27.560        20
27.570        40
27.580        47
27.590        60
27.600        47
27.610        40
27.620        13
27.630        20
27.640        33
27.650        33
27.660        33
27.670        27
27.680        20
27.690        13
27.700        47
27.710        27
27.720         0
27.730        67
27.740        27
27.750        40
27.760         7
27.770        13
27.780        40
27.790        20
27.800        20
27.810        47
27.820        53
27.830        33
27.840        47
27.850        47
27.860        20
27.870        40
27.880        20
27.890        27
27.900        33
27.910        13
27.920        27
27.930        53
27.940        27
27.950        27
27.960        40
27.970        60
27.980        27
27.990        53
28.000        33
28.010        27
28.020        13
28.030        40
28.040        27
28.050        27
28.060        27
28.070        27
28.080        53
28.090        40
28.100        53
28.110        53
28.120        40
28.130        47
28.140        27
28.150        27
28.160        60
28.170        27
28.180        33
28.190        13
28.200        20
28.210        20
28.220        53
28.230        33
28.240        60
28.250        27
28.260        40
28.270        60
28.280        33
28.290        53
28.300        33
28.310        53
28.320        40
28.330        60
28.340        47
28.350        33
28.360        33
28.370        33
28.380        33
28.390        27
28.400        47
28.410        47
28.420        33
28.430        40
28.440        40
28.450        27
28.460        20
28.470        27
28.480        27
28.490        47
28.500        40
28.510        47
28.520         7
28.530        13
28.540        40
28.550        40
28.560        40
28.570        60
28.580        47
28.590        53
28.600        87
28.610        33
28.620        67
28.630        47
28.640        47
28.650        33
28.660        20
28.670        67
28.680        47
28.690        33
28.700        40
28.710        73
28.720        20
28.730        27
28.740        60
28.750        60
28.760        60
28.770        80
28.780        60
28.790        73
28.800        87
28.810        33
28.820        53
28.830        60
28.840        73
28.850        53
28.860        40
28.870        27
28.880       107
28.890        53
28.900        40
28.910        67
28.920        20
28.930        67
28.940        73
28.950        73
28.960        67
28.970        93
28.980        60
28.990       120
29.000        53
29.010        40
29.020        20
29.030       113
29.040        87
29.050        60
29.060        87
29.070        80
29.080        40
29.090       107
29.100        53
29.110        87
29.120        67
29.130        60
29.140        67
29.150        80
29.160        87
29.170        53
29.180        93
29.190        87
29.200       107
29.210        87
29.220        53
29.230        93
29.240       113
29.250        60
29.260        53
29.270       133
29.280       100
29.290        87
29.300        73
29.310       100
29.320       107
29.330        80
29.340        53
29.350        93
29.360        73
29.370        80
29.380        47
29.390        67
29.400        80
29.410        80
29.420        67
29.430        73
29.440        80
29.450        73
29.460        33
29.470        67
29.480        80
29.490        53
29.500       100
29.510        87
29.520        53
29.530       100
29.540        53
29.550        67
29.560        60
29.570       100
29.580        80
29.590       100
29.600       100
29.610        53
29.620        73
29.630        87
29.640        67
29.650        67
29.660        87
29.670        87
29.680       107
29.690       113
29.700        80
29.710        73
29.720       113
29.730       107
29.740        53
29.750        67
29.760        73
29.770        80
29.780        40
29.790        80
29.800        73
29.810        93
29.820        87
29.830        40
29.840        73
29.850        60
29.860        47
29.870        80
29.880        80
29.890        67
29.900       120
29.910        67
29.920        87
29.930        73
29.940        73
29.950       120
29.960        80
29.970        87
29.980       120
29.990       107
30.000        60
30.010       100
30.020        87
30.030        67
30.040        60
30.050        73
30.060        93
30.070        73
30.080       107
30.090        93
30.100        87
30.110       100
30.120        73
30.130        47
30.140        60
30.150       107
30.160        93
30.170        47
30.180        67
30.190        67
30.200        67
30.210        73
30.220        73
30.230       100
30.240        67
30.250        60
30.260        73
30.270       113
30.280       127
30.290       120
30.300        80
30.310       147
30.320        87
30.330        80
30.340       100
30.350        93
30.360        53
30.370       100
30.380        40
30.390        67
30.400        27
30.410        93
30.420       113
30.430        93
30.440       100
30.450       107
30.460       160
30.470        67
30.480        80
30.490        67
30.500        73
30.510       100
30.520        60
30.530        80
30.540        73
30.550       100
30.560       100
30.570        60
30.580       133
30.590       107
30.600       127
30.610        87
30.620       100
30.630        60
30.640        67
30.650        60
30.660       120
30.670        80
30.680       113
30.690       107
30.700       120
30.710        67
30.720        67
30.730        93
30.740       107
30.750        80
30.760       187
30.770        93
30.780        67
30.790        60
30.800        80
30.810        73
30.820       160
30.830       100
30.840        67
30.850       100
30.860       113
30.870        73
30.880       133
30.890       120
30.900       160
30.910       107
30.920        67
30.930        87
30.940       120
30.950        67
30.960        60
30.970        67
30.980        73
30.990        73
31.000        80
31.010        87
31.020        73
31.030        47
31.040        93
31.050        67
31.060        87
31.070        87
31.080       100
31.090       133
31.100        73
31.110       100
31.120        67
31.130        80
31.140        53
31.150        87
31.160        67
31.170        80
31.180        60
31.190        93
31.200        87
31.210       113
31.220       100
31.230       140
31.240       100
31.250        33
31.260        67
31.270        93
31.280        87
31.290       100
31.300       127
31.310        93
31.320        87
31.330        87
31.340        80
31.350       100
31.360        73
31.370       100
31.380       160
31.390        87
31.400       100
31.410       120
31.420       100
31.430        60
31.440       113
31.450       127
31.460       127
31.470       120
31.480       107
31.490        67
31.500       167
31.510       120
31.520       120
31.530       113
31.540       133
31.550       100
31.560       120
31.570       107
31.580       100
31.590       127
31.600       120
31.610       133
31.620       160
31.630       207
31.640       140
31.650       180
31.660       200
31.670       160
31.680       147
31.690       107
31.700       147
31.710       167
31.720       153
31.730       167
31.740       127
31.750       113
31.760       187
31.770       193
31.780       193
31.790        80
31.800       153
31.810       153
31.820       120
31.830       180
31.840       120
31.850       213
31.860       147
31.870       133
31.880       153
31.890       147
31.900       160
31.910       127
31.920       113
31.930        87
31.940        80
31.950        80
31.960       167
31.970        60
31.980       100
31.990       107
32.000        67
32.010        80
32.020       133
32.030       160
32.040       107
32.050        73
32.060       113
32.070       120
32.080        80
32.090        80
32.100        87
32.110        53
32.120        93
32.130        93
32.140       120
32.150       100
32.160       133
32.170        60
32.180        80
32.190        73
32.200        80
32.210        87
32.220        87
32.230        73
32.240        87
32.250        73
32.260        80
32.270       120
32.280        73
32.290        87
32.300        60
32.310        60
32.320        67
32.330        47
32.340        73
32.350        93
32.360        67
32.370        67
32.380       107
32.390       100
32.400       133
32.410       113
32.420        53
32.430        47
32.440       120
32.450       107
32.460        33
32.470        87
32.480        87
32.490        87
32.500        60
32.510        87
32.520       100
32.530        80
32.540       100
32.550        60
32.560        87
32.570        60
32.580        67
32.590        67
32.600       120
32.610        60
32.620        67
32.630        60
32.640        73
32.650        80
32.660        73
32.670        67
32.680        67
32.690        67
32.700        27
32.710        33
32.720        60
32.730        87
32.740        53
32.750        73
32.760        87
32.770        40
32.780        67
32.790        60
32.800        60
32.810        80
32.820        40
32.830        87
32.840        53
32.850        33
32.860        67
32.870        87
32.880        53
32.890        87
32.900       107
32.910        67
32.920        67
32.930        73
32.940        80
32.950        80
32.960        53
32.970        60
32.980        87
32.990        73
33.000        67
33.010        67
33.020       107
33.030        60
33.040        60
33.050        60
33.060        60
33.070        53
33.080       127
33.090        80
33.100        33
33.110        73
33.120        87
33.130        60
33.140        87
33.150        73
33.160        73
33.170       100
33.180        73
33.190        47
33.200       107
33.210        80
33.220        87
33.230        53
33.240        67
33.250        60
33.260        87
33.270        53
33.280        53
33.290        47
33.300        47
33.310        80
33.320        73
33.330        67
33.340        53
33.350        93
33.360        87
33.370        67
33.380        80
33.390        53
33.400        40
33.410        87
33.420        53
33.430        80
33.440       107
33.450        67
33.460        47
33.470        60
33.480        80
33.490        67
33.500        73
33.510        53
33.520        67
33.530        80
33.540        60
33.550        87
33.560        53
33.570        53
33.580        47
33.590        40
33.600        87
33.610        60
33.620        53
33.630        47
33.640        67
33.650        80
33.660        33
33.670        87
33.680        73
33.690        73
33.700        13
33.710        93
33.720        53
33.730        53
33.740        60
33.750        87
33.760        40
33.770        47
33.780        47
33.790        40
33.800        33
33.810        40
33.820        80
33.830        67
33.840        80
33.850        73
33.860        47
33.870        60
33.880        67
33.890        80
33.900        20
33.910        67
33.920        40
33.930        40
33.940        33
33.950        33
33.960        80
33.970        40
33.980        20
33.990        53
34.000        53
34.010        60
34.020        67
34.030        93
34.040        53
34.050        80
34.060        80
34.070        53
34.080        47
34.090       120
34.100        47
34.110        53
34.120       100
34.130        73
34.140        67
34.150        33
34.160        93
34.170        60
34.180        40
34.190        47
34.200        47
34.210        53
34.220        40
34.230        80
34.240        40
34.250        40
34.260        53
34.270        73
34.280        33
34.290        67
34.300        67
34.310        47
34.320        53
34.330        40
34.340        67
34.350        53
34.360        67
34.370        60
34.380        73
34.390        47
34.400        47
34.410        47
34.420        60
34.430        60
34.440        93
34.450        40
34.460        47
34.470        67
34.480        40
34.490        53
34.500        53
34.510        60
34.520        53
34.530        40
34.540        53
34.550        47
34.560        93
34.570        53
34.580        67
34.590        53
34.600        60
34.610        40
34.620        40
34.630        47
34.640        80
34.650        53
34.660        40
34.670        33
34.680        47
34.690        67
34.700        67
34.710        67
34.720        47
34.730        40
34.740        33
34.750        60
34.760        60
34.770        60
34.780        33
34.790        60
34.800        47
34.810        60
34.820        93
34.830        53
34.840       120
34.850        40
34.860        47
34.870        87
34.880        60
34.890        53
34.900        53
34.910        53
34.920        53
34.930        87
34.940        60
34.950        60
34.960        60
34.970        60
34.980        67
34.990        40
35.000        60
35.010        47
35.020        47
35.030        73
35.040        47
35.050        53
35.060        67
35.070        67
35.080        13
35.090        20
35.100        53
35.110        53
35.120        53
35.130        80
35.140        27
35.150        33
35.160        73
35.170        47
35.180        60
35.190        40
35.200        73
35.210        47
35.220        27
35.230        40
35.240        73
35.250        47
35.260        40
35.270        60
35.280        40
35.290        40
35.300        40
35.310        53
35.320        27
35.330        80
35.340        67
35.350        53
35.360        33
35.370        53
35.380        40
35.390        27
35.400        27
35.410        53
35.420        53
35.430        53
35.440        33
35.450        33
35.460        47
35.470        67
35.480        33
35.490        80
35.500        60
35.510        73
35.520        73
35.530        60
35.540        67
35.550        73
35.560        53
35.570        80
35.580        27
35.590        40
35.600        67
35.610        47
35.620        40
35.630        47
35.640        47
35.650        33
35.660        80
35.670        60
35.680        47
35.690       107
35.700        93
35.710        73
35.720        47
35.730        67
35.740        80
35.750        40
35.760        20
35.770        47
35.780        33
35.790        53
35.800        47
35.810        47
35.820        53
35.830        13
35.840        40
35.850        60
35.860        27
35.870        33
35.880        53
35.890        53
35.900        20
35.910        47
35.920        47
35.930        27
35.940        53
35.950        53
35.960        60
35.970        53
35.980        53
35.990        33
36.000        47
36.010        47
36.020        60
36.030        47
36.040        47
36.050        33
36.060        13
36.070        47
36.080        80
36.090        33
36.100        40
36.110        47
36.120        40
36.130        73
36.140        13
36.150        60
36.160        53
36.170        20
36.180        40
36.190        40
36.200        53
36.210        20
36.220        33
36.230        47
36.240        33
36.250        33
36.260        60
36.270        33
36.280        47
36.290         0
36.300        33
36.310        40
36.320        40
36.330         0
36.340        60
36.350        33
36.360        27
36.370        60
36.380        33
36.390        47
36.400        53
36.410        33
36.420        33
36.430        53
36.440        73
36.450        47
36.460        60
36.470        40
36.480        47
36.490        40
36.500        27
36.510        33
36.520        33
36.530        47
36.540        20
36.550        27
36.560        80
36.570        53
36.580        40
36.590        33
36.600        33
36.610        73
36.620        60
36.630        33
36.640        13
36.650        33
36.660        53
36.670        47
36.680        27
36.690        27
36.700        47
36.710        80
36.720        20
36.730        80
36.740        40
36.750        47
36.760        53
36.770        60
36.780        53
36.790        33
36.800        47
36.810        47
36.820        40
36.830        27
36.840        33
36.850        60
36.860        40
36.870        47
36.880        13
36.890        33
36.900        40
36.910        40
36.920        40
36.930        33
36.940        27
36.950        33
36.960        20
36.970        47
36.980        67
36.990        53
37.000        33
37.010        27
37.020        73
37.030        20
37.040        40
37.050        27
37.060        33
37.070        53
37.080        33
37.090        53
37.100        47
37.110        60
37.120        47
37.130        33
37.140        40
37.150        47
37.160        60
37.170        20
37.180        40
37.190        47
37.200         7
37.210        40
37.220        20
37.230        40
37.240        40
37.250        60
37.260        47
37.270        67
37.280        60
37.290        73
37.300        47
37.310        27
37.320        27
37.330        27
37.340       107
37.350        40
37.360        67
37.370        27
37.380        27
37.390        40
37.400        40
37.410        53
37.420        73
37.430        47
37.440        40
37.450        33
37.460       113
37.470        47
37.480        20
37.490        27
37.500        47
37.510        20
37.520        47
37.530        53
37.540        60
37.550        47
37.560        47
37.570        40
37.580        53
37.590        47
37.600        13
37.610        47
37.620        47
37.630        27
37.640        53
37.650        73
37.660        40
37.670        27
37.680        20
37.690        47
37.700        47
37.710        53
37.720        27
37.730        73
37.740        40
37.750        20
37.760        40
37.770        40
37.780        33
37.790        87
37.800        33
37.810        40
37.820        27
37.830        27
37.840        40
37.850        93
37.860        40
37.870        33
37.880        33
37.890        47
37.900        13
37.910        20
37.920        47
37.930        40
37.940        47
37.950        33
37.960        73
37.970        53
37.980        20
37.990        53
38.000        47
38.010        40
38.020        20
38.030        27
38.040        60
38.050        33
38.060        47
38.070        33
38.080        20
38.090        80
38.100        40
38.110        20
38.120        40
38.130        60
38.140        33
38.150        13
38.160        40
38.170        33
38.180        33
38.190        33
38.200        33
38.210        40
38.220        27
38.230        47
38.240        27
38.250        33
38.260        33
38.270        33
38.280        33
38.290        20
38.300        40
38.310        33
38.320        27
38.330        33
38.340        53
38.350        33
38.360        33
38.370        33
38.380        40
38.390        33
38.400        47
38.410        27
38.420       107
38.430        53
38.440        33
38.450        27
38.460        27
38.470        27
38.480        47
38.490        27
38.500        40
38.510        47
38.520        47
38.530        33
38.540        47
38.550        47
38.560        40
38.570        27
38.580        53
38.590        33
38.600        53
38.610         7
38.620        27
38.630        60
38.640        53
38.650        33
38.660        40
38.670        13
38.680        53
38.690        33
38.700        53
38.710        33
38.720        40
38.730        53
38.740        53
38.750        27
38.760        40
38.770        73
38.780        27
38.790        47
38.800        40
38.810        20
38.820        47
38.830        60
38.840        33
38.850        53
38.860        27
38.870        33
38.880        40
38.890        67
38.900        53
38.910        47
38.920        40
38.930        33
38.940        47
38.950        47
38.960        27
38.970        47
38.980        13
38.990        27
39.000        53
39.010        73
39.020        87
39.030        47
39.040        13
39.050        47
39.060        33
39.070        47
39.080        67
39.090        87
39.100        80
39.110        67
39.120        87
39.130        47
39.140        80
39.150        73
39.160        67
39.170        33
39.180        87
39.190        47
39.200        87
39.210        73
39.220        80
39.230       100
39.240        67
39.250       100
39.260       107
39.270        73
39.280        93
39.290       147
39.300       147
39.310       100
39.320       140
39.330       113
39.340       193
39.350       113
39.360       180
39.370       160
39.380       207
39.390       213
39.400       187
39.410       140
39.420       140
39.430       147
39.440       147
39.450       173
39.460       160
39.470       167
39.480       147
39.490        93
39.500        80
39.510        87
39.520       107
39.530       100
39.540       100
39.550        73
39.560        93
39.570        73
39.580        53
39.590        80
39.600        53
39.610       127
39.620        80
39.630        60
39.640        87
39.650        87
39.660        47
39.670        40
39.680        40
39.690        60
39.700        73
39.710        27
39.720        40
39.730        47
39.740        40
39.750        20
39.760        40
39.770        40
39.780        53
39.790        40
39.800        73
39.810        33
39.820        80
39.830        47
39.840        53
39.850        33
39.860        33
39.870        53
39.880        47
39.890        40
39.900        40
39.910        47
39.920        47
39.930        33
39.940        60
39.950        67
39.960        13
39.970        53
39.980        67
39.990        40
40.000        93
40.010        47
40.020        27
40.030        20
40.040        27
40.050        47
40.060         7
40.070        60
40.080        93
40.090        13
40.100        47
40.110        47
40.120        33
40.130        27
40.140        47
40.150        20
40.160        33
40.170        27
40.180        60
40.190        47
40.200        40
40.210        27
40.220        73
40.230        20
40.240        40
40.250        47
40.260        33
40.270        40
40.280        27
40.290        27
40.300        53
40.310        53
40.320        20
40.330        40
40.340        40
40.350        20
40.360        53
40.370        27
40.380        53
40.390        27
40.400        20
40.410        60
40.420        13
40.430        33
40.440        60
40.450        20
40.460        40
40.470        13
40.480        33
40.490        20
40.500        53
40.510        47
40.520        20
40.530        33
40.540        33
40.550        27
40.560        33
40.570        47
40.580        20
40.590         0
40.600        27
40.610        27
40.620        33
40.630        20
40.640        33
40.650        53
40.660        33
40.670        33
40.680        33
40.690        67
40.700        20
40.710        60
40.720        33
40.730        27
40.740        33
40.750        33
40.760        27
40.770        47
40.780        27
40.790        40
40.800        33
40.810        40
40.820        20
40.830        67
40.840        13
40.850        60
40.860        27
40.870        73
40.880        27
40.890        33
40.900        13
40.910        27
40.920        40
40.930        27
40.940         7
40.950        33
40.960        40
40.970        33
40.980        20
40.990        47
41.000        60
41.010        13
41.020        33
41.030        40
41.040        40
41.050        33
41.060        40
41.070        20
41.080        33
41.090        40
41.100        47
41.110        27
41.120        53
41.130        27
41.140        13
41.150        33
41.160        33
41.170        53
41.180        20
41.190        60
41.200        33
41.210        20
41.220        60
41.230        20
41.240        60
41.250        33
41.260        13
41.270         7
41.280        73
41.290         7
41.300        60
41.310        40
41.320        13
41.330        40
41.340        53
41.350        40
41.360        27
41.370        20
41.380        53
41.390        33
41.400        20
41.410        67
41.420        33
41.430        67
41.440        53
41.450        40
41.460        60
41.470        27
41.480        53
41.490        20
41.500        53
41.510        47
41.520        47
41.530        40
41.540        33
41.550        40
41.560        33
41.570        33
41.580        27
41.590        40
41.600        20
41.610        33
41.620        47
41.630        60
41.640        13
41.650        60
41.660        20
41.670         7
41.680        40
41.690        33
41.700        40
41.710        33
41.720        33
41.730        60
41.740        40
41.750        40
41.760        20
41.770        27
41.780        27
41.790        13
41.800        40
41.810        67
41.820        20
41.830        27
41.840        27
41.850        27
41.860        13
41.870        33
41.880        40
41.890        40
41.900        20
41.910        40
41.920        20
41.930        60
41.940        20
41.950        53
41.960        40
41.970        27
41.980        40
41.990        47
42.000        27
42.010        47
42.020        40
42.030        60
42.040        40
42.050        27
42.060        20
42.070        53
42.080        13
42.090        40
42.100        13
42.110        13
42.120        40
42.130        60
42.140        33
42.150        27
42.160        27
42.170        40
42.180        40
42.190        27
42.200        60
42.210        47
42.220        20
42.230        33
42.240        47
42.250         7
42.260        33
42.270        33
42.280        33
42.290        27
42.300        27
42.310        40
42.320        33
42.330        40
42.340        27
42.350        27
42.360        53
42.370        80
42.380        20
42.390        47
42.400        67
42.410        27
42.420        20
42.430        40
42.440        20
42.450        53
42.460        20
42.470        13
42.480        33
42.490        53
42.500        20
42.510        27
42.520        13
42.530        40
42.540        33
42.550        33
42.560        33
42.570        73
42.580         7
42.590        33
42.600        53
42.610        47
42.620        13
42.630        33
42.640        40
42.650        27
42.660        40
42.670         7
42.680        27
42.690        13
42.700        27
42.710        60
42.720        40
42.730        53
42.740        20
42.750        33
42.760        40
42.770        33
42.780        33
42.790        80
42.800        40
42.810        33
42.820        40
42.830        53
42.840        47
42.850        33
42.860        13
42.870        53
42.880        40
42.890        47
42.900        47
42.910        47
42.920        60
42.930        53
42.940        47
42.950        33
42.960        27
42.970        47
42.980        60
42.990        13
43.000        40
43.010        33
43.020        80
43.030        20
43.040        47
43.050        47
43.060        20
43.070         7
43.080        53
43.090        40
43.100        33
43.110        67
43.120        13
43.130        40
43.140        40
43.150        33
43.160        73
43.170        13
43.180        40
43.190        27
43.200        20
43.210        13
43.220        20
43.230        20
43.240        33
43.250        47
43.260        33
43.270        40
43.280        27
43.290        20
43.300        33
43.310        13
43.320        53
43.330        33
43.340        67
43.350        27
43.360         7
43.370        40
43.380        20
43.390        33
43.400        20
43.410        53
43.420        20
43.430        33
43.440        13
43.450        13
43.460        40
43.470        40
43.480        27
43.490        33
43.500        40
43.510        27
43.520         7
43.530        47
43.540        33
43.550        33
43.560        47
43.570        27
43.580        40
43.590        27
43.600        27
43.610        27
43.620        40
43.630        20
43.640        53
43.650        27
43.660        27
43.670        27
43.680        33
43.690        33
43.700        40
43.710        27
43.720        53
43.730        53
43.740        27
43.750         7
43.760        60
43.770        40
43.780        33
43.790        80
43.800        33
43.810        20
43.820        47
43.830        40
43.840        47
43.850        60
43.860        33
43.870        20
43.880        40
43.890        47
43.900        73
43.910        67
43.920        33
43.930        13
43.940        33
43.950        40
43.960        67
43.970        33
43.980        33
43.990        53
44.000        53
44.010        40
44.020        53
44.030        27
44.040        40
44.050        47
44.060        73
44.070        20
44.080        40
44.090        13
44.100        27
44.110        20
44.120        67
44.130        53
44.140        20
44.150        73
44.160        33
44.170        27
44.180        60
44.190        33
44.200        27
44.210        40
44.220        33
44.230        27
44.240        33
44.250        27
44.260        20
44.270        20
44.280        20
44.290        40
44.300        47
44.310        53
44.320         7
44.330        27
44.340        47
44.350        27
44.360        60
44.370        47
44.380        33
44.390        27
44.400        60
44.410        60
44.420        13
44.430        27
44.440        53
44.450        40
44.460        27
44.470        80
44.480        47
44.490        27
44.500        47
44.510        47
44.520        27
44.530        33
44.540        40
44.550        47
44.560        40
44.570        40
44.580        53
44.590        60
44.600        47
44.610        33
44.620        20
44.630        53
44.640        73
44.650        40
44.660        40
44.670        33
44.680        53
44.690        47
44.700        60
44.710        27
44.720        47
44.730        60
44.740        47
44.750        33
44.760        60
44.770        60
44.780        40
44.790        40
44.800        40
44.810        53
44.820        27
44.830        40
44.840         7
44.850        20
44.860        47
44.870        73
44.880        27
44.890        53
44.900        67
44.910        60
44.920        47
44.930        40
44.940        40
44.950        40
44.960        47
44.970        60
44.980        53
44.990        67
45.000        73
45.010        53
45.020        47
45.030        40
45.040        33
45.050        80
45.060        67
45.070        60
45.080        47
45.090        80
45.100       107
45.110        40
45.120        80
45.130        60
45.140       113
45.150        60
45.160        60
45.170        87
45.180        87
45.190       100
45.200        47
45.210        73
45.220       100
45.230       113
45.240       100
45.250        73
45.260        87
45.270       100
45.280        93
45.290        87
45.300       133
45.310        73
45.320       120
45.330        93
45.340       147
45.350        80
45.360       120
45.370       113
45.380       113
45.390        93
45.400       167
45.410       127
45.420       167
45.430       120
45.440       100
45.450       133
45.460       167
45.470       187
45.480       127
45.490       153
45.500       220
45.510       153
45.520       240
45.530       220
45.540       147
45.550       260
45.560       247
45.570       187
45.580       187
45.590       200
45.600       160
45.610       187
45.620       233
45.630       220
45.640       207
45.650       253
45.660       273
45.670       187
45.680       187
45.690       287
45.700       193
45.710       240
45.720       173
45.730       260
45.740       200
45.750       220
45.760       280
45.770       240
45.780       260
45.790       193
45.800       260
45.810       187
45.820       213
45.830       173
45.840       200
45.850       160
45.860        93
45.870       107
45.880       167
45.890       133
45.900       167
45.910       120
45.920       153
45.930       147
45.940       100
45.950       127
45.960       113
45.970       140
45.980        93
45.990       113
46.000        80
46.010        93
46.020        93
46.030       107
46.040        60
46.050        40
46.060       107
46.070        87
46.080       100
46.090        87
46.100        67
46.110        47
46.120       100
46.130        73
46.140        67
46.150        73
46.160       113
46.170       100
46.180        60
46.190        80
46.200        53
46.210        60
46.220        27
46.230        67
46.240        87
46.250        60
46.260        80
46.270       107
46.280        47
46.290        47
46.300        67
46.310        53
46.320       107
46.330        53
46.340        80
46.350        53
46.360        53
46.370        93
46.380        53
46.390        47
46.400        40
46.410        80
46.420        53
46.430        33
46.440        67
46.450        73
46.460        73
46.470        53
46.480        33
46.490        60
46.500        53
46.510        60
46.520       133
46.530        20
46.540        40
46.550        53
46.560        67
46.570        53
46.580        13
46.590        53
46.600        40
46.610        60
46.620        33
46.630       100
46.640        33
46.650        47
46.660        47
46.670        33
46.680        27
46.690        40
46.700        47
46.710        53
46.720        80
46.730        47
46.740        73
46.750        47
46.760        20
46.770        40
46.780        73
46.790        73
46.800        87
46.810        27
46.820        80
46.830        67
46.840        20
46.850        73
46.860        67
46.870        87
46.880        53
46.890        40
46.900        67
46.910        33
46.920        60
46.930        40
46.940        53
46.950        47
46.960        80
46.970        67
46.980        73
46.990        60
47.000        33
47.010        40
47.020        73
47.030        87
47.040        80
47.050        87
47.060        67
47.070        80
47.080        80
47.090       107
47.100       160
47.110       287
47.120       147
47.130       160
47.140       387
47.150       460
47.160       500
47.170       460
47.180       540
47.190       586
47.200       466
47.210       453
47.220       353
47.230       367
47.240       147
47.250       173
47.260       147
47.270       100
47.280        93
47.290       147
47.300        73
47.310        67
47.320       100
47.330        67
47.340        60
47.350       100
47.360        80
47.370        93
47.380        73
47.390        33
47.400        60
47.410        20
47.420        67
47.430        40
47.440       107
47.450        80
47.460        60
47.470        60
47.480        27
47.490        60
47.500        47
47.510        53
47.520        87
47.530        67
47.540        87
47.550        27
47.560        33
47.570        60
47.580        60
47.590        27
47.600        33
47.610        33
47.620        47
47.630        47
47.640        67
47.650        40
47.660        40
47.670        93
47.680        47
47.690        53
47.700        47
47.710        40
47.720        47
47.730        60
47.740        27
47.750        73
47.760        47
47.770        33
47.780        40
47.790        60
47.800        27
47.810        20
47.820        60
47.830        67
47.840        33
47.850        20
47.860        40
47.870        47
47.880        33
47.890        33
47.900        47
47.910        47
47.920        47
47.930        40
47.940        60
47.950        33
47.960        27
47.970        47
47.980        40
47.990        27
48.000        33
48.010        53
48.020         7
48.030        67
48.040        27
48.050        40
48.060        53
48.070        53
48.080        47
48.090        13
48.100        47
48.110        47
48.120        53
48.130        47
48.140        47
48.150        13
48.160        33
48.170        80
48.180        60
48.190        67
48.200        33
48.210        13
48.220        60
48.230        40
48.240        40
48.250        27
48.260       100
48.270        40
48.280        67
48.290        60
48.300        87
48.310        67
48.320        27
48.330        40
48.340        27
48.350        60
48.360        73
48.370        33
48.380        73
48.390        27
48.400        87
48.410        20
48.420        40
48.430        87
48.440        27
48.450        67
48.460        53
48.470        27
48.480        40
48.490        47
48.500        47
48.510        47
48.520        40
48.530        33
48.540        53
48.550        33
48.560        47
48.570        47
48.580        20
48.590        40
48.600        40
48.610        33
48.620        47
48.630        33
48.640        60
48.650        60
48.660        60
48.670        33
48.680        87
48.690        40
48.700        40
48.710        53
48.720        27
48.730        33
48.740        27
48.750        47
48.760        47
48.770        40
48.780        60
48.790        27
48.800        27
48.810        27
48.820        60
48.830        27
48.840        27
48.850        27
48.860        60
48.870        20
48.880        53
48.890        40
48.900        73
48.910        60
48.920        47
48.930        40
48.940        60
48.950        87
48.960        33
48.970        60
48.980        40
48.990        20
49.000        33
49.010        53
49.020        13
49.030        40
49.040         7
49.050        20
49.060        47
49.070        40
49.080        73
49.090        60
49.100        20
49.110        33
49.120        27
49.130        40
49.140        40
49.150        40
49.160        33
49.170        60
49.180        40
49.190        40
49.200        13
49.210        20
49.220        33
49.230        73
49.240        40
49.250        20
49.260        20
49.270        40
49.280        40
49.290        33
49.300        27
49.310        40
49.320        53
49.330        33
49.340        47
49.350        60
49.360        60
49.370        53
49.380        60
49.390        40
49.400        53
49.410        20
49.420         7
49.430        13
49.440        47
49.450        27
49.460        47
49.470        47
49.480        67
49.490        47
49.500        20
49.510        40
49.520        60
49.530        33
49.540        27
49.550        60
49.560        33
49.570        47
49.580        33
49.590        33
49.600        40
49.610        40
49.620        67
49.630        40
49.640        53
49.650        40
49.660        33
49.670        60
49.680        40
49.690        13
49.700        40
49.710         7
49.720        20
49.730        47
49.740       100
49.750        47
49.760        40
49.770        53
49.780        13
49.790        73
49.800        60
49.810        20
49.820        53
49.830        27
49.840        33
49.850        33
49.860         7
49.870        47
49.880        27
49.890        47
49.900        47
49.910        27
49.920         7
49.930        47
49.940        40
49.950        33
49.960        60
49.970        33
49.980        40
49.990        60
50.000        40
50.010        20
50.020        67
50.030        40
50.040        20
50.050        27
50.060        33
50.070        47
50.080        53
50.090        13
50.100        27
50.110         0
50.120        53
50.130        60
50.140        33
50.150        40
50.160        33
50.170        27
50.180        13
50.190        13
50.200        87
50.210        67
50.220        40
50.230        53
50.240        20
50.250        40
50.260        27
50.270        33
50.280        33
50.290        33
50.300        67
50.310        53
50.320        33
50.330        40
50.340        53
50.350        73
50.360        40
50.370        27
50.380        47
50.390        33
50.400         7
50.410        47
50.420        53
50.430        60
50.440        53
50.450        33
50.460        27
50.470        40
50.480        27
50.490        60
50.500        60
50.510        27
50.520        60
50.530        27
50.540        53
50.550        40
50.560        60
50.570        40
50.580        40
50.590        67
50.600        47
50.610        53
50.620        73
50.630        60
50.640       107
50.650        87
50.660       113
50.670       160
50.680       100
50.690       107
50.700       133
50.710       127
50.720       260
50.730       147
50.740       127
50.750       113
50.760       200
50.770       180
50.780       153
50.790       113
50.800       120
50.810       153
50.820       153
50.830        93
50.840       100
50.850       113
50.860       160
50.870       140
50.880       127
50.890       153
50.900       180
50.910       173
50.920       147
50.930       133
50.940       140
50.950       100
50.960       100
50.970       153
50.980       127
50.990       127
51.000       193
51.010       133
51.020       147
51.030       147
51.040       173
51.050       153
51.060       113
51.070       187
51.080       187
51.090       173
51.100       120
51.110       167
51.120       133
51.130       173
51.140       133
51.150       167
51.160       147
51.170       193
51.180       193
51.190       133
51.200       107
51.210       200
51.220       173
51.230       167
51.240       107
51.250       147
51.260       167
51.270       100
51.280       133
51.290       207
51.300       120
51.310       107
51.320       173
51.330       127
51.340       160
51.350       180
51.360       200
51.370       113
51.380       113
51.390       167
51.400       160
51.410       147
51.420       140
51.430       113
51.440       160
51.450       153
51.460       133
51.470       147
51.480       140
51.490       120
51.500       140
51.510       200
51.520       173
51.530       227
51.540       100
51.550       160
51.560       207
51.570       180
51.580       120
51.590       133
51.600       173
51.610       140
51.620       153
51.630       213
51.640       207
51.650       160
51.660       147
51.670       160
51.680       160
51.690       107
51.700       220
51.710       173
51.720       187
51.730       213
51.740       187
51.750       240
51.760       160
51.770       207
51.780       187
51.790       187
51.800       153
51.810       140
51.820       200
51.830       107
51.840       173
51.850       173
51.860       173
51.870       173
51.880       140
51.890       160
51.900       200
51.910       213
51.920       167
51.930       153
51.940       173
51.950       193
51.960       240
51.970       213
51.980       260
51.990       247
52.000       287
52.010       180
52.020       153
52.030       220
52.040       233
52.050       253
52.060       173
52.070       293
52.080       227
52.090       213
52.100       320
52.110       200
52.120       240
52.130       267
52.140       187
52.150       200
52.160       133
52.170       227
52.180       313
52.190       240
52.200       260
52.210       320
52.220       307
52.230       407
52.240       327
52.250       387
52.260       473
52.270       613
52.280       693
52.290       693
52.300       646
52.310       786
52.320      1020
52.330       960
52.340      1033
52.350       953
52.360      1313
52.370      1180
52.380      1046
52.390       993
52.400      1113
52.410       966
52.420      1186
52.430      1386
52.440      1566
52.450      1913
52.460      2019
52.470      3072
52.480      3845
52.490      5038
52.500      6711
52.510      9176
52.520     12368
52.530     17153
52.540     25317
52.550     37332
52.560     49967
52.570     58550
52.580     64634
52.590     65494
52.600     61042
52.610     53432
52.620     42556
52.630     30155
52.640     21065
52.650     15580
52.660     12135
52.670     13528
52.680     16760
52.690     22358
52.700     28502
52.710     32700
52.720     35246
52.730     34833
52.740     32620
52.750     28115
52.760     22631
52.770     15887
52.780     10422
52.790      6277
52.800      4525
52.810      3485
52.820      2892
52.830      2626
52.840      2299
52.850      1973
52.860      1833
52.870      1753
52.880      1379
52.890      1373
52.900      1066
52.910       833
52.920       820
52.930       706
52.940       606
52.950       526
52.960       553
52.970       420
52.980       473
52.990       426
53.000       393
53.010       407
53.020       453
53.030       440
53.040       293
53.050       347
53.060       333
53.070       407
53.080       347
53.090       273
53.100       340
53.110       273
53.120       313
53.130       240
53.140       360
53.150       327
53.160       300
53.170       220
53.180       280
53.190       233
53.200       367
53.210       227
53.220       233
53.230       260
53.240       180
53.250       207
53.260       180
53.270       320
53.280       240
53.290       193
53.300       300
53.310       207
53.320       253
53.330       187
53.340       200
53.350       207
53.360       213
53.370       220
53.380       180
53.390       260
53.400       193
53.410       200
53.420       220
53.430       200
53.440       147
53.450       187
53.460       273
53.470       167
53.480       140
53.490       200
53.500       187
53.510       160
53.520       153
53.530       180
53.540       193
53.550       140
53.560       153
53.570       173
53.580       180
53.590       173
53.600       167
53.610       133
53.620       120
53.630       140
53.640       153
53.650       167
53.660       193
53.670       100
53.680       120
53.690       140
53.700       127
53.710       167
53.720       140
53.730       220
53.740       160
53.750       140
53.760       100
53.770       180
53.780       113
53.790       120
53.800       167
53.810       187
53.820       107
53.830       160
53.840       120
53.850       193
53.860       160
53.870       167
53.880       133
53.890       167
53.900       120
53.910       133
53.920       167
53.930       187
53.940       200
53.950       147
53.960       133
53.970        93
53.980       167
53.990       180
54.000       107
54.010       107
54.020       133
54.030       153
54.040       113
54.050        80
54.060       113
54.070        80
54.080       127
54.090       147
54.100       133
54.110       120
54.120       160
54.130       147
54.140       140
54.150       100
54.160       100
54.170       153
54.180       160
54.190       120
54.200       100
54.210       120
54.220       200
54.230       200
54.240       153
54.250       100
54.260       120
54.270       140
54.280        67
54.290       147
54.300       153
54.310        93
54.320       113
54.330       140
54.340       107
54.350       133
54.360       133
54.370       140
54.380       107
54.390       120
54.400       127
54.410       120
54.420       100
54.430       207
54.440       107
54.450       120
54.460       133
54.470        87
54.480       100
54.490        73
54.500       133
54.510       100
54.520        93
54.530       147
54.540       100
54.550        80
54.560       113
54.570        60
54.580       100
54.590       153
54.600       140
54.610       113
54.620       133
54.630       120
54.640        80
54.650       107
54.660        93
54.670        93
54.680       127
54.690       120
54.700       147
54.710        80
54.720       127
54.730       127
54.740       120
54.750        60
54.760       167
54.770        80
54.780        87
54.790        67
54.800       120
54.810       107
54.820       100
54.830        67
54.840        87
54.850       127
54.860        87
54.870        93
54.880       113
54.890       100
54.900       127
54.910        87
54.920        87
54.930       107
54.940        80
54.950       113
54.960       160
54.970       100
54.980       133
54.990       140
55.000       133
55.010       107
55.020        73
55.030       140
55.040        47
55.050       113
55.060       113
55.070       107
55.080       153
55.090        87
55.100        67
55.110        73
55.120       127
55.130        93
55.140        80
55.150       120
55.160        60
55.170        87
55.180        93
55.190       107
55.200        80
55.210       127
55.220       107
55.230       127
55.240       100
55.250        80
55.260       113
55.270       153
55.280        87
55.290       127
55.300        87
55.310        60
55.320        87
55.330       140
55.340       127
55.350       127
55.360       113
55.370       100
55.380        87
55.390        93
55.400       127
55.410        80
55.420        80
55.430        73
55.440       113
55.450       120
55.460       113
55.470       107
55.480       113
55.490       120
55.500       133
55.510       140
55.520       113
55.530       107
55.540        93
55.550        53
55.560        93
55.570       120
55.580       140
55.590        93
55.600        53
55.610       113
55.620        80
55.630        73
55.640        53
55.650        60
55.660        67
55.670        87
55.680       113
55.690       107
55.700        93
55.710        80
55.720        73
55.730        80
55.740        87
55.750       113
55.760        87
55.770       100
55.780       100
55.790       100
55.800       120
55.810        80
55.820        73
55.830        67
55.840        73
55.850        87
55.860       100
55.870        80
55.880        87
55.890       100
55.900       107
55.910        73
55.920       120
55.930        93
55.940        87
55.950        80
55.960        93
55.970        87
55.980        40
55.990        93
56.000        80
56.010       127
56.020        87
56.030        53
56.040        87
56.050        67
56.060        67
56.070        53
56.080       113
56.090       100
56.100       127
56.110        80
56.120        93
56.130       120
56.140       100
56.150       133
56.160        53
56.170        67
56.180        93
56.190        73
56.200        60
56.210       107
56.220        73
56.230        67
56.240        73
56.250       127
56.260       113
56.270        53
56.280        67
56.290       100
56.300        67
56.310        80
56.320        67
56.330        93
56.340       127
56.350        87
56.360        93
56.370       173
56.380       133
56.390        80
56.400        87
56.410       100
56.420       113
56.430       100
56.440        67
56.450        53
56.460        53
56.470       127
56.480        60
56.490        33
56.500        93
56.510       107
56.520        53
56.530        93
56.540        67
56.550       100
56.560       107
56.570       147
56.580       147
56.590       133
56.600        67
56.610       140
56.620        93
56.630       120
56.640       107
56.650        93
56.660        93
56.670        87
56.680        73
56.690        60
56.700       100
56.710        80
56.720       133
56.730        93
56.740        87
56.750        93
56.760        73
56.770       100
56.780       107
56.790       107
56.800        67
56.810       100
56.820        67
56.830       153
56.840       113
56.850        73
56.860        73
56.870       107
56.880       120
56.890       100
56.900        73
56.910        93
56.920        80
56.930       127
56.940       140
56.950       133
56.960       113
56.970       140
56.980        80
56.990       113
57.000       120
57.010        80
57.020        80
57.030       153
57.040       107
57.050        87
57.060       113
57.070       113
57.080        73
57.090       120
57.100        87
57.110        93
57.120        53
57.130        87
57.140        73
57.150        87
57.160       100
57.170       107
57.180       107
57.190       120
57.200        87
57.210        93
57.220       100
57.230       133
57.240        93
57.250       100
57.260        93
57.270        53
57.280        93
57.290        73
57.300        60
57.310        67
57.320        60
57.330        67
57.340       113
57.350       100
57.360        60
57.370        27
57.380        93
57.390        40
57.400        87
57.410       107
57.420       113
57.430        67
57.440        87
57.450       113
57.460        73
57.470        47
57.480        73
57.490        33
57.500       100
57.510        53
57.520        67
57.530       107
57.540        73
57.550       127
57.560        87
57.570        67
57.580        60
57.590        67
57.600        93
57.610        80
57.620        80
57.630        93
57.640        87
57.650        93
57.660        93
57.670        40
57.680        60
57.690        93
57.700       127
57.710        67
57.720        47
57.730        60
57.740        87
57.750        40
57.760        53
57.770        53
57.780        67
57.790        47
57.800        67
57.810        73
57.820        53
57.830       127
57.840       160
57.850        93
57.860        87
57.870        87
57.880       107
57.890        40
57.900        60
57.910        40
57.920        60
57.930        93
57.940        47
57.950        60
57.960        67
57.970       107
57.980        40
57.990       133
58.000       107
58.010       107
58.020        87
58.030        80
58.040        53
58.050        73
58.060        73
58.070        73
58.080       100
58.090        87
58.100        40
58.110        73
58.120        87
58.130        53
58.140        53
58.150        53
58.160        93
58.170        80
58.180        53
58.190        73
58.200        47
58.210        53
58.220        33
58.230       100
58.240        73
58.250        60
58.260        67
58.270        60
58.280        73
58.290        40
58.300        53
58.310        60
58.320        60
58.330        40
58.340        60
58.350        33
58.360        60
58.370        67
58.380        73
58.390       100
58.400        47
58.410        20
58.420        67
58.430        53
58.440        73
58.450        87
58.460        60
58.470        40
58.480       107
58.490        73
58.500       107
58.510        93
58.520       100
58.530        20
58.540        73
58.550        53
58.560        33
58.570       107
58.580        60
58.590        60
58.600        93
58.610        67
58.620        67
58.630       113
58.640        87
58.650        40
58.660        60
58.670        60
58.680        73
58.690        47
58.700        47
58.710        67
58.720        67
58.730        60
58.740        73
58.750        73
58.760        60
58.770        53
58.780        53
58.790        60
58.800        53
58.810        73
58.820        60
58.830        53
58.840        40
58.850        80
58.860       107
58.870        93
58.880       140
58.890        60
58.900        47
58.910       107
58.920        47
58.930        33
58.940        67
58.950        87
58.960        53
58.970        80
58.980       100
58.990        53
59.000        60
59.010       100
59.020        80
59.030        80
59.040        53
59.050        60
59.060        67
59.070        60
59.080        33
59.090        53
59.100        53
59.110        53
59.120       107
59.130        87
59.140        93
59.150        60
59.160        80
59.170        53
59.180        60
59.190        80
59.200        40
59.210        73
59.220        87
59.230        67
59.240        47
59.250        40
59.260        67
59.270        93
59.280        67
59.290        60
59.300        60
59.310        40
59.320        60
59.330        53
59.340        80
59.350        80
59.360        93
59.370        47
59.380        40
59.390        33
59.400       107
59.410        47
59.420        47
59.430        47
59.440        80
59.450        87
59.460        80
59.470        53
59.480        67
59.490        80
59.500        87
59.510        40
59.520        40
59.530        60
59.540       140
59.550        87
59.560        60
59.570        40
59.580        53
59.590        53
59.600        67
59.610        27
59.620        33
59.630        60
59.640        53
59.650        73
59.660        47
59.670        33
59.680        33
59.690        33
59.700        60
59.710        47
59.720        33
59.730        73
59.740        67
59.750        60
59.760        60
59.770        53
59.780        47
59.790        60
59.800        87
59.810        80
59.820        67
59.830        47
59.840        80
59.850        47
59.860        67
59.870        87
59.880        60
59.890        47
59.900        60
59.910        33
59.920        80
59.930        73
59.940        40
59.950        33
59.960        67
59.970        80
59.980        60
59.990        33
60.000        33
