20.000        27
20.010        27
20.020        60
20.030        40
20.040        47
20.050        87
20.060        47
20.070        53
20.080        20
20.090        73
20.100        33
20.110        27
20.120        20
20.130        27
20.140        73
20.150        47
20.160        33
20.170        40
20.180        27
20.190        40
20.200        60
20.210        33
20.220        27
20.230        33
20.240        60
20.250        60
20.260        27
20.270        20
20.280        27
20.290        47
20.300        33
20.310        40
20.320        53
20.330        33
20.340        40
20.350        53
20.360        27
20.370        33
20.380        67
20.390        47
20.400        33
20.410        53
20.420        40
20.430        73
20.440        20
20.450        60
20.460        87
20.470        47
20.480        47
20.490        40
20.500        53
20.510        80
20.520        40
20.530        40
20.540        20
20.550        67
20.560        60
20.570        33
20.580        40
20.590        13
20.600        60
20.610        27
20.620        33
20.630        33
20.640        47
20.650        27
20.660        67
20.670        27
20.680        47
20.690        53
20.700        53
20.710        20
20.720        27
20.730        27
20.740        40
20.750        27
20.760        60
20.770        60
20.780        67
20.790        40
20.800        40
20.810        33
20.820        33
20.830        40
20.840        20
20.850        47
20.860        20
20.870        40
20.880        27
20.890        80
20.900        47
20.910        33
20.920        40
20.930        27
20.940        20
20.950        40
20.960        20
20.970        33
20.980        27
20.990        40
21.000        40
21.010        47
21.020        47
21.030        20
21.040        27
21.050        33
21.060        53
21.070        13
21.080        53
21.090        33
21.100        53
21.110        40
21.120        33
21.130        47
21.140        27
21.150        20
21.160        53
21.170        13
21.180        33
21.190        60
21.200        27
21.210        47
21.220        33
21.230        40
21.240        33
21.250        80
21.260        27
21.270        33
21.280        53
21.290        60
21.300        67
21.310        33
21.320        40
21.330        27
21.340        60
21.350        33
21.360        40
21.370        40
21.380        27
21.390        73
21.400        53
21.410        40
21.420        33
21.430        40
21.440        53
21.450        40
21.460        33
21.470        20
21.480        20
21.490        47
21.500        47
21.510        13
21.520        47
21.530        47
21.540        80
21.550        33
21.560        20
21.570        20
21.580        27
21.590        40
21.600        33
21.610        40
21.620        40
21.630        47
21.640        40
21.650        47
21.660         7
21.670        33
21.680        47
21.690        40
21.700        27
21.710        40
21.720        40
21.730        40
21.740        73
21.750         0
21.760        40
21.770        27
21.780        27
21.790        40
21.800        33
21.810        27
21.820        60
21.830        40
21.840        60
21.850        40
21.860        47
21.870        53
21.880        27
21.890        27
21.900        40
21.910        13
21.920        53
21.930        27
21.940        33
21.950        33
21.960        13
21.970        47
21.980        47
21.990        40
22.000        27
22.010        27
22.020        47
22.030        47
22.040        20
22.050        40
22.060        33
22.070        67
22.080        60
22.090        47
22.100        67
22.110        40
22.120        53
22.130        47
22.140       100
22.150        53
22.160        60
22.170        33
22.180        80
22.190        20
22.200        40
22.210        27
22.220        47
22.230        33
22.240        67
22.250        67
22.260        53
22.270        47
22.280        47
22.290        47
22.300       100
22.310        33
22.320        33
22.330        20
22.340        33
22.350        60
22.360        73
22.370        47
22.380        60
22.390        60
22.400        87
22.410        47
22.420       127
22.430        73
22.440       113
22.450       107
22.460        53
22.470       140
22.480       113
22.490       153
22.500        87
22.510       107
22.520       100
22.530        47
22.540       140
22.550        87
22.560        80
22.570       107
22.580        60
22.590        80
22.600        33
22.610       100
22.620        80
22.630        33
22.640        67
22.650        40
22.660        33
22.670        60
22.680        27
22.690        20
22.700        60
22.710        33
22.720        33
22.730         0
22.740        27
22.750        13
22.760        47
22.770        27
22.780        67
22.790        47
22.800        40
22.810        27
22.820        33
22.830        33
22.840        33
22.850        13
22.860        20
22.870        27
22.880        33
22.890        47
22.900         7
22.910        40
22.920        13
22.930        20
22.940        47
22.950        47
22.960        40
22.970        27
22.980        47
22.990        13
23.000        33
23.010        60
23.020        67
23.030        40
23.040        27
23.050        33
23.060        67
23.070        60
23.080        47
23.090        40
23.100        27
23.110        27
23.120        33
23.130        33
23.140        33
23.150        47
23.160        47
23.170        20
23.180        33
23.190        47
23.200        47
23.210         7
23.220         0
23.230        53
23.240        67
23.250        20
23.260        20
23.270        40
23.280        53
23.290        40
23.300        13
23.310        47
23.320        20
23.330        47
23.340        27
23.350        33
23.360        47
23.370        20
23.380        40
23.390        47
23.400        20
23.410        20
23.420        47
23.430        40
23.440        47
23.450        73
23.460        20
23.470        67
23.480        27
23.490        20
23.500        33
23.510        67
23.520        27
23.530        47
23.540         0
23.550        60
23.560        47
23.570        40
23.580        53
23.590        40
23.600        53
23.610        20
23.620        27
23.630        27
23.640        40
23.650        33
23.660        27
23.670        13
23.680        20
23.690        33
23.700        13
23.710        47
23.720        27
23.730        33
23.740        53
23.750        53
23.760        40
23.770        47
23.780        20
23.790        47
23.800        13
23.810        27
23.820        40
23.830        40
23.840        27
23.850        33
23.860        27
23.870        13
23.880        40
23.890         7
23.900        47
23.910        33
23.920        33
23.930        27
23.940        27
23.950        27
23.960        20
23.970        53
23.980        27
23.990        27
24.000        20
24.010        13
24.020        33
24.030        27
24.040        33
24.050        47
24.060        53
24.070        53
24.080        33
24.090        47
24.100        33
24.110        20
24.120        33
24.130        40
24.140        47
24.150        53
24.160        60
24.170        27
24.180        27
24.190        73
24.200        33
24.210        33
24.220        20
24.230        47
24.240        20
24.250        53
24.260        20
24.270        40
24.280        20
24.290        40
24.300        20
24.310        40
24.320        47
24.330        33
24.340        13
24.350        40
24.360        27
24.370        20
24.380        20
24.390        33
24.400        53
24.410        40
24.420        13
24.430        33
24.440        33
24.450        13
24.460        60
24.470        47
24.480        33
24.490        60
24.500        33
24.510        40
24.520        53
24.530        40
24.540        53
24.550        27
24.560         0
24.570        40
24.580        13
24.590        40
24.600        47
24.610        40
24.620        33
24.630         7
24.640        33
24.650        27
24.660        47
24.670        13
24.680        40
24.690        60
24.700        33
24.710        20
24.720        67
24.730        47
24.740        13
24.750        20
24.760        27
24.770        53
24.780        40
24.790        20
24.800        60
24.810        60
24.820        13
24.830        27
24.840        47
24.850        20
24.860        20
24.870        33
24.880        20
24.890        47
24.900        27
24.910        80
24.920         0
24.930        13
24.940        20
24.950        40
24.960        27
24.970        40
24.980        33
24.990        53
25.000        40
25.010        47
25.020        33
25.030        40
25.040        27
25.050        40
25.060        27
25.070        40
25.080        40
25.090        40
25.100        27
25.110        60
25.120        60
25.130        20
25.140        20
25.150        40
25.160        27
25.170        33
25.180        27
25.190        27
25.200        27
25.210        47
25.220        67
25.230        47
25.240        40
25.250        20
25.260        13
25.270        33
25.280        27
25.290        13
25.300        20
25.310        13
25.320        40
25.330        13
25.340        47
25.350        60
25.360        67
25.370        33
25.380        20
25.390        60
25.400        47
25.410        27
25.420        40
25.430        33
25.440        60
25.450        47
25.460        53
25.470        40
25.480        73
25.490        40
25.500        33
25.510        27
25.520        60
25.530        60
25.540       113
25.550        73
25.560        67
25.570        67
25.580        40
25.590        53
25.600        60
25.610        53
25.620        80
25.630        93
25.640       120
25.650        53
25.660        73
25.670        53
25.680        47
25.690        73
25.700        60
25.710        33
25.720        33
25.730        33
25.740        33
25.750        53
25.760        33
25.770        20
25.780        20
25.790        27
25.800        33
25.810         7
25.820        20
25.830        40
25.840        53
25.850        40
25.860        27
25.870        33
25.880        20
25.890        27
25.900        20
25.910        27
25.920        40
25.930        53
25.940        40
25.950        40
25.960        27
25.970        27
25.980        20
25.990        47
26.000        27
26.010        27
26.020        27
26.030        27
26.040        33
26.050        27
26.060        67
26.070        13
26.080        20
26.090        53
26.100         7
26.110        33
26.120        27
26.130        13
26.140        40
26.150        47
26.160        27
26.170        33
26.180        33
26.190        33
26.200        47
26.210        27
26.220        27
26.230        47
26.240        13
26.250        33
26.260        33
26.270        20
26.280        47
26.290        13
26.300        27
26.310        13
26.320        20
26.330        33
26.340        40
26.350        40
26.360        47
26.370        20
26.380        27
26.390        13
26.400        53
26.410        13
26.420        13
26.430        40
26.440        33
26.450        33
26.460        20
26.470        33
26.480        20
26.490        33
26.500         7
26.510        20
26.520        20
26.530        13
26.540        33
26.550        60
26.560        47
26.570        20
26.580        47
26.590        27
26.600        20
26.610        47
26.620        20
26.630        27
26.640         7
26.650        27
26.660        20
26.670        27
26.680        33
26.690        13
26.700        27
26.710        33
26.720        13
26.730        13
26.740        20
26.750        20
26.760        33
26.770        60
26.780        27
26.790        53
26.800        13
26.810        27
26.820        40
26.830        40
26.840        27
26.850        33
26.860         7
26.870        13
26.880        33
26.890        40
26.900        20
26.910         7
26.920        27
26.930        13
26.940        40
26.950        53
26.960        33
26.970        27
26.980        40
26.990        20
27.000        13
27.010        27
27.020        20
27.030        27
27.040        20
27.050         7
27.060        13
27.070        27
27.080        47
27.090        33
27.100        13
27.110        33
27.120        27
27.130        27
27.140        47
27.150        20
27.160        47
27.170        13
27.180        13
27.190        33
27.200        47
27.210        27
27.220        40
27.230        20
27.240        27
27.250        67
27.260         0
27.270        40
27.280        27
27.290        20
27.300        13
27.310        27
27.320        33
27.330        27
27.340        13
27.350        47
27.360        27
27.370        13
27.380        27
27.390        33
27.400        40
27.410        27
27.420        33
27.430         7
27.440        47
27.450        40
27.460        13
27.470        40
27.480        27
27.490        27
27.500        20
27.510         7
27.520        53
27.530        20
27.540        40
27.550         0
27.560        13
27.570         7
27.580        27
27.590        27
27.600        20
27.610        27
27.620        53
27.630        47
27.640        20
27.650        20
27.660        27
27.670         7
27.680        33
27.690        60
27.700        27
27.710         7
27.720        20
27.730        27
27.740        53
27.750        27
27.760         7
27.770         7
27.780        27
27.790        33
27.800        60
27.810        40
27.820         7
27.830        13
27.840        27
27.850        47
27.860        40
27.870         7
27.880        13
27.890        27
27.900        53
27.910        27
27.920         0
27.930        40
27.940        13
27.950        13
27.960        40
27.970        33
27.980        20
27.990        13
28.000        13
28.010        60
28.020        60
28.030        40
28.040        40
28.050        33
28.060        27
28.070        47
28.080        13
28.090         7
28.100        20
28.110        20
28.120         0
28.130        53
28.140        40
28.150        20
28.160        13
28.170        20
28.180        47
28.190        13
28.200        33
28.210        27
28.220        20
28.230        13
28.240        13
28.250        40
28.260        13
28.270        40
28.280        20
28.290         7
28.300        33
28.310        27
28.320        33
28.330        27
28.340         7
28.350        20
28.360        33
28.370        53
28.380        13
28.390        27
28.400        13
28.410        13
28.420        27
28.430        33
28.440        20
28.450        33
28.460        40
28.470        40
28.480        27
28.490        53
28.500        40
28.510        20
28.520        33
28.530        20
28.540        27
28.550        47
28.560        47
28.570         7
28.580        40
28.590        33
28.600         0
28.610        27
28.620        27
28.630        20
28.640        13
28.650         7
28.660        13
28.670        20
28.680        20
28.690        53
28.700        33
28.710        33
28.720        20
28.730        53
28.740        40
28.750        33
28.760        33
28.770        27
28.780        33
28.790        20
28.800        13
28.810        27
28.820        27
28.830         7
28.840        20
28.850        53
28.860        33
28.870        27
28.880        40
28.890        60
28.900        27
28.910        13
28.920        33
28.930        13
28.940        20
28.950        13
28.960        27
28.970        20
28.980        13
28.990        67
29.000        20
29.010        20
29.020        20
29.030         7
29.040        20
29.050        27
29.060        47
29.070        20
29.080        27
29.090        13
29.100        27
29.110        40
29.120        20
29.130        20
29.140        67
29.150        27
29.160         7
29.170        20
29.180        13
29.190        27
29.200        33
29.210        13
29.220        27
29.230        33
29.240        27
29.250        20
29.260        13
29.270        20
29.280        13
29.290         7
29.300        20
29.310        27
29.320        40
29.330        27
29.340        20
29.350         7
29.360        33
29.370        13
29.380         0
29.390        40
29.400        40
29.410        60
29.420        20
29.430        20
29.440        40
29.450        27
29.460        47
29.470        40
29.480        20
29.490        20
29.500         7
29.510        33
29.520        33
29.530        13
29.540        33
29.550        20
29.560        40
29.570        27
29.580        27
29.590        33
29.600        13
29.610        13
29.620        20
29.630        20
29.640        20
29.650        40
29.660        40
29.670         7
29.680        13
29.690        27
29.700        20
29.710        20
29.720        40
29.730        20
29.740        20
29.750        13
29.760        13
29.770        27
29.780        20
29.790        13
29.800        40
29.810        27
29.820        27
29.830        40
29.840        20
29.850        47
29.860        13
29.870        67
29.880        27
29.890        13
29.900        33
29.910        27
29.920        40
29.930        13
29.940        33
29.950        47
29.960        40
29.970        20
29.980         0
29.990        13
30.000        27
30.010        13
30.020        40
30.030        20
30.040        47
30.050        20
30.060        27
30.070        27
30.080        13
30.090        27
30.100         7
30.110        40
30.120        40
30.130        27
30.140        20
30.150        27
30.160        20
30.170         7
30.180        27
30.190        20
30.200        27
30.210        20
30.220        27
30.230        13
30.240        40
30.250        13
30.260        40
30.270        20
30.280        33
30.290        20
30.300        40
30.310        27
30.320        27
30.330        47
30.340        33
30.350        27
30.360        27
30.370        27
30.380        20
30.390        20
30.400        27
30.410         7
30.420        40
30.430        27
30.440        20
30.450        33
30.460        27
30.470        40
30.480        40
30.490        47
30.500        13
30.510        60
30.520        33
30.530        13
30.540        27
30.550        27
30.560        20
30.570        33
30.580        40
30.590        20
30.600        27
30.610        27
30.620        13
30.630        27
30.640        20
30.650        27
30.660         7
30.670        40
30.680        27
30.690        20
30.700        27
30.710        33
30.720        13
30.730        33
30.740        27
30.750        27
30.760        13
30.770         7
30.780        27
30.790        33
30.800        13
30.810        27
30.820         7
30.830        13
30.840        33
30.850        20
30.860        47
30.870        20
30.880        27
30.890         7
30.900        27
30.910        27
30.920        20
30.930        27
30.940        47
30.950         7
30.960        47
30.970        20
30.980        13
30.990         7
31.000        13
31.010         7
31.020         7
31.030        13
31.040        20
31.050        27
31.060        20
31.070        33
31.080        20
31.090         7
31.100        53
31.110        27
31.120        33
31.130        33
31.140        47
31.150        33
31.160        20
31.170        40
31.180        13
31.190        13
31.200         0
31.210        13
31.220        13
31.230        53
31.240        20
31.250        20
31.260         7
31.270        27
31.280         0
31.290         7
31.300        13
31.310         7
31.320        27
31.330        33
31.340        40
31.350        33
31.360        27
31.370        13
31.380        33
31.390        27
31.400         7
31.410        27
31.420        27
31.430        33
31.440        27
31.450        27
31.460        33
31.470        13
31.480        47
31.490        47
31.500        47
31.510        27
31.520        20
31.530        13
31.540        53
31.550        20
31.560        33
31.570        27
31.580        33
31.590        20
31.600        33
31.610        47
31.620        20
31.630        27
31.640        20
31.650        33
31.660        53
31.670        27
31.680        80
31.690        80
31.700        60
31.710        47
31.720        60
31.730        33
31.740        47
31.750        73
31.760        73
31.770        40
31.780        47
31.790        93
31.800        80
31.810       113
31.820        53
31.830       133
31.840       167
31.850       153
31.860       113
31.870       167
31.880       227
31.890       133
31.900       227
31.910       180
31.920       193
31.930       293
31.940       300
31.950       173
31.960       300
31.970       280
31.980       287
31.990       300
32.000       327
32.010       280
32.020       227
32.030       267
32.040       233
32.050       193
32.060       287
32.070       260
32.080       233
32.090       180
32.100       167
32.110        93
32.120       140
32.130       127
32.140       100
32.150        60
32.160       160
32.170        73
32.180        73
32.190        40
32.200        87
32.210        47
32.220        60
32.230        47
32.240        40
32.250        87
32.260        67
32.270        47
32.280        40
32.290        27
32.300        27
32.310        73
32.320        13
32.330        33
32.340        33
32.350        33
32.360        13
32.370        47
32.380        40
32.390        20
32.400        33
32.410        33
32.420        40
32.430        33
32.440        20
32.450        40
32.460        60
32.470        20
32.480        53
32.490         7
32.500        67
32.510        13
32.520        20
32.530        33
32.540        20
32.550        27
32.560        13
32.570         7
32.580        33
32.590        47
32.600        33
32.610        47
32.620        13
32.630        13
32.640        27
32.650        33
32.660        20
32.670        40
32.680        13
32.690        20
32.700        33
32.710        20
32.720        20
32.730        13
32.740        20
32.750        27
32.760        13
32.770        20
32.780        33
32.790        33
32.800        53
32.810         7
32.820        47
32.830        27
32.840        20
32.850        20
32.860        13
32.870        33
32.880        13
32.890        13
32.900        47
32.910        20
32.920         7
32.930        20
32.940        47
32.950        27
32.960        13
32.970         0
32.980         7
32.990        20
33.000         0
33.010        60
33.020        33
33.030        27
33.040        13
33.050        47
33.060        27
33.070         0
33.080        27
33.090        20
33.100        27
33.110         7
33.120        13
33.130         7
33.140        40
33.150        20
33.160        20
33.170        13
33.180        67
33.190        20
33.200        47
33.210        20
33.220         7
33.230         7
33.240        53
33.250         7
33.260         7
33.270        27
33.280        27
33.290        47
33.300        27
33.310        20
33.320        47
33.330        20
33.340        13
33.350        40
33.360         0
33.370        27
33.380        27
33.390        27
33.400        20
33.410        47
33.420        27
33.430        13
33.440        33
33.450        13
33.460        13
33.470        20
33.480        20
33.490        20
33.500        33
33.510        27
33.520        13
33.530        13
33.540        27
33.550        33
33.560        13
33.570        20
33.580        27
33.590        27
33.600        13
33.610        47
33.620        20
33.630         7
33.640        27
33.650        33
33.660        27
33.670        27
33.680        27
33.690        13
33.700        40
33.710        13
33.720        20
33.730         7
33.740        13
33.750        40
33.760        20
33.770        40
33.780        33
33.790        20
33.800        27
33.810        27
33.820        13
33.830        53
33.840        20
33.850        27
33.860        13
33.870        20
33.880        20
33.890        27
33.900         7
33.910        13
33.920        27
33.930        60
33.940        27
33.950        27
33.960        20
33.970        27
33.980        20
33.990         7
34.000        53
34.010        33
34.020        13
34.030        13
34.040        13
34.050         7
34.060        53
34.070        27
34.080        13
34.090        33
34.100        40
34.110        13
34.120        13
34.130         0
34.140         7
34.150        20
34.160        33
34.170        13
34.180        33
34.190        27
34.200         7
34.210        33
34.220        33
34.230        20
34.240        53
34.250        13
34.260        40
34.270        13
34.280        27
34.290        20
34.300        27
34.310         7
34.320        13
34.330         7
34.340        13
34.350        27
34.360        20
34.370        40
34.380        20
34.390        13
34.400        27
34.410        13
34.420        27
34.430        20
34.440        33
34.450        13
34.460        20
34.470        27
34.480        40
34.490        27
34.500        13
34.510        47
34.520         7
34.530        20
34.540        33
34.550        27
34.560        20
34.570        60
34.580         7
34.590        40
34.600        13
34.610         7
34.620        27
34.630        27
34.640         7
34.650         7
34.660        27
34.670        20
34.680        33
34.690        13
34.700        33
34.710        40
34.720        13
34.730        13
34.740        27
34.750        27
34.760        13
34.770        13
34.780        27
34.790        47
34.800        13
34.810        20
34.820         7
34.830        53
34.840        33
34.850        13
34.860        27
34.870        20
34.880        27
34.890        13
34.900        13
34.910         0
34.920        47
34.930        40
34.940        13
34.950        33
34.960        40
34.970        20
34.980        27
34.990        47
35.000        40
35.010        33
35.020        40
35.030        40
35.040        53
35.050        53
35.060        87
35.070        67
35.080       100
35.090        73
35.100        93
35.110       153
35.120       253
35.130       293
35.140       300
35.150       280
35.160       367
35.170       320
35.180       313
35.190       320
35.200       267
35.210       313
35.220       260
35.230       233
35.240       260
35.250       220
35.260       193
35.270       133
35.280       160
35.290       113
35.300       120
35.310       133
35.320        73
35.330        47
35.340        53
35.350        60
35.360        40
35.370        47
35.380        27
35.390        47
35.400        33
35.410        13
35.420        53
35.430        20
35.440        53
35.450         7
35.460        67
35.470        27
35.480        20
35.490        27
35.500        13
35.510        33
35.520        20
35.530        40
35.540        27
35.550        13
35.560        47
35.570        60
35.580        20
35.590        20
35.600        13
35.610        13
35.620        33
35.630        33
35.640         7
35.650        20
35.660        20
35.670        20
35.680         7
35.690        20
35.700        40
35.710        20
35.720        47
35.730         7
35.740        13
35.750        33
35.760        13
35.770        33
35.780         7
35.790        13
35.800        13
35.810        20
35.820        27
35.830        20
35.840        40
35.850        13
35.860        13
35.870        53
35.880        27
35.890        13
35.900        33
35.910        13
35.920         7
35.930        40
35.940        33
35.950        27
35.960        20
35.970        47
35.980        27
35.990         7
36.000        40
36.010        13
36.020        40
36.030        27
36.040        20
36.050        20
36.060        27
36.070         7
36.080        27
36.090        13
36.100        13
36.110        33
36.120        20
36.130        20
36.140        20
36.150        53
36.160        20
36.170        33
36.180        27
36.190        20
36.200        33
36.210         0
36.220         0
36.230        13
36.240        20
36.250        40
36.260        13
36.270         0
36.280         7
36.290        33
36.300        27
36.310         0
36.320        13
36.330         7
36.340        27
36.350        27
36.360        27
36.370        13
36.380         7
36.390        33
36.400        27
36.410        20
36.420        13
36.430        13
36.440        33
36.450         0
36.460        20
36.470        20
36.480        27
36.490        47
36.500        27
36.510        13
36.520        33
36.530         7
36.540        47
36.550         7
36.560        13
36.570        20
36.580        20
36.590        20
36.600        13
36.610        40
36.620        27
36.630        33
36.640        33
36.650        47
36.660        27
36.670        13
36.680         7
36.690         7
36.700        27
36.710        27
36.720        27
36.730        13
36.740        33
36.750        27
36.760        20
36.770         7
36.780         7
36.790        33
36.800        27
36.810        40
36.820        13
36.830        20
36.840        20
36.850        27
36.860        20
36.870        27
36.880        13
36.890        33
36.900        60
36.910        20
36.920        20
36.930        33
36.940        20
36.950        53
36.960        20
36.970         7
36.980        20
36.990        40
37.000        20
37.010        20
37.020         0
37.030        27
37.040        27
37.050        27
37.060        13
37.070         7
37.080        20
37.090         7
37.100         7
37.110        27
37.120         7
37.130        47
37.140        13
37.150         7
37.160        27
37.170        20
37.180         7
37.190        13
37.200        20
37.210        13
37.220        20
37.230        13
37.240        33
37.250        40
37.260        13
37.270        13
37.280        27
37.290         7
37.300        33
37.310        27
37.320        27
37.330        20
37.340        33
37.350         7
37.360        27
37.370         7
37.380        20
37.390        20
37.400        33
37.410         7
37.420        13
37.430        13
37.440        20
37.450        13
37.460        20
37.470        27
37.480        27
37.490         7
37.500        27
37.510        33
37.520        27
37.530        27
37.540        47
37.550         7
37.560        27
37.570        33
37.580        20
37.590        20
37.600         7
37.610        53
37.620        53
37.630        53
37.640        60
37.650       120
37.660       120
37.670       113
37.680       140
37.690       187
37.700       100
37.710       153
37.720       100
37.730       113
37.740        80
37.750       173
37.760       140
37.770       227
37.780       506
37.790       520
37.800       473
37.810       413
37.820       460
37.830       420
37.840       300
37.850       220
37.860       160
37.870       120
37.880       253
37.890       260
37.900       213
37.910       313
37.920       227
37.930       207
37.940       193
37.950       120
37.960       100
37.970        80
37.980        40
37.990        13
38.000        40
38.010        20
38.020        27
38.030        33
38.040        40
38.050        27
38.060        47
38.070        20
38.080         0
38.090        33
38.100        13
38.110         7
38.120        20
38.130        13
38.140        13
38.150        27
38.160        33
38.170        20
38.180         7
38.190        27
38.200        20
38.210        20
38.220        27
38.230        33
38.240        20
38.250        27
38.260        13
38.270        13
38.280        20
38.290         7
38.300        13
38.310         7
38.320        33
38.330        20
38.340        20
38.350        33
38.360        40
38.370        33
38.380        27
38.390        33
38.400        60
38.410        13
38.420         7
38.430        27
38.440         7
38.450        40
38.460        27
38.470        13
38.480        20
38.490        33
38.500        20
38.510        27
38.520        33
38.530        20
38.540        13
38.550        13
38.560        27
38.570        13
38.580        47
38.590         7
38.600        13
38.610        27
38.620        27
38.630         7
38.640        47
38.650        20
38.660        13
38.670         7
38.680        27
38.690        27
38.700        20
38.710        20
38.720         7
38.730         7
38.740        13
38.750         0
38.760        27
38.770        13
38.780        47
38.790        27
38.800        13
38.810        20
38.820        33
38.830         7
38.840         0
38.850        13
38.860        20
38.870        33
38.880        27
38.890        20
38.900         7
38.910        20
38.920        20
38.930        13
38.940         7
38.950        40
38.960         7
38.970        47
38.980        47
38.990        20
39.000        20
39.010        13
39.020        33
39.030        33
39.040        20
39.050        13
39.060         7
39.070        20
39.080         0
39.090        27
39.100         7
39.110        13
39.120        40
39.130         7
39.140        33
39.150        27
39.160        20
39.170         7
39.180        33
39.190        27
39.200        47
39.210        33
39.220        13
39.230        20
39.240         7
39.250        60
39.260        20
39.270        53
39.280        27
39.290        27
39.300        53
39.310        20
39.320        53
39.330        40
39.340         7
39.350        40
39.360        47
39.370        40
39.380        27
39.390        53
39.400        87
39.410        53
39.420        53
39.430        87
39.440        33
39.450        67
39.460        53
39.470       100
39.480        60
39.490        73
39.500       113
39.510        93
39.520        53
39.530        80
39.540        73
39.550        67
39.560        60
39.570       100
39.580        73
39.590        40
39.600        60
39.610        53
39.620        80
39.630        33
39.640        80
39.650        60
39.660        60
39.670        20
39.680        53
39.690        27
39.700        40
39.710        33
39.720        27
39.730        33
39.740        33
39.750        20
39.760        47
39.770        40
39.780        33
39.790        40
39.800         7
39.810        33
39.820        20
39.830        13
39.840        13
39.850        27
39.860         7
39.870        27
39.880        33
39.890        40
39.900         0
39.910        20
39.920        40
39.930         0
39.940        13
39.950        13
39.960         7
39.970        27
39.980        27
39.990        27
40.000        13
40.010        33
40.020        40
40.030        13
40.040        27
40.050        33
40.060        20
40.070        20
40.080        20
40.090         7
40.100        13
40.110         0
40.120         7
40.130        33
40.140        27
40.150        27
40.160         0
40.170        13
40.180         0
40.190        13
40.200        13
40.210         7
40.220        33
40.230        20
40.240        27
40.250        27
40.260        33
40.270         7
40.280        47
40.290        27
40.300        27
40.310        13
40.320        27
40.330        20
40.340         7
40.350        40
40.360         7
40.370        33
40.380        40
40.390        27
40.400         0
40.410         0
40.420        13
40.430         7
40.440        20
40.450        13
40.460         7
40.470        13
40.480        13
40.490        27
40.500        40
40.510         7
40.520        27
40.530        27
40.540        27
40.550        40
40.560        20
40.570        13
40.580        13
40.590         7
40.600        40
40.610         7
40.620         0
40.630        27
40.640        13
40.650        27
40.660        20
40.670        13
40.680        20
40.690        20
40.700        33
40.710         7
40.720        47
40.730        13
40.740        20
40.750        20
40.760        20
40.770         0
40.780        20
40.790         7
40.800        13
40.810        33
40.820        27
40.830         7
40.840        20
40.850        13
40.860         7
40.870        13
40.880        13
40.890        33
40.900        13
40.910        20
40.920        13
40.930        13
40.940        20
40.950         7
40.960        40
40.970        33
40.980        13
40.990         7
41.000        13
41.010        20
41.020        53
41.030        40
41.040         0
41.050         0
41.060        20
41.070        20
41.080        20
41.090        27
41.100        33
41.110        20
41.120        27
41.130        27
41.140        27
41.150        13
41.160        33
41.170        13
41.180        20
41.190         0
41.200        13
41.210         7
41.220         7
41.230        13
41.240        20
41.250        20
41.260        27
41.270        40
41.280        20
41.290        20
41.300        27
41.310        20
41.320        27
41.330         7
41.340         7
41.350        33
41.360        27
41.370        20
41.380        27
41.390        13
41.400        20
41.410        13
41.420        13
41.430        33
41.440         0
41.450        13
41.460        27
41.470         7
41.480        53
41.490        27
41.500        13
41.510        27
41.520        33
41.530        27
41.540        20
41.550        20
41.560        13
41.570        27
41.580        53
41.590        67
41.600        13
41.610        33
41.620        67
41.630        60
41.640       100
41.650        60
41.660        60
41.670        67
41.680        80
41.690       113
41.700       160
41.710       147
41.720       153
41.730       160
41.740       147
41.750       153
41.760        73
41.770       127
41.780        53
41.790        73
41.800        60
41.810        73
41.820        60
41.830        93
41.840        67
41.850        60
41.860        73
41.870        47
41.880        80
41.890        33
41.900        33
41.910        27
41.920        13
41.930        13
41.940        33
41.950        13
41.960        27
41.970        13
41.980        20
41.990        13
42.000         0
42.010         7
42.020        13
42.030        20
42.040        20
42.050        27
42.060        20
42.070        20
42.080        33
42.090        13
42.100        33
42.110        13
42.120        20
42.130        33
42.140        40
42.150        13
42.160        13
42.170        20
42.180        20
42.190        20
42.200        13
42.210        13
42.220        27
42.230        33
42.240        20
42.250         0
42.260         0
42.270         0
42.280        20
42.290         7
42.300        20
42.310         0
42.320        33
42.330        33
42.340        13
42.350        40
42.360        27
42.370        20
42.380        20
42.390        20
42.400         7
42.410         0
42.420        13
42.430         7
42.440        13
42.450        20
42.460        20
42.470        20
42.480         0
42.490        13
42.500        20
42.510        47
42.520        13
42.530        20
42.540        20
42.550        20
42.560        13
42.570        27
42.580        13
42.590        13
42.600        33
42.610        20
42.620        13
42.630         7
42.640         7
42.650        33
42.660        20
42.670        20
42.680        13
42.690        33
42.700        33
42.710        20
42.720        27
42.730        33
42.740        27
42.750         7
42.760        13
42.770        33
42.780        33
42.790        27
42.800        13
42.810         7
42.820        33
42.830        13
42.840        13
42.850        40
42.860        13
42.870        33
42.880        20
42.890        20
42.900        33
42.910        27
42.920        40
42.930        13
42.940        20
42.950        13
42.960        13
42.970        13
42.980        40
42.990         7
43.000        13
43.010        33
43.020        27
43.030        20
43.040        13
43.050         7
43.060        20
43.070         7
43.080        20
43.090        40
43.100         7
43.110        20
43.120         7
43.130        33
43.140         7
43.150        40
43.160        60
43.170        40
43.180        33
43.190        33
43.200         7
43.210        20
43.220        33
43.230        13
43.240        20
43.250        53
43.260        53
43.270        40
43.280        80
43.290        93
43.300        87
43.310        87
43.320        87
43.330        73
43.340        87
43.350       107
43.360       133
43.370       140
43.380       127
43.390       120
43.400       127
43.410        73
43.420       127
43.430       107
43.440        40
43.450       147
43.460        87
43.470       120
43.480        47
43.490        47
43.500        67
43.510        53
43.520        60
43.530        60
43.540        27
43.550        20
43.560         7
43.570        53
43.580        13
43.590        20
43.600        20
43.610        27
43.620         7
43.630        27
43.640        13
43.650        27
43.660        20
43.670        13
43.680        20
43.690        33
43.700        27
43.710         0
43.720         7
43.730        20
43.740        20
43.750        20
43.760        20
43.770        20
43.780        20
43.790        13
43.800        33
43.810        40
43.820        33
43.830         7
43.840        27
43.850         0
43.860         7
43.870        13
43.880        27
43.890         7
43.900         0
43.910        20
43.920        40
43.930        27
43.940         0
43.950        20
43.960        20
43.970        27
43.980         7
43.990        33
44.000        27
44.010        33
44.020        27
44.030         7
44.040        27
44.050        13
44.060        13
44.070        20
44.080        20
44.090         0
44.100        27
44.110        20
44.120         7
44.130         7
44.140        33
44.150         7
44.160        33
44.170         7
44.180        33
44.190        27
44.200        13
44.210        20
44.220        13
44.230         7
44.240        20
44.250        13
44.260        20
44.270        47
44.280        13
44.290        33
44.300        27
44.310        33
44.320        13
44.330        33
44.340         7
44.350        27
44.360         7
44.370        47
44.380        20
44.390         7
44.400        27
44.410        20
44.420        47
44.430         7
44.440        33
44.450         0
44.460        33
44.470        27
44.480        40
44.490        13
44.500        13
44.510         0
44.520        20
44.530        13
44.540        20
44.550        27
44.560        27
44.570        20
44.580        47
44.590        47
44.600        53
44.610         7
44.620         7
44.630        13
44.640        13
44.650         7
44.660        20
44.670        40
44.680        33
44.690        20
44.700         7
44.710        20
44.720        40
44.730        20
44.740        13
44.750         7
44.760        20
44.770        40
44.780        20
44.790        20
44.800        20
44.810        27
44.820        20
44.830        33
44.840        20
44.850         7
44.860         7
44.870         0
44.880         0
44.890        27
44.900        13
44.910        13
44.920        20
44.930        33
44.940        13
44.950        27
44.960         7
44.970        20
44.980        20
44.990        33
45.000        20
45.010        20
45.020        20
45.030        13
45.040        27
45.050        47
45.060        33
45.070         7
45.080        33
45.090        13
45.100        27
45.110        13
45.120        20
45.130         7
45.140        40
45.150        27
45.160         7
45.170         0
45.180        27
45.190        33
45.200        27
45.210        13
45.220        20
45.230        40
45.240        20
45.250        40
45.260        13
45.270        13
45.280         7
45.290         7
45.300        27
45.310        27
45.320         7
45.330        33
45.340        20
45.350        20
45.360        20
45.370        20
45.380        13
45.390        27
45.400        47
45.410        13
45.420        20
45.430        53
45.440        20
45.450        67
45.460        13
45.470        47
45.480        20
45.490        20
45.500        20
45.510        53
45.520        67
45.530        33
45.540        40
45.550        73
45.560        60
45.570        53
45.580        67
45.590        47
45.600        60
45.610        40
45.620        87
45.630        60
45.640        73
45.650        87
45.660        73
45.670        73
45.680        87
45.690       140
45.700        80
45.710        73
45.720       120
45.730       153
45.740       160
45.750       173
45.760       153
45.770       133
45.780       153
45.790       207
45.800       273
45.810       160
45.820       213
45.830       227
45.840       220
45.850       253
45.860       273
45.870       267
45.880       280
45.890       260
45.900       213
45.910       267
45.920       220
45.930       313
45.940       233
45.950       267
45.960       260
45.970       200
45.980       173
45.990       173
46.000       227
46.010       113
46.020       127
46.030       100
46.040       140
46.050       160
46.060       107
46.070       113
46.080        73
46.090        60
46.100       100
46.110       120
46.120        87
46.130        67
46.140        40
46.150        33
46.160        27
46.170        27
46.180        47
46.190        33
46.200        47
46.210        20
46.220        40
46.230        53
46.240        20
46.250        40
46.260        20
46.270        53
46.280        40
46.290        27
46.300        53
46.310        27
46.320        27
46.330        13
46.340        20
46.350         0
46.360         7
46.370        47
46.380         0
46.390        20
46.400        27
46.410        33
46.420        20
46.430        27
46.440        20
46.450        27
46.460        20
46.470        13
46.480        33
46.490        20
46.500        13
46.510        13
46.520        33
46.530        27
46.540        33
46.550        40
46.560        20
46.570         7
46.580         7
46.590        27
46.600        27
46.610        33
46.620        13
46.630         7
46.640        13
46.650        33
46.660        73
46.670        13
46.680        47
46.690        33
46.700        20
46.710         7
46.720         7
46.730        27
46.740        20
46.750        13
46.760        27
46.770        20
46.780        20
46.790        27
46.800        20
46.810        20
46.820        20
46.830        20
46.840         7
46.850        40
46.860         7
46.870        20
46.880        13
46.890        20
46.900        13
46.910        40
46.920        27
46.930        27
46.940        20
46.950        27
46.960        13
46.970         0
46.980        13
46.990        20
47.000         7
47.010         7
47.020        13
47.030        20
47.040        13
47.050         7
47.060         7
47.070        13
47.080        53
47.090        13
47.100         7
47.110        13
47.120        33
47.130        40
47.140        13
47.150        20
47.160        13
47.170        20
47.180        13
47.190        13
47.200        27
47.210        27
47.220        27
47.230        13
47.240        20
47.250        13
47.260        13
47.270        27
47.280        13
47.290         7
47.300        13
47.310        13
47.320         0
47.330        27
47.340         7
47.350        33
47.360         7
47.370        13
47.380        13
47.390         7
47.400        27
47.410        20
47.420        33
47.430        13
47.440        33
47.450        20
47.460         7
47.470         7
47.480        13
47.490        33
47.500        33
47.510        20
47.520        20
47.530         7
47.540        13
47.550        33
47.560        27
47.570         0
47.580        13
47.590        13
47.600         7
47.610        27
47.620        27
47.630        33
47.640        13
47.650        13
47.660         0
47.670        20
47.680         0
47.690         7
47.700        20
47.710        13
47.720        27
47.730        13
47.740        27
47.750        20
47.760         7
47.770        20
47.780        20
47.790        27
47.800        13
47.810        27
47.820        20
47.830        27
47.840        27
47.850         7
47.860        20
47.870        13
47.880         7
47.890         7
47.900        13
47.910        20
47.920        27
47.930         7
47.940         7
47.950         7
47.960         0
47.970        13
47.980         7
47.990        13
48.000        13
48.010         0
48.020         7
48.030        33
48.040         0
48.050        13
48.060        33
48.070        20
48.080        33
48.090        33
48.100        33
48.110        13
48.120        13
48.130         7
48.140         0
48.150        33
48.160        33
48.170        33
48.180        20
48.190        20
48.200         7
48.210        20
48.220         0
48.230        13
48.240        20
48.250        13
48.260        27
48.270        13
48.280         7
48.290        20
48.300        13
48.310        27
48.320        13
48.330         7
48.340        20
48.350        20
48.360         0
48.370        13
48.380        33
48.390        27
48.400         0
48.410        33
48.420        20
48.430         7
48.440         7
48.450        27
48.460        13
48.470        13
48.480         0
48.490        27
48.500        27
48.510        13
48.520         7
48.530         7
48.540        13
48.550         0
48.560        13
48.570         7
48.580         7
48.590        13
48.600        20
48.610        40
48.620        20
48.630        40
48.640         7
48.650        27
48.660        27
48.670        33
48.680        13
48.690         7
48.700        20
48.710        13
48.720         7
48.730        13
48.740        20
48.750        13
48.760        40
48.770        27
48.780        13
48.790        33
48.800        13
48.810        20
48.820         0
48.830         7
48.840        20
48.850         7
48.860        20
48.870         7
48.880         7
48.890        20
48.900         7
48.910        13
48.920         7
48.930        13
48.940        20
48.950         7
48.960        13
48.970         7
48.980         0
48.990         0
49.000        13
49.010        13
49.020        13
49.030        27
49.040         7
49.050         7
49.060        27
49.070         7
49.080        27
49.090        20
49.100        33
49.110         7
49.120        20
49.130        27
49.140        20
49.150        20
49.160        20
49.170        13
49.180        27
49.190        20
49.200        13
49.210        27
49.220         7
49.230        20
49.240         7
49.250        27
49.260        13
49.270        13
49.280         7
49.290        33
49.300        13
49.310        27
49.320         7
49.330        20
49.340        20
49.350         0
49.360         0
49.370         7
49.380        13
49.390        20
49.400        20
49.410        13
49.420        33
49.430        13
49.440        13
49.450         7
49.460         0
49.470        20
49.480         7
49.490        13
49.500        20
49.510         7
49.520        20
49.530        13
49.540        13
49.550        13
49.560        20
49.570        20
49.580        13
49.590        20
49.600        13
49.610        13
49.620        27
49.630        40
49.640        27
49.650         7
49.660        20
49.670        20
49.680         0
49.690        20
49.700         0
49.710        13
49.720         7
49.730        27
49.740        33
49.750        27
49.760        27
49.770        27
49.780        13
49.790        20
49.800        13
49.810         7
49.820        20
49.830        20
49.840         7
49.850         7
49.860        40
49.870        20
49.880         7
49.890        20
49.900        20
49.910         7
49.920         0
49.930        20
49.940        13
49.950        40
49.960        20
49.970        13
49.980        13
49.990        13
50.000         7
50.010         0
50.020        27
50.030        20
50.040        27
50.050        27
50.060        27
50.070        20
50.080        13
50.090         0
50.100         0
50.110         0
50.120        33
50.130         0
50.140        20
50.150        27
50.160        13
50.170        13
50.180        13
50.190        20
50.200        20
50.210         0
50.220         0
50.230        13
50.240        13
50.250        13
50.260        27
50.270        20
50.280         7
50.290        33
50.300        20
50.310         7
50.320         7
50.330        13
50.340         7
50.350         7
50.360        27
50.370        27
50.380        20
50.390        20
50.400        13
50.410        20
50.420         7
50.430         0
50.440        20
50.450        20
50.460         7
50.470        27
50.480        13
50.490        27
50.500         7
50.510        27
50.520        13
50.530        13
50.540         0
50.550        13
50.560        20
50.570        20
50.580        33
50.590        13
50.600         7
50.610        20
50.620        20
50.630        13
50.640         0
50.650        40
50.660         7
50.670         7
50.680        13
50.690         7
50.700         7
50.710        13
50.720        20
50.730        20
50.740         0
50.750        13
50.760         7
50.770        60
50.780         7
50.790        13
50.800        40
50.810        20
50.820        33
50.830        20
50.840        13
50.850        20
50.860        47
50.870         7
50.880        27
50.890         7
50.900        27
50.910        20
50.920        27
50.930         0
50.940        13
50.950        20
50.960        13
50.970        13
50.980        13
50.990         0
51.000         0
51.010        20
51.020        33
51.030        20
51.040        33
51.050        20
51.060         0
51.070        27
51.080        13
51.090        33
51.100         7
51.110        27
51.120        20
51.130        20
51.140         0
51.150        20
51.160        13
51.170         7
51.180        27
51.190         0
51.200        27
51.210         0
51.220        20
51.230         7
51.240        13
51.250        13
51.260         7
51.270         7
51.280         7
51.290         7
51.300         7
51.310        20
51.320        13
51.330        13
51.340        40
51.350         7
51.360         7
51.370        13
51.380        20
51.390         7
51.400        20
51.410        27
51.420         0
51.430        20
51.440        13
51.450        20
51.460         0
51.470         7
51.480        20
51.490        40
51.500        67
51.510        20
51.520         7
51.530         7
51.540        33
51.550        33
51.560        27
51.570        40
51.580         7
51.590        33
51.600        20
51.610        27
51.620        20
51.630        13
51.640         0
51.650        27
51.660        20
51.670        13
51.680         7
51.690         0
51.700        27
51.710         7
51.720         0
51.730         7
51.740        40
51.750        27
51.760        20
51.770         7
51.780        20
51.790         0
51.800        13
51.810         7
51.820        27
51.830        20
51.840         0
51.850        27
51.860         7
51.870         7
51.880         7
51.890        20
51.900        20
51.910         7
51.920        13
51.930         7
51.940         7
51.950        20
51.960        20
51.970         7
51.980         7
51.990         7
52.000        27
52.010        20
52.020        20
52.030        13
52.040         7
52.050        20
52.060        27
52.070         0
52.080        27
52.090        13
52.100        20
52.110        27
52.120        13
52.130        13
52.140        20
52.150        20
52.160         7
52.170        27
52.180        13
52.190        13
52.200        13
52.210        20
52.220         7
52.230         7
52.240        20
52.250        27
52.260        13
52.270         7
52.280        60
52.290         0
52.300        20
52.310        20
52.320         0
52.330         7
52.340         7
52.350        20
52.360        13
52.370         0
52.380         0
52.390        13
52.400        20
52.410        20
52.420        40
52.430        33
52.440        20
52.450        27
52.460        27
52.470        13
52.480         7
52.490        40
52.500        20
52.510        27
52.520        27
52.530        73
52.540        40
52.550        13
52.560        27
52.570        27
52.580        53
52.590        53
52.600        33
52.610        53
52.620        73
52.630        87
52.640        47
52.650        80
52.660         7
52.670        33
52.680        13
52.690        20
52.700        20
52.710        20
52.720        40
52.730        60
52.740        20
52.750        27
52.760        40
52.770        33
52.780        40
52.790        27
52.800        13
52.810        33
52.820        13
52.830        13
52.840        13
52.850        13
52.860        27
52.870        27
52.880        33
52.890        13
52.900        20
52.910         7
52.920        20
52.930        20
52.940        13
52.950        33
52.960        13
52.970         7
52.980        13
52.990        13
53.000        27
53.010        13
53.020        20
53.030         0
53.040        13
53.050        20
53.060        13
53.070         7
53.080        27
53.090         7
53.100         0
53.110         7
53.120        27
53.130        13
53.140        13
53.150         7
53.160        13
53.170        20
53.180         0
53.190         7
53.200        27
53.210        20
53.220        20
53.230         0
53.240        13
53.250        20
53.260        20
53.270        13
53.280        13
53.290         7
53.300         0
53.310        13
53.320         0
53.330         0
53.340         0
53.350        20
53.360        20
53.370        13
53.380        20
53.390        13
53.400         7
53.410        20
53.420         0
53.430        20
53.440        20
53.450         7
53.460         7
53.470        13
53.480        13
53.490        13
53.500        13
53.510        20
53.520        20
53.530        33
53.540        20
53.550         7
53.560        20
53.570        20
53.580        47
53.590        33
53.600        27
53.610        13
53.620        27
53.630        13
53.640         7
53.650        33
53.660        13
53.670        20
53.680         7
53.690        13
53.700        13
53.710        13
53.720        13
53.730        13
53.740        13
53.750        20
53.760         7
53.770        13
53.780        13
53.790         7
53.800        27
53.810         7
53.820         0
53.830         0
53.840         7
53.850        27
53.860        13
53.870         0
53.880        20
53.890        20
53.900        13
53.910         7
53.920        20
53.930        13
53.940         0
53.950         7
53.960         7
53.970         0
53.980         0
53.990         0
54.000         7
54.010        13
54.020        13
54.030        20
54.040         7
54.050         0
54.060         7
54.070        13
54.080        27
54.090        27
54.100        27
54.110        27
54.120        27
54.130         7
54.140        20
54.150         7
54.160         0
54.170        33
54.180        20
54.190         0
54.200        13
54.210        13
54.220         7
54.230         0
54.240        13
54.250        13
54.260         7
54.270         7
54.280        20
54.290         0
54.300         7
54.310         7
54.320        13
54.330         7
54.340        33
54.350        13
54.360        13
54.370        27
54.380        13
54.390        13
54.400        40
54.410        13
54.420        13
54.430         7
54.440         7
54.450         7
54.460        13
54.470         0
54.480        13
54.490        20
54.500        20
54.510         7
54.520         0
54.530        20
54.540        13
54.550        20
54.560        27
54.570        13
54.580         7
54.590         7
54.600         7
54.610        13
54.620        27
54.630        13
54.640         0
54.650        27
54.660        13
54.670         7
54.680        20
54.690        20
54.700        47
54.710        20
54.720         0
54.730        20
54.740        20
54.750        13
54.760        27
54.770         7
54.780        20
54.790         0
54.800         7
54.810        13
54.820        13
54.830        20
54.840         7
54.850         0
54.860        20
54.870        13
54.880        13
54.890        13
54.900        13
54.910        13
54.920        27
54.930        20
54.940        13
54.950         0
54.960         7
54.970        13
54.980         0
54.990        13
55.000         7
55.010        13
55.020        13
55.030        13
55.040         7
55.050        13
55.060        13
55.070        13
55.080        20
55.090        20
55.100        20
55.110         0
55.120        13
55.130         7
55.140         0
55.150         7
55.160        40
55.170        13
55.180        13
55.190        20
55.200         0
55.210         7
55.220         0
55.230        13
55.240         0
55.250        20
55.260        13
55.270         0
55.280        20
55.290         7
55.300         0
55.310        20
55.320         7
55.330        20
55.340         0
55.350        27
55.360        13
55.370        13
55.380         7
55.390        20
55.400         0
55.410        40
55.420         7
55.430        13
55.440         7
55.450        13
55.460        20
55.470         7
55.480         7
55.490        13
55.500        33
55.510         7
55.520        27
55.530         7
55.540        13
55.550         7
55.560        13
55.570        33
55.580        13
55.590        27
55.600        13
55.610         0
55.620         0
55.630        13
55.640        13
55.650         7
55.660        20
55.670         7
55.680         7
55.690        13
55.700        20
55.710         7
55.720        13
55.730        13
55.740        20
55.750        20
55.760        20
55.770        20
55.780        13
55.790         0
55.800        20
55.810        13
55.820        33
55.830         7
55.840        13
55.850        20
55.860         7
55.870         7
55.880         7
55.890         7
55.900         0
55.910         0
55.920        27
55.930        20
55.940        27
55.950         0
55.960        20
55.970        27
55.980        20
55.990         7
56.000         7
56.010         0
56.020        13
56.030        13
56.040        20
56.050        13
56.060        20
56.070        20
56.080         7
56.090         7
56.100         0
56.110        13
56.120         7
56.130        13
56.140        27
56.150         7
56.160         7
56.170        33
56.180         7
56.190        27
56.200        13
56.210        20
56.220         7
56.230        13
56.240        33
56.250         7
56.260        20
56.270         7
56.280        27
56.290        13
56.300        20
56.310        13
56.320        13
56.330        33
56.340         7
56.350        20
56.360         7
56.370         0
56.380        20
56.390        27
56.400        33
56.410        47
56.420        20
56.430        13
56.440         7
56.450        13
56.460         7
56.470         7
56.480        27
56.490         0
56.500        27
56.510        13
56.520         7
56.530        20
56.540        53
56.550        27
56.560        13
56.570         0
56.580        13
56.590        20
56.600        13
56.610         7
56.620         7
56.630         7
56.640        33
56.650        27
56.660         7
56.670        40
56.680         7
56.690         7
56.700        33
56.710        20
56.720        20
56.730         0
56.740        13
56.750        33
56.760        13
56.770        20
56.780         7
56.790        27
56.800         7
56.810        33
56.820        27
56.830        13
56.840        33
56.850         0
56.860         7
56.870         7
56.880        33
56.890        27
56.900        20
56.910        27
56.920        13
56.930        60
56.940        27
56.950        27
56.960        47
56.970        33
56.980        40
56.990        67
57.000        47
57.010        33
57.020        73
57.030        33
57.040        53
57.050        47
57.060        80
57.070        60
57.080        40
57.090        60
57.100        67
57.110        53
57.120        60
57.130        60
57.140        67
57.150        53
57.160        80
57.170        60
57.180        33
57.190        47
57.200        53
57.210        40
57.220        73
57.230        20
57.240        40
57.250        27
57.260        33
57.270        67
57.280        47
57.290        53
57.300        27
57.310        60
57.320        67
57.330        67
57.340        47
57.350        47
57.360        60
57.370        67
57.380        93
57.390        67
57.400       120
57.410       173
57.420       293
57.430       387
57.440       546
57.450       640
57.460       566
57.470       540
57.480       433
57.490       380
57.500       293
57.510       247
57.520       153
57.530       133
57.540       160
57.550       133
57.560       147
57.570       100
57.580       293
57.590       327
57.600       313
57.610       360
57.620       327
57.630       333
57.640       247
57.650       213
57.660       113
57.670        73
57.680        80
57.690       100
57.700        80
57.710        73
57.720        40
57.730        60
57.740        33
57.750        27
57.760        47
57.770        40
57.780        53
57.790        33
57.800        20
57.810        20
57.820        13
57.830        27
57.840        33
57.850        40
57.860        13
57.870        13
57.880         7
57.890        20
57.900        13
57.910        27
57.920         7
57.930        33
57.940        27
57.950         7
57.960        20
57.970         7
57.980        13
57.990        13
58.000        13
58.010        13
58.020         7
58.030        27
58.040         7
58.050         7
58.060         0
58.070        20
58.080         0
58.090        27
58.100        13
58.110         7
58.120        33
58.130         7
58.140        13
58.150        33
58.160         7
58.170         7
58.180         7
58.190        13
58.200        13
58.210         7
58.220        33
58.230        13
58.240        20
58.250        13
58.260        20
58.270         7
58.280         7
58.290        27
58.300         7
58.310        20
58.320        13
58.330        27
58.340        40
58.350        13
58.360         7
58.370        13
58.380        20
58.390        33
58.400        13
58.410         7
58.420         7
58.430         7
58.440        13
58.450        13
58.460        20
58.470         7
58.480         7
58.490        13
58.500         0
58.510         7
58.520        33
58.530        27
58.540        13
58.550        13
58.560         7
58.570        13
58.580        20
58.590         7
58.600         7
58.610         7
58.620         7
58.630         7
58.640        20
58.650        13
58.660        13
58.670         7
58.680        20
58.690         7
58.700         0
58.710        20
58.720        20
58.730        20
58.740         0
58.750        13
58.760        13
58.770        33
58.780        33
58.790         7
58.800        27
58.810        13
58.820         7
58.830        20
58.840        27
58.850         0
58.860        13
58.870        27
58.880         7
58.890        27
58.900        13
58.910         0
58.920         0
58.930         0
58.940         0
58.950        13
58.960        27
58.970        13
58.980        13
58.990        13
59.000        20
59.010        13
59.020        20
59.030        13
59.040        13
59.050        47
59.060        40
59.070        27
59.080        20
59.090         0
59.100        20
59.110         0
59.120         7
59.130        27
59.140         7
59.150         0
59.160         0
59.170        13
59.180        13
59.190        20
59.200        13
59.210         0
59.220        27
59.230         7
59.240        13
59.250        13
59.260        13
59.270         7
59.280        13
59.290        13
59.300         7
59.310        20
59.320        20
59.330        13
59.340         7
59.350        13
59.360         0
59.370         0
59.380         7
59.390        33
59.400        20
59.410         7
59.420        33
59.430         0
59.440         0
59.450        13
59.460        13
59.470        13
59.480        13
59.490        13
59.500         7
59.510        20
59.520         7
59.530        13
59.540        27
59.550        13
59.560         7
59.570        13
59.580         7
59.590        13
59.600         7
59.610        13
59.620         7
59.630         7
59.640        20
59.650         0
59.660         7
59.670         0
59.680        13
59.690        27
59.700         7
59.710        13
59.720        27
59.730         7
59.740         7
59.750        13
59.760        13
59.770         0
59.780        13
59.790        27
59.800        20
59.810        13
59.820        13
59.830        20
59.840        20
59.850         7
59.860         0
59.870         7
59.880        13
59.890        13
59.900        20
59.910        13
59.920        13
59.930        47
59.940         7
59.950        20
59.960        13
59.970        20
59.980        13
59.990         7
60.000        33
