20.000        13
20.010        13
20.020        20
20.030        47
20.040        20
20.050        27
20.060        40
20.070        47
20.080        40
20.090        40
20.100        47
20.110        40
20.120        40
20.130        67
20.140        47
20.150        40
20.160        53
20.170        20
20.180        33
20.190        27
20.200        47
20.210        67
20.220        33
20.230        47
20.240        27
20.250        80
20.260        53
20.270        27
20.280        60
20.290        60
20.300        47
20.310        47
20.320        33
20.330        40
20.340        33
20.350        47
20.360        33
20.370        13
20.380        27
20.390        20
20.400        13
20.410        20
20.420        33
20.430        53
20.440        53
20.450       100
20.460        53
20.470        40
20.480        47
20.490        47
20.500        33
20.510        60
20.520        53
20.530        33
20.540        40
20.550        20
20.560        47
20.570        60
20.580        47
20.590        27
20.600        40
20.610        53
20.620        33
20.630        47
20.640        20
20.650        33
20.660        27
20.670        47
20.680        47
20.690        40
20.700        47
20.710        73
20.720        47
20.730        80
20.740        33
20.750        40
20.760        20
20.770        40
20.780         7
20.790        33
20.800        27
20.810        40
20.820        40
20.830        47
20.840        40
20.850        27
20.860        67
20.870        53
20.880        33
20.890         7
20.900        53
20.910        33
20.920        33
20.930        53
20.940        33
20.950        40
20.960        20
20.970        20
20.980        33
20.990        67
21.000        67
21.010        53
21.020        13
21.030        20
21.040        40
21.050        27
21.060        53
21.070        27
21.080        47
21.090        20
21.100        53
21.110        40
21.120        33
21.130        53
21.140        20
21.150        33
21.160        27
21.170         7
21.180        47
21.190        67
21.200        67
21.210        33
21.220        40
21.230        33
21.240        40
21.250        47
21.260        47
21.270        53
21.280        20
21.290        40
21.300        47
21.310        47
21.320        53
21.330        20
21.340        20
21.350        40
21.360        53
21.370        53
21.380        40
21.390        47
21.400        67
21.410        47
21.420        40
21.430        47
21.440        67
21.450        47
21.460        53
21.470        13
21.480        40
21.490        33
21.500        33
21.510        67
21.520        27
21.530        27
21.540        47
21.550        53
21.560        20
21.570        40
21.580        20
21.590        40
21.600        20
21.610         7
21.620        40
21.630        67
21.640        33
21.650        40
21.660        53
21.670        40
21.680        47
21.690        13
21.700        33
21.710        20
21.720        33
21.730        33
21.740        13
21.750        27
21.760        40
21.770        13
21.780        27
21.790        40
21.800        33
21.810        47
21.820        40
21.830        27
21.840        33
21.850        27
21.860        53
21.870        47
21.880        33
21.890        20
21.900        27
21.910        60
21.920        73
21.930        67
21.940        60
21.950        47
21.960        33
21.970        47
21.980        20
21.990        60
22.000        27
22.010        13
22.020        27
22.030        40
22.040        33
22.050        27
22.060        80
22.070        60
22.080        27
22.090        27
22.100        33
22.110        20
22.120        60
22.130        60
22.140        53
22.150        27
22.160        33
22.170        20
22.180        27
22.190        20
22.200        27
22.210        60
22.220        27
22.230        27
22.240        40
22.250        53
22.260        40
22.270        40
22.280        40
22.290        47
22.300        13
22.310        60
22.320        27
22.330        40
22.340        53
22.350        67
22.360        20
22.370        40
22.380        53
22.390        33
22.400        53
22.410        60
22.420        47
22.430        20
22.440        33
22.450        73
22.460        20
22.470        20
22.480        40
22.490        47
22.500        73
22.510        33
22.520        33
22.530        47
22.540        67
22.550        20
22.560        33
22.570        67
22.580        33
22.590        27
22.600        47
22.610        27
22.620        40
22.630        40
22.640        60
22.650        60
22.660        47
22.670        40
22.680        73
22.690        53
22.700        87
22.710        87
22.720        33
22.730        27
22.740        53
22.750        60
22.760        27
22.770        67
22.780        40
22.790        73
22.800        27
22.810        67
22.820        80
22.830        40
22.840        53
22.850        53
22.860        47
22.870        60
22.880        60
22.890        73
22.900        67
22.910        27
22.920        33
22.930        27
22.940        73
22.950        80
22.960        40
22.970        47
22.980        40
22.990        47
23.000        20
23.010        27
23.020        60
23.030        27
23.040        13
23.050        27
23.060        20
23.070        73
23.080        40
23.090        33
23.100        40
23.110        27
23.120        40
23.130        53
23.140        53
23.150        53
23.160        27
23.170        47
23.180        27
23.190        27
23.200        67
23.210        20
23.220        13
23.230        67
23.240        27
23.250        47
23.260        13
23.270        27
23.280        47
23.290        40
23.300        13
23.310        20
23.320        60
23.330        27
23.340        40
23.350        13
23.360        20
23.370         7
23.380        13
23.390        40
23.400        27
23.410        27
23.420        53
23.430        40
23.440        27
23.450        20
23.460        53
23.470        40
23.480        67
23.490        40
23.500        33
23.510        20
23.520        20
23.530         7
23.540        27
23.550        53
23.560        20
23.570        40
23.580        13
23.590        20
23.600        13
23.610        53
23.620        40
23.630        60
23.640        67
23.650        20
23.660        40
23.670        27
23.680        13
23.690        53
23.700        40
23.710        40
23.720        27
23.730        27
23.740        40
23.750        27
23.760        27
23.770        27
23.780        20
23.790        40
23.800        27
23.810        13
23.820        13
23.830        20
23.840        33
23.850        40
23.860        33
23.870        20
23.880        60
23.890        20
23.900        27
23.910        20
23.920        33
23.930        60
23.940        40
23.950        20
23.960        33
23.970        33
23.980        33
23.990        20
24.000        40
24.010        40
24.020        20
24.030        40
24.040        20
24.050        13
24.060        13
24.070        33
24.080        40
24.090        40
24.100        53
24.110        53
24.120         7
24.130        20
24.140        33
24.150        47
24.160        27
24.170        33
24.180        20
24.190        47
24.200        27
24.210        27
24.220        33
24.230        40
24.240        20
24.250        60
24.260        20
24.270        27
24.280        27
24.290        13
24.300        33
24.310        40
24.320        33
24.330         7
24.340        33
24.350        40
24.360        33
24.370        20
24.380        40
24.390        20
24.400         7
24.410        33
24.420        47
24.430        13
24.440        20
24.450        33
24.460        13
24.470        47
24.480        20
24.490        47
24.500        53
24.510        13
24.520        20
24.530        13
24.540        20
24.550        33
24.560        47
24.570        47
24.580        40
24.590        33
24.600        20
24.610        27
24.620        27
24.630        53
24.640        33
24.650        33
24.660        40
24.670        40
24.680        33
24.690        27
24.700        20
24.710        47
24.720        27
24.730        27
24.740        27
24.750        13
24.760        27
24.770        13
24.780        47
24.790        47
24.800        40
24.810        53
24.820        40
24.830        27
24.840        27
24.850        40
24.860        53
24.870        33
24.880        60
24.890        67
24.900         7
24.910        53
24.920        53
24.930        47
24.940        40
24.950        13
24.960        60
24.970        47
24.980        40
24.990        20
25.000        60
25.010        40
25.020        13
25.030        20
25.040        33
25.050        33
25.060        27
25.070        53
25.080        40
25.090        13
25.100        60
25.110        13
25.120        40
25.130        27
25.140        53
25.150        53
25.160        40
25.170        53
25.180        27
25.190        67
25.200        53
25.210        20
25.220        33
25.230        47
25.240        13
25.250        33
25.260        47
25.270        27
25.280        33
25.290        33
25.300        47
25.310        47
25.320        40
25.330        53
25.340        27
25.350        47
25.360        40
25.370        40
25.380        33
25.390        27
25.400        53
25.410        40
25.420        47
25.430        27
25.440        47
25.450        67
25.460        40
25.470        33
25.480        60
25.490        40
25.500        20
25.510        67
25.520        73
25.530        33
25.540        73
25.550        73
25.560        80
25.570        73
25.580       147
25.590       167
25.600       173
25.610       173
25.620       200
25.630       193
25.640       140
25.650       173
25.660       207
25.670       160
25.680       313
25.690       440
25.700       553
25.710       886
25.720       846
25.730       740
25.740       720
25.750       620
25.760       493
25.770       506
25.780       453
25.790       380
25.800       340
25.810       327
25.820       253
25.830       133
25.840       107
25.850        93
25.860        60
25.870        73
25.880        40
25.890        53
25.900        53
25.910        47
25.920        27
25.930        40
25.940        33
25.950        40
25.960        53
25.970         7
25.980        13
25.990        47
26.000        27
26.010        33
26.020         0
26.030        33
26.040        80
26.050        47
26.060        33
26.070        33
26.080        27
26.090        20
26.100        27
26.110        53
26.120        27
26.130        27
26.140        20
26.150        53
26.160         7
26.170        53
26.180        20
26.190        27
26.200        27
26.210        27
26.220        27
26.230        33
26.240        27
26.250        27
26.260        20
26.270        20
26.280        13
26.290         0
26.300        73
26.310        13
26.320        40
26.330        13
26.340        33
26.350        27
26.360        13
26.370        53
26.380        13
26.390        13
26.400        60
26.410        20
26.420        67
26.430        20
26.440        27
26.450        33
26.460        20
26.470        40
26.480        47
26.490        33
26.500        33
26.510        20
26.520        13
26.530        40
26.540        20
26.550         7
26.560        47
26.570        20
26.580        47
26.590        40
26.600        27
26.610        40
26.620        27
26.630        13
26.640        53
26.650        33
26.660        27
26.670         7
26.680        27
26.690        67
26.700        47
26.710        40
26.720        20
26.730        40
26.740        40
26.750        40
26.760        40
26.770        53
26.780        33
26.790        33
26.800        47
26.810        33
26.820        53
26.830        67
26.840        53
26.850        33
26.860        40
26.870        27
26.880        33
26.890        27
26.900        20
26.910        20
26.920        20
26.930        80
26.940        13
26.950        47
26.960        33
26.970        33
26.980        33
26.990        33
27.000         7
27.010        40
27.020        27
27.030        13
27.040        33
27.050        47
27.060        27
27.070        13
27.080        40
27.090        20
27.100        13
27.110        20
27.120         7
27.130        20
27.140        47
27.150        27
27.160        40
27.170        33
27.180         0
27.190        47
27.200        33
27.210        20
27.220        13
27.230        20
27.240        40
27.250        27
27.260        20
27.270        33
27.280        27
27.290        20
27.300        20
27.310        60
27.320        13
27.330        53
27.340        13
27.350        27
27.360        27
27.370        13
27.380        33
27.390        40
27.400        20
27.410        13
27.420        20
27.430         0
27.440        53
27.450        20
27.460        20
27.470        47
27.480         7
27.490        27
27.500        13
27.510        40
27.520        13
27.530        13
27.540        13
27.550        13
27.560        13
27.570        20
27.580        20
27.590        27
27.600        73
27.610        33
27.620        20
27.630        47
27.640        53
27.650         7
27.660        20
27.670        33
27.680        40
27.690        40
27.700        60
27.710        40
27.720        47
27.730        33
27.740        47
27.750        20
27.760        27
27.770        40
27.780        33
27.790        47
27.800        13
27.810        13
27.820        33
27.830        40
27.840        33
27.850        33
27.860        60
27.870        47
27.880        13
27.890        33
27.900        20
27.910        20
27.920        13
27.930        33
27.940        33
27.950        60
27.960        27
27.970        20
27.980        27
27.990        40
28.000        13
28.010        47
28.020        27
28.030        40
28.040        13
28.050        27
28.060        33
28.070        60
28.080        27
28.090        33
28.100        20
28.110        20
28.120        27
28.130        20
28.140        40
28.150        20
28.160        13
28.170        33
28.180        27
28.190        33
28.200        47
28.210        20
28.220        20
28.230        33
28.240        33
28.250        47
28.260        20
28.270        33
28.280        13
28.290         7
28.300        40
28.310        33
28.320        27
28.330        20
28.340        13
28.350        20
28.360        40
28.370        20
28.380        13
28.390        33
28.400        13
28.410        47
28.420        47
28.430        27
28.440        27
28.450        13
28.460        33
28.470        20
28.480        13
28.490        27
28.500        47
28.510        33
28.520        20
28.530        27
28.540        13
28.550        33
28.560        20
28.570        20
28.580        20
28.590        13
28.600        33
28.610        13
28.620        13
28.630        60
28.640         7
28.650        27
28.660        27
28.670        13
28.680        20
28.690        27
28.700        13
28.710        27
28.720        20
28.730        40
28.740        13
28.750        13
28.760        27
28.770        13
28.780        47
28.790         7
28.800        53
28.810        27
28.820         7
28.830        40
28.840        27
28.850        27
28.860        40
28.870        13
28.880        27
28.890        20
28.900        20
28.910        20
28.920        13
28.930        20
28.940        27
28.950        13
28.960        13
28.970        20
28.980        27
28.990        13
29.000         7
29.010        27
29.020        53
29.030        33
29.040        20
29.050        13
29.060        20
29.070        33
29.080        20
29.090        47
29.100        13
29.110        53
29.120         7
29.130        27
29.140        40
29.150        60
29.160        20
29.170        40
29.180        13
29.190        27
29.200        67
29.210        40
29.220        27
29.230        27
29.240        13
29.250        13
29.260        40
29.270        33
29.280        60
29.290        60
29.300        53
29.310        73
29.320        73
29.330        67
29.340        73
29.350        20
29.360        73
29.370        80
29.380        67
29.390        67
29.400        60
29.410        80
29.420        53
29.430        33
29.440        60
29.450        73
29.460        47
29.470        47
29.480        33
29.490        27
29.500        80
29.510        47
29.520        27
29.530        33
29.540        47
29.550        27
29.560        40
29.570        13
29.580        20
29.590        33
29.600        20
29.610        13
29.620        27
29.630        13
29.640        20
29.650        13
29.660        40
29.670        47
29.680        53
29.690        20
29.700        40
29.710        40
29.720        33
29.730        13
29.740        20
29.750        40
29.760        40
29.770        20
29.780        40
29.790        20
29.800        40
29.810        27
29.820        13
29.830        33
29.840        20
29.850        40
29.860        27
29.870        20
29.880        40
29.890        20
29.900        20
29.910        53
29.920        13
29.930        20
29.940        27
29.950        40
29.960        13
29.970        40
29.980        20
29.990         0
30.000        20
30.010        47
30.020        40
30.030        20
30.040        20
30.050        20
30.060        33
30.070        20
30.080        33
30.090        20
30.100        53
30.110        27
30.120        40
30.130         7
30.140        67
30.150         0
30.160        47
30.170        13
30.180        20
30.190        40
30.200        33
30.210        27
30.220        40
30.230        53
30.240         7
30.250        20
30.260        13
30.270        33
30.280        20
30.290        20
30.300        33
30.310        60
30.320        47
30.330        20
30.340        20
30.350        20
30.360        13
30.370        27
30.380        40
30.390        13
30.400        20
30.410        20
30.420        13
30.430        47
30.440        27
30.450        20
30.460        20
30.470        27
30.480        60
30.490        20
30.500        20
30.510        27
30.520        20
30.530        20
30.540        27
30.550        33
30.560        13
30.570        27
30.580        20
30.590         7
30.600        33
30.610        33
30.620        20
30.630        33
30.640        20
30.650        27
30.660        33
30.670        33
30.680        53
30.690        20
30.700        27
30.710        13
30.720        33
30.730        20
30.740        20
30.750        13
30.760         7
30.770        33
30.780        27
30.790        47
30.800        60
30.810         0
30.820        20
30.830        27
30.840        40
30.850         7
30.860         7
30.870        27
30.880        27
30.890         7
30.900        20
30.910        33
30.920        20
30.930        13
30.940        40
30.950        47
30.960        27
30.970        20
30.980        27
30.990        13
31.000         7
31.010        33
31.020        27
31.030        13
31.040        20
31.050        47
31.060        27
31.070        33
31.080        33
31.090        40
31.100        13
31.110        20
31.120        33
31.130        47
31.140         7
31.150        13
31.160        27
31.170        27
31.180        33
31.190        47
31.200         7
31.210        27
31.220        60
31.230        13
31.240        20
31.250        13
31.260        20
31.270        33
31.280        13
31.290        47
31.300        40
31.310         7
31.320        13
31.330        27
31.340        27
31.350        20
31.360        33
31.370        20
31.380        20
31.390        33
31.400        13
31.410        27
31.420        13
31.430        13
31.440        20
31.450        20
31.460        13
31.470        13
31.480        33
31.490        40
31.500        80
31.510        20
31.520        27
31.530        40
31.540        27
31.550        33
31.560        20
31.570        47
31.580        20
31.590        40
31.600         7
31.610        80
31.620        47
31.630        40
31.640        60
31.650        27
31.660        53
31.670        53
31.680        47
31.690        53
31.700        40
31.710        53
31.720        60
31.730        53
31.740       133
31.750        60
31.760        80
31.770       100
31.780       100
31.790       100
31.800       107
31.810       100
31.820       133
31.830       120
31.840       173
31.850       120
31.860       153
31.870       193
31.880       187
31.890       120
31.900       167
31.910       187
31.920       213
31.930       180
31.940       180
31.950       133
31.960       200
31.970       253
31.980       127
31.990       133
32.000       113
32.010       167
32.020       120
32.030       173
32.040        87
32.050       100
32.060        60
32.070        73
32.080        67
32.090        87
32.100        47
32.110        67
32.120        33
32.130        60
32.140        67
32.150        87
32.160        47
32.170        67
32.180        40
32.190        47
32.200        53
32.210        27
32.220        33
32.230        33
32.240        40
32.250        33
32.260        27
32.270        20
32.280        20
32.290        13
32.300         7
32.310        47
32.320        60
32.330        47
32.340        27
32.350        33
32.360        27
32.370        20
32.380        27
32.390        20
32.400        20
32.410         7
32.420        13
32.430         7
32.440         7
32.450        27
32.460        27
32.470        27
32.480        40
32.490         7
32.500        33
32.510        20
32.520        20
32.530        27
32.540        47
32.550        33
32.560        20
32.570        20
32.580        47
32.590        13
32.600        27
32.610        33
32.620         7
32.630        27
32.640        27
32.650        33
32.660        53
32.670        33
32.680        27
32.690        20
32.700        20
32.710        47
32.720        13
32.730        60
32.740        20
32.750        27
32.760        27
32.770        20
32.780        33
32.790        53
32.800        27
32.810        33
32.820        27
32.830        20
32.840        27
32.850        13
32.860        33
32.870         7
32.880        20
32.890         7
32.900         7
32.910        47
32.920        33
32.930        13
32.940        27
32.950        47
32.960        27
32.970        20
32.980        20
32.990        13
33.000        20
33.010        33
33.020        27
33.030        33
33.040        40
33.050        27
33.060        20
33.070         7
33.080         7
33.090        33
33.100         7
33.110         7
33.120        20
33.130        33
33.140        27
33.150        40
33.160         7
33.170        27
33.180        33
33.190        20
33.200        13
33.210        33
33.220         7
33.230        40
33.240        27
33.250        33
33.260        20
33.270        27
33.280        13
33.290        20
33.300         7
33.310        20
33.320        40
33.330        20
33.340        47
33.350         7
33.360        13
33.370        13
33.380        40
33.390        20
33.400        40
33.410        27
33.420        33
33.430        20
33.440        13
33.450        33
33.460         7
33.470        20
33.480         7
33.490        13
33.500        40
33.510        20
33.520        40
33.530        20
33.540        33
33.550        27
33.560         7
33.570        27
33.580        27
33.590        13
33.600         7
33.610         7
33.620         7
33.630         0
33.640        40
33.650        13
33.660         7
33.670        33
33.680        33
33.690        33
33.700        40
33.710        33
33.720        33
33.730        20
33.740        13
33.750        13
33.760        20
33.770         0
33.780        20
33.790        13
33.800         0
33.810        20
33.820        27
33.830         7
33.840        20
33.850        33
33.860        13
33.870         7
33.880        27
33.890         0
33.900        13
33.910        13
33.920        40
33.930         7
33.940        27
33.950        40
33.960        27
33.970        27
33.980        13
33.990        20
34.000         0
34.010         7
34.020        20
34.030        27
34.040        13
34.050        33
34.060        20
34.070        13
34.080        20
34.090        20
34.100        27
34.110         7
34.120         7
34.130        20
34.140        27
34.150        13
34.160         7
34.170        13
34.180        20
34.190        20
34.200        40
34.210        20
34.220        40
34.230        13
34.240        33
34.250        20
34.260        13
34.270        13
34.280        27
34.290        13
34.300        27
34.310        13
34.320         7
34.330        13
34.340        40
34.350        13
34.360        40
34.370         0
34.380         7
34.390        27
34.400        27
34.410        13
34.420         0
34.430         0
34.440        13
34.450        13
34.460        13
34.470        33
34.480        27
34.490        33
34.500        27
34.510         7
34.520         0
34.530        53
34.540        27
34.550        13
34.560        20
34.570         7
34.580        27
34.590        40
34.600        27
34.610        27
34.620        13
34.630        33
34.640        13
34.650        13
34.660        40
34.670        67
34.680        20
34.690        20
34.700        33
34.710        20
34.720        13
34.730        33
34.740        27
34.750        27
34.760        27
34.770        27
34.780        20
34.790        53
34.800        13
34.810         7
34.820        27
34.830        20
34.840        13
34.850        13
34.860        33
34.870        47
34.880        27
34.890        13
34.900        27
34.910        20
34.920        33
34.930        33
34.940        13
34.950        53
34.960        27
34.970        27
34.980        33
34.990        27
35.000        33
35.010        27
35.020        33
35.030        20
35.040        27
35.050         0
35.060         7
35.070         0
35.080        20
35.090         7
35.100        33
35.110        33
35.120        20
35.130         7
35.140        20
35.150        20
35.160        20
35.170        27
35.180        53
35.190        20
35.200        33
35.210        27
35.220         7
35.230        27
35.240        13
35.250        27
35.260        40
35.270        27
35.280        27
35.290        40
35.300        27
35.310        13
35.320        27
35.330         7
35.340        53
35.350        27
35.360         0
35.370        20
35.380        40
35.390        13
35.400        13
35.410        20
35.420        40
35.430        13
35.440        47
35.450        20
35.460        27
35.470         0
35.480         7
35.490        33
35.500        13
35.510        20
35.520         7
35.530        33
35.540        13
35.550        27
35.560        20
35.570         7
35.580        27
35.590        33
35.600        53
35.610        27
35.620        33
35.630        13
35.640        20
35.650        60
35.660        40
35.670        13
35.680        33
35.690        33
35.700         0
35.710        13
35.720        40
35.730         7
35.740         7
35.750        47
35.760        40
35.770        27
35.780         0
35.790        40
35.800        13
35.810        33
35.820        27
35.830        13
35.840        40
35.850        47
35.860        33
35.870        13
35.880        33
35.890        53
35.900        40
35.910        27
35.920        27
35.930        60
35.940        40
35.950        40
35.960        47
35.970        20
35.980        20
35.990        33
36.000        20
36.010        33
36.020        47
36.030         7
36.040        13
36.050        47
36.060        20
36.070        20
36.080        20
36.090        13
36.100         0
36.110        13
36.120        27
36.130        27
36.140        20
36.150         0
36.160         7
36.170        20
36.180        20
36.190        27
36.200         7
36.210        13
36.220        40
36.230        33
36.240        20
36.250        40
36.260        13
36.270        33
36.280         0
36.290        40
36.300        20
36.310         7
36.320        27
36.330        13
36.340        13
36.350        13
36.360        27
36.370        20
36.380        13
36.390        33
36.400        33
36.410         7
36.420        20
36.430        27
36.440        27
36.450        20
36.460        13
36.470         7
36.480        20
36.490        27
36.500         0
36.510        27
36.520        20
36.530        20
36.540        27
36.550        40
36.560        13
36.570        13
36.580        20
36.590        13
36.600        20
36.610        27
36.620        13
36.630        33
36.640        20
36.650        60
36.660        33
36.670        27
36.680        20
36.690         7
36.700         7
36.710        20
36.720        33
36.730        20
36.740        33
36.750        33
36.760        20
36.770        20
36.780         0
36.790        27
36.800        33
36.810        13
36.820        27
36.830         0
36.840         0
36.850        40
36.860        20
36.870        13
36.880        13
36.890        47
36.900        20
36.910         7
36.920        27
36.930        13
36.940        27
36.950        20
36.960        20
36.970         7
36.980         7
36.990        20
37.000        33
37.010        27
37.020        20
37.030        13
37.040         7
37.050        27
37.060        27
37.070        47
37.080        27
37.090        33
37.100        20
37.110        27
37.120        20
37.130        40
37.140         7
37.150        40
37.160        27
37.170        33
37.180        20
37.190        27
37.200        33
37.210        20
37.220        20
37.230        40
37.240        20
37.250        27
37.260        13
37.270        27
37.280        40
37.290        33
37.300        33
37.310        27
37.320        20
37.330        40
37.340        13
37.350        20
37.360        33
37.370        20
37.380         7
37.390        13
37.400        27
37.410        27
37.420        33
37.430         7
37.440        33
37.450        33
37.460        27
37.470        33
37.480        33
37.490        40
37.500        53
37.510        13
37.520        33
37.530         7
37.540        40
37.550        13
37.560        27
37.570        27
37.580        20
37.590        20
37.600        27
37.610        27
37.620        20
37.630        27
37.640        13
37.650        20
37.660        33
37.670        27
37.680         0
37.690        13
37.700        20
37.710        20
37.720        27
37.730        27
37.740        40
37.750        13
37.760        20
37.770        13
37.780         7
37.790        13
37.800        20
37.810        20
37.820        13
37.830        27
37.840        27
37.850        13
37.860        33
37.870        20
37.880        13
37.890        20
37.900        20
37.910         0
37.920        27
37.930        33
37.940        27
37.950        33
37.960        20
37.970        13
37.980         0
37.990        27
38.000        20
38.010        20
38.020         7
38.030         7
38.040        33
38.050        33
38.060         0
38.070        40
38.080        27
38.090        20
38.100        13
38.110        53
38.120        20
38.130         0
38.140        13
38.150        20
38.160        20
38.170        20
38.180        13
38.190        13
38.200        27
38.210        33
38.220        13
38.230        27
38.240        13
38.250        47
38.260        27
38.270        27
38.280        13
38.290        20
38.300         0
38.310        20
38.320        27
38.330        40
38.340        40
38.350        20
38.360        47
38.370        33
38.380        20
38.390        33
38.400        40
38.410        27
38.420        27
38.430        33
38.440         7
38.450        27
38.460        13
38.470        20
38.480        33
38.490        47
38.500        33
38.510         7
38.520        33
38.530        13
38.540         7
38.550        33
38.560        13
38.570        20
38.580        13
38.590         0
38.600        20
38.610         0
38.620        20
38.630        27
38.640        20
38.650        20
38.660        27
38.670        20
38.680         0
38.690        13
38.700        40
38.710        20
38.720        27
38.730        13
38.740        33
38.750        27
38.760        33
38.770        20
38.780        47
38.790         7
38.800        27
38.810        33
38.820        33
38.830        33
38.840        13
38.850        33
38.860        20
38.870        20
38.880        13
38.890        40
38.900        27
38.910        13
38.920         7
38.930        33
38.940         7
38.950        33
38.960        20
38.970        13
38.980        13
38.990        27
39.000         7
39.010        20
39.020        53
39.030        27
39.040        20
39.050        33
39.060         0
39.070        47
39.080        27
39.090        20
39.100        27
39.110        27
39.120         7
39.130        27
39.140        33
39.150        40
39.160        27
39.170        33
39.180        47
39.190        53
39.200         7
39.210        60
39.220        47
39.230        60
39.240        20
39.250        40
39.260        27
39.270        47
39.280        60
39.290        73
39.300        40
39.310        27
39.320        67
39.330        13
39.340        47
39.350        67
39.360        40
39.370        73
39.380        80
39.390        47
39.400        73
39.410        47
39.420        53
39.430        53
39.440        53
39.450        67
39.460        47
39.470        73
39.480       107
39.490        53
39.500        27
39.510        80
39.520        40
39.530        47
39.540        40
39.550        27
39.560        47
39.570        20
39.580        40
39.590        33
39.600        53
39.610        73
39.620        33
39.630        27
39.640         7
39.650        20
39.660        47
39.670        27
39.680        60
39.690        13
39.700        13
39.710        33
39.720        47
39.730        40
39.740        33
39.750        53
39.760        20
39.770        47
39.780         7
39.790        40
39.800        20
39.810        40
39.820        27
39.830        33
39.840        13
39.850        20
39.860        13
39.870        20
39.880        27
39.890         7
39.900         7
39.910        20
39.920        27
39.930        20
39.940         7
39.950        33
39.960        40
39.970        20
39.980        40
39.990        33
40.000        27
40.010         7
40.020        13
40.030        27
40.040        73
40.050         7
40.060        27
40.070        60
40.080         7
40.090        20
40.100        27
40.110         7
40.120        27
40.130        20
40.140        27
40.150        33
40.160        13
40.170        13
40.180        20
40.190        53
40.200        40
40.210        20
40.220        20
40.230        13
40.240        33
40.250        27
40.260        53
40.270        13
40.280        13
40.290        33
40.300        27
40.310        40
40.320        33
40.330        40
40.340        40
40.350        33
40.360        20
40.370        27
40.380        13
40.390        13
40.400        13
40.410        13
40.420        40
40.430        13
40.440        13
40.450        13
40.460        13
40.470        13
40.480        20
40.490        13
40.500         7
40.510        20
40.520        27
40.530        13
40.540         7
40.550        27
40.560        20
40.570        27
40.580        33
40.590        13
40.600        13
40.610        40
40.620        27
40.630         7
40.640         7
40.650        33
40.660        13
40.670        33
40.680        13
40.690        20
40.700        27
40.710        13
40.720         0
40.730        13
40.740        33
40.750        40
40.760        47
40.770        40
40.780         7
40.790        33
40.800        20
40.810         7
40.820        20
40.830        47
40.840        13
40.850         7
40.860        33
40.870        13
40.880        20
40.890        27
40.900         7
40.910        13
40.920        20
40.930        40
40.940        53
40.950        40
40.960        33
40.970        27
40.980        27
40.990        47
41.000        13
41.010        13
41.020        27
41.030        13
41.040        33
41.050        20
41.060         0
41.070        20
41.080        20
41.090        40
41.100        20
41.110        20
41.120        13
41.130        13
41.140        13
41.150        33
41.160        13
41.170        20
41.180        27
41.190        27
41.200        13
41.210        13
41.220        40
41.230        40
41.240        27
41.250        13
41.260        53
41.270        47
41.280        13
41.290        13
41.300        40
41.310        40
41.320        20
41.330        27
41.340        13
41.350        33
41.360        27
41.370        33
41.380        13
41.390        27
41.400        13
41.410        13
41.420        13
41.430        20
41.440        60
41.450        13
41.460        40
41.470        27
41.480        27
41.490         0
41.500         7
41.510         7
41.520        40
41.530        20
41.540        13
41.550        13
41.560        13
41.570        27
41.580         7
41.590        13
41.600         7
41.610        27
41.620        20
41.630        47
41.640        20
41.650        20
41.660        13
41.670        27
41.680        33
41.690        20
41.700        47
41.710        13
41.720        40
41.730        47
41.740        13
41.750        20
41.760        27
41.770        53
41.780        20
41.790         7
41.800        47
41.810        27
41.820        27
41.830        47
41.840        13
41.850        27
41.860        33
41.870        20
41.880        27
41.890         0
41.900        33
41.910        13
41.920        33
41.930        20
41.940        27
41.950        27
41.960        33
41.970        20
41.980        13
41.990        27
42.000        20
42.010        27
42.020        13
42.030         7
42.040        40
42.050        13
42.060        33
42.070        27
42.080         7
42.090         7
42.100        27
42.110        13
42.120        13
42.130        27
42.140        13
42.150        33
42.160        27
42.170        27
42.180        27
42.190        13
42.200        47
42.210        33
42.220        33
42.230        13
42.240        47
42.250        20
42.260        33
42.270        27
42.280        47
42.290        27
42.300        13
42.310        20
42.320        13
42.330        20
42.340        13
42.350        33
42.360        40
42.370        27
42.380        13
42.390        60
42.400        40
42.410        27
42.420        33
42.430        13
42.440        40
42.450        13
42.460        53
42.470        20
42.480        20
42.490        40
42.500        20
42.510        20
42.520        13
42.530        27
42.540        27
42.550         0
42.560         0
42.570        40
42.580        13
42.590        33
42.600         7
42.610        27
42.620         0
42.630        13
42.640        27
42.650        20
42.660        27
42.670         7
42.680        27
42.690        20
42.700        13
42.710        40
42.720        20
42.730        53
42.740        47
42.750        27
42.760        20
42.770        33
42.780        40
42.790        20
42.800        27
42.810        33
42.820        13
42.830        20
42.840         0
42.850         7
42.860        13
42.870        33
42.880        20
42.890        27
42.900         7
42.910        47
42.920        27
42.930         7
42.940        27
42.950         7
42.960        27
42.970        27
42.980        33
42.990        20
43.000        27
43.010        40
43.020        27
43.030        53
43.040        27
43.050        53
43.060        53
43.070        20
43.080        27
43.090         0
43.100        53
43.110        33
43.120        20
43.130        67
43.140        33
43.150        40
43.160        47
43.170        13
43.180         0
43.190       107
43.200        33
43.210        47
43.220        27
43.230        13
43.240        13
43.250        20
43.260        40
43.270        67
43.280        20
43.290         0
43.300        27
43.310        47
43.320        20
43.330        20
43.340        20
43.350        13
43.360        13
43.370        13
43.380        40
43.390         0
43.400        20
43.410        13
43.420         0
43.430        20
43.440        27
43.450        13
43.460        33
43.470         7
43.480        33
43.490        40
43.500        33
43.510         7
43.520         7
43.530        13
43.540        20
43.550         7
43.560         7
43.570        20
43.580        20
43.590        33
43.600        27
43.610        20
43.620        47
43.630         7
43.640        20
43.650         0
43.660        13
43.670        33
43.680        53
43.690        13
43.700        33
43.710        33
43.720        20
43.730         7
43.740        47
43.750        27
43.760        20
43.770        13
43.780        13
43.790        20
43.800        20
43.810        27
43.820        20
43.830        20
43.840        20
43.850        67
43.860        27
43.870        27
43.880        20
43.890        13
43.900        40
43.910         7
43.920        20
43.930        20
43.940        13
43.950         7
43.960        47
43.970        33
43.980        20
43.990        13
44.000        20
44.010        40
44.020        20
44.030        20
44.040        20
44.050        27
44.060         7
44.070        20
44.080        33
44.090        13
44.100        27
44.110        53
44.120        13
44.130        40
44.140        33
44.150        20
44.160        27
44.170        33
44.180        20
44.190        27
44.200        40
44.210        13
44.220        20
44.230         7
44.240        27
44.250        20
44.260        40
44.270        13
44.280        13
44.290        27
44.300        33
44.310        27
44.320        33
44.330        40
44.340         7
44.350        27
44.360        13
44.370        27
44.380        13
44.390        33
44.400        20
44.410        40
44.420        27
44.430        20
44.440        67
44.450        20
44.460         7
44.470         7
44.480        20
44.490         7
44.500        27
44.510        53
44.520        33
44.530        20
44.540        33
44.550        20
44.560        27
44.570        20
44.580        20
44.590        20
44.600        53
44.610        40
44.620        13
44.630        20
44.640        27
44.650        13
44.660        13
44.670        40
44.680        20
44.690        33
44.700        13
44.710        13
44.720        13
44.730        27
44.740        13
44.750        33
44.760        20
44.770        27
44.780        27
44.790        47
44.800        40
44.810        13
44.820        20
44.830        47
44.840        27
44.850        13
44.860        53
44.870        33
44.880        27
44.890        20
44.900        33
44.910         7
44.920        20
44.930        13
44.940        13
44.950        53
44.960        20
44.970         7
44.980        27
44.990        33
45.000        33
45.010        47
45.020        20
45.030        33
45.040        60
45.050         7
45.060         7
45.070        13
45.080        27
45.090        13
45.100        20
45.110        20
45.120        27
45.130        27
45.140        13
45.150        13
45.160        40
45.170        20
45.180        13
45.190        20
45.200        27
45.210        40
45.220        27
45.230        33
45.240        20
45.250        13
45.260        20
45.270        27
45.280        40
45.290        13
45.300        60
45.310        20
45.320        27
45.330         7
45.340        33
45.350        33
45.360        40
45.370        47
45.380        47
45.390        47
45.400        20
45.410        20
45.420        27
45.430        40
45.440        33
45.450        40
45.460        27
45.470        13
45.480        20
45.490        40
45.500        20
45.510        27
45.520        40
45.530        20
45.540        47
45.550        40
45.560        47
45.570        40
45.580        20
45.590        27
45.600        33
45.610        40
45.620        13
45.630        33
45.640        33
45.650        47
45.660        13
45.670        53
45.680        27
45.690        27
45.700        33
45.710        27
45.720        60
45.730        53
45.740        27
45.750        13
45.760        40
45.770        40
45.780        33
45.790        67
45.800        40
45.810        40
45.820        13
45.830        20
45.840        47
45.850       233
45.860        73
45.870        40
45.880        33
45.890        53
45.900        20
45.910        47
45.920        40
45.930        53
45.940        27
45.950        60
45.960        47
45.970        13
45.980        33
45.990        20
46.000        13
46.010        27
46.020        33
46.030        33
46.040        20
46.050        47
46.060         7
46.070        13
46.080        13
46.090        27
46.100        27
46.110        13
46.120        47
46.130        27
46.140        33
46.150        27
46.160        33
46.170        27
46.180        47
46.190        53
46.200        20
46.210        33
46.220        40
46.230        13
46.240         7
46.250        47
46.260        27
46.270        40
46.280        40
46.290        40
46.300        13
46.310        33
46.320        47
46.330        47
46.340        40
46.350        47
46.360        33
46.370        67
46.380        27
46.390        47
46.400        20
46.410        33
46.420        40
46.430        20
46.440        33
46.450        27
46.460        13
46.470        33
46.480         7
46.490        20
46.500        27
46.510        27
46.520        73
46.530        33
46.540        40
46.550        20
46.560        33
46.570        47
46.580        40
46.590         0
46.600         7
46.610        33
46.620        13
46.630        27
46.640        27
46.650        33
46.660        47
46.670        53
46.680        33
46.690        33
46.700        67
46.710        73
46.720        60
46.730        60
46.740        33
46.750        33
46.760        27
46.770        20
46.780        80
46.790        47
46.800        87
46.810        87
46.820        93
46.830        40
46.840        80
46.850        53
46.860        93
46.870        47
46.880        60
46.890        47
46.900        53
46.910        47
46.920        60
46.930        73
46.940        33
46.950        33
46.960        40
46.970        53
46.980        40
46.990        20
47.000        80
47.010        33
47.020        47
47.030        87
47.040        53
47.050        73
47.060        73
47.070        60
47.080        53
47.090        87
47.100       127
47.110        60
47.120       133
47.130       160
47.140       207
47.150       307
47.160       433
47.170       566
47.180       466
47.190       553
47.200       500
47.210       473
47.220       393
47.230       267
47.240       227
47.250       227
47.260       167
47.270       153
47.280       100
47.290        60
47.300       127
47.310       100
47.320        93
47.330        87
47.340        67
47.350       100
47.360       100
47.370        93
47.380        80
47.390        73
47.400        47
47.410        87
47.420       100
47.430        87
47.440        87
47.450        67
47.460        33
47.470        47
47.480        47
47.490        53
47.500        47
47.510        47
47.520        40
47.530        53
47.540        73
47.550        33
47.560        67
47.570        67
47.580        33
47.590        53
47.600        53
47.610        27
47.620        67
47.630        33
47.640        27
47.650        40
47.660        20
47.670        40
47.680        47
47.690        27
47.700        33
47.710        27
47.720        53
47.730        20
47.740        47
47.750        47
47.760        40
47.770        33
47.780        53
47.790        53
47.800        27
47.810        47
47.820        53
47.830        20
47.840        27
47.850        53
47.860        27
47.870        13
47.880         7
47.890        53
47.900        13
47.910        27
47.920        20
47.930        33
47.940        47
47.950        47
47.960        40
47.970        53
47.980        13
47.990        33
48.000        27
48.010        47
48.020        20
48.030         7
48.040        13
48.050        33
48.060        20
48.070        20
48.080        40
48.090        13
48.100        40
48.110        40
48.120        20
48.130         7
48.140        20
48.150        40
48.160        13
48.170        40
48.180        33
48.190        33
48.200        13
48.210        47
48.220        40
48.230        13
48.240        27
48.250        53
48.260        40
48.270        53
48.280        13
48.290        27
48.300        60
48.310        20
48.320        47
48.330        27
48.340        40
48.350        40
48.360        53
48.370        33
48.380        40
48.390        47
48.400        13
48.410        60
48.420        20
48.430        80
48.440        47
48.450        40
48.460        73
48.470        13
48.480        73
48.490        60
48.500        40
48.510        40
48.520        87
48.530        67
48.540        67
48.550       100
48.560        20
48.570        47
48.580        53
48.590        53
48.600        27
48.610        33
48.620        53
48.630        20
48.640        33
48.650        80
48.660        47
48.670        47
48.680        47
48.690        27
48.700        60
48.710        33
48.720        27
48.730        13
48.740        13
48.750        13
48.760        40
48.770        33
48.780        40
48.790        27
48.800        13
48.810        20
48.820        20
48.830        60
48.840        27
48.850        33
48.860        27
48.870        13
48.880        27
48.890        20
48.900        20
48.910        47
48.920        20
48.930        33
48.940        33
48.950        27
48.960         7
48.970        40
48.980        27
48.990        67
49.000        20
49.010        60
49.020        47
49.030        20
49.040        20
49.050        13
49.060        13
49.070        33
49.080        20
49.090        13
49.100        60
49.110        27
49.120         7
49.130        47
49.140        73
49.150        33
49.160        20
49.170        33
49.180        53
49.190        33
49.200        27
49.210        40
49.220        27
49.230        20
49.240        27
49.250        40
49.260        53
49.270         7
49.280        40
49.290        20
49.300        27
49.310        13
49.320        20
49.330        47
49.340        40
49.350        20
49.360        40
49.370        20
49.380        20
49.390        40
49.400        13
49.410        20
49.420        13
49.430        47
49.440        53
49.450        13
49.460        27
49.470        33
49.480        33
49.490        33
49.500        13
49.510        47
49.520        20
49.530        20
49.540        27
49.550        27
49.560        20
49.570        27
49.580        40
49.590        20
49.600        20
49.610        33
49.620        13
49.630         7
49.640        20
49.650        40
49.660        53
49.670        13
49.680        53
49.690        13
49.700        40
49.710        33
49.720        27
49.730        27
49.740        13
49.750         7
49.760        33
49.770        13
49.780        33
49.790        20
49.800        33
49.810        27
49.820        47
49.830        13
49.840        27
49.850        27
49.860        27
49.870        60
49.880        27
49.890        47
49.900        40
49.910        73
49.920        47
49.930        20
49.940        33
49.950        27
49.960        40
49.970        40
49.980        33
49.990        27
50.000        53
50.010        47
50.020        40
50.030        47
50.040        33
50.050        20
50.060         7
50.070        33
50.080        53
50.090        33
50.100        27
50.110        20
50.120        20
50.130        67
50.140        27
50.150        20
50.160        27
50.170        40
50.180        27
50.190        20
50.200        27
50.210        13
50.220        20
50.230        33
50.240        20
50.250        27
50.260        20
50.270        73
50.280        33
50.290        13
50.300        27
50.310        60
50.320        27
50.330        13
50.340        53
50.350        20
50.360        47
50.370        33
50.380        40
50.390        47
50.400        27
50.410         7
50.420        33
50.430        20
50.440        13
50.450        40
50.460        27
50.470        13
50.480         7
50.490        13
50.500        20
50.510        40
50.520         0
50.530         0
50.540        40
50.550         0
50.560        33
50.570        33
50.580        27
50.590        40
50.600        27
50.610        60
50.620        53
50.630        40
50.640        40
50.650       120
50.660        73
50.670        67
50.680       147
50.690       100
50.700       120
50.710       127
50.720       167
50.730       187
50.740       187
50.750       200
50.760       187
50.770       140
50.780       167
50.790       200
50.800       213
50.810       187
50.820       213
50.830       133
50.840       147
50.850       160
50.860       167
50.870       233
50.880       213
50.890       187
50.900       140
50.910       240
50.920       260
50.930       247
50.940       153
50.950       127
50.960       200
50.970       180
50.980       187
50.990       200
51.000       180
51.010       113
51.020       267
51.030       213
51.040       180
51.050       167
51.060       167
51.070       133
51.080       193
51.090       213
51.100       247
51.110       207
51.120       240
51.130       207
51.140       227
51.150       220
51.160       167
51.170       187
51.180       200
51.190       147
51.200       220
51.210       227
51.220       167
51.230       193
51.240       233
51.250       240
51.260       260
51.270       193
51.280       180
51.290       140
51.300       200
51.310       173
51.320       260
51.330       180
51.340       267
51.350       207
51.360       180
51.370       173
51.380       247
51.390       247
51.400       207
51.410       207
51.420       147
51.430       253
51.440       167
51.450       200
51.460       153
51.470       220
51.480       220
51.490       227
51.500       193
51.510       227
51.520       207
51.530       220
51.540       213
51.550       180
51.560       193
51.570       180
51.580       260
51.590       273
51.600       253
51.610       193
51.620       220
51.630       240
51.640       200
51.650       280
51.660       253
51.670       167
51.680       267
51.690       293
51.700       220
51.710       227
51.720       193
51.730       200
51.740       233
51.750       193
51.760       213
51.770       207
51.780       240
51.790       267
51.800       220
51.810       287
51.820       220
51.830       247
51.840       273
51.850       273
51.860       267
51.870       213
51.880       260
51.890       227
51.900       313
51.910       253
51.920       260
51.930       240
51.940       273
51.950       287
51.960       267
51.970       247
51.980       320
51.990       287
52.000       260
52.010       253
52.020       313
52.030       313
52.040       260
52.050       320
52.060       293
52.070       280
52.080       273
52.090       280
52.100       267
52.110       320
52.120       333
52.130       413
52.140       307
52.150       407
52.160       320
52.170       486
52.180       433
52.190       387
52.200       340
52.210       420
52.220       446
52.230       520
52.240       500
52.250       606
52.260       640
52.270       793
52.280       686
52.290         0
52.300       953
52.310      1173
52.320      1286
52.330      1333
52.340      1519
52.350      1346
52.360      1493
52.370      1559
52.380      1773
52.390      1659
52.400      1793
52.410      1639
52.420      1546
52.430      1899
52.440      1973
52.450      2073
52.460      2979
52.470      3599
52.480      4232
52.490      5238
52.500      5738
52.510      8237
52.520     11275
52.530     16114
52.540     27043
52.550     44642
52.560     68539
52.570     89504
52.580    100680
52.590    101473
52.600     97094
52.610     87272
52.620     71032
52.630     52779
52.640     33713
52.650     23990
52.660     19559
52.670     20432
52.680     24257
52.690     31861
52.700     45002
52.710     53865
52.720     59110
52.730     60363
52.740     56704
52.750     52266
52.760     41797
52.770     30235
52.780     19599
52.790     12921
52.800      9470
52.810      7204
52.820      6824
52.830      6004
52.840      5638
52.850      5411
52.860      4758
52.870      4598
52.880      4085
52.890      3385
52.900      2879
52.910      2292
52.920      1679
52.930      1539
52.940      1246
52.950      1240
52.960       893
52.970       880
52.980       920
52.990       693
53.000       706
53.010       593
53.020       793
53.030       766
53.040       560
53.050       646
53.060       533
53.070       506
53.080       540
53.090       526
53.100       500
53.110       546
53.120       460
53.130       553
53.140       466
53.150       453
53.160       433
53.170       380
53.180       453
53.190       367
53.200       347
53.210       353
53.220       453
53.230       367
53.240       353
53.250       300
53.260       367
53.270       273
53.280       413
53.290       413
53.300       367
53.310       426
53.320       347
53.330       293
53.340       307
53.350       307
53.360       287
53.370       367
53.380       340
53.390       313
53.400       387
53.410       273
53.420       387
53.430       340
53.440       340
53.450       307
53.460       267
53.470       260
53.480       300
53.490       240
53.500       320
53.510       220
53.520       273
53.530       253
53.540       220
53.550       260
53.560       273
53.570       293
53.580       327
53.590       300
53.600       253
53.610       273
53.620       213
53.630       227
53.640       267
53.650       253
53.660       267
53.670       233
53.680       193
53.690       220
53.700       280
53.710       240
53.720       220
53.730       187
53.740       213
53.750       267
53.760       240
53.770       280
53.780       200
53.790       267
53.800       220
53.810       200
53.820       280
53.830       213
53.840       233
53.850       253
53.860       267
53.870       260
53.880       160
53.890       327
53.900       293
53.910       220
53.920       253
53.930       220
53.940       213
53.950       293
53.960       260
53.970       147
53.980       140
53.990       207
54.000       200
54.010       247
54.020       133
54.030       180
54.040       213
54.050       193
54.060       180
54.070       193
54.080       200
54.090       193
54.100       207
54.110       193
54.120       160
54.130       173
54.140       160
54.150       153
54.160       247
54.170       167
54.180       153
54.190       200
54.200       167
54.210       293
54.220       160
54.230       160
54.240       187
54.250       187
54.260       153
54.270       180
54.280       220
54.290       140
54.300       180
54.310       167
54.320       160
54.330       167
54.340       147
54.350       247
54.360       207
54.370       140
54.380       127
54.390       187
54.400       213
54.410       187
54.420       107
54.430       167
54.440       160
54.450       187
54.460       213
54.470       153
54.480       193
54.490       133
54.500       160
54.510       153
54.520       133
54.530       220
54.540       140
54.550       200
54.560       180
54.570       167
54.580       127
54.590       173
54.600       153
54.610       220
54.620       160
54.630       160
54.640       240
54.650       173
54.660       180
54.670       173
54.680       207
54.690       147
54.700       160
54.710       207
54.720       140
54.730       160
54.740       193
54.750       140
54.760       160
54.770       193
54.780       187
54.790       180
54.800       213
54.810       133
54.820       193
54.830       247
54.840       173
54.850       220
54.860       240
54.870       173
54.880       160
54.890       180
54.900       120
54.910       167
54.920       180
54.930       173
54.940       173
54.950       167
54.960       200
54.970       247
54.980       200
54.990       140
55.000       180
55.010       147
55.020       147
55.030       127
55.040       207
55.050       127
55.060       193
55.070       180
55.080       173
55.090       167
55.100       187
55.110       153
55.120       153
55.130       140
55.140       140
55.150       113
55.160       180
55.170       153
55.180       260
55.190       147
55.200       127
55.210       140
55.220       147
55.230       100
55.240       133
55.250       153
55.260       187
55.270       187
55.280       160
55.290       120
55.300        93
55.310       113
55.320       160
55.330       127
55.340       173
55.350       213
55.360       173
55.370       127
55.380       120
55.390       167
55.400       147
55.410       127
55.420       133
55.430        87
55.440       180
55.450       167
55.460       140
55.470       187
55.480       160
55.490       187
55.500       180
55.510       153
55.520       220
55.530       193
55.540       113
55.550       173
55.560       153
55.570        47
55.580       180
55.590       100
55.600       167
55.610       107
55.620       173
55.630       167
55.640       107
55.650       193
55.660        73
55.670       140
55.680       147
55.690       100
55.700       147
55.710       113
55.720       107
55.730       193
55.740       207
55.750       127
55.760       113
55.770       187
55.780        87
55.790       127
55.800       127
55.810       140
55.820       127
55.830       153
55.840       127
55.850        93
55.860       160
55.870        93
55.880       160
55.890       107
55.900       140
55.910       167
55.920       127
55.930       127
55.940       167
55.950       120
55.960       167
55.970       140
55.980       127
55.990       167
56.000       160
56.010       140
56.020       167
56.030       200
56.040       160
56.050       107
56.060       160
56.070       133
56.080       133
56.090       193
56.100       113
56.110       107
56.120        93
56.130       127
56.140       140
56.150       107
56.160       140
56.170       120
56.180       127
56.190       133
56.200       153
56.210       160
56.220       140
56.230       140
56.240       193
56.250       133
56.260       180
56.270       153
56.280        93
56.290       127
56.300       133
56.310       107
56.320        87
56.330       173
56.340       127
56.350       113
56.360       173
56.370       140
56.380       127
56.390       173
56.400       107
56.410       127
56.420       107
56.430       120
56.440       140
56.450       140
56.460       140
56.470       127
56.480       133
56.490       127
56.500       140
56.510       100
56.520       140
56.530       153
56.540       160
56.550       133
56.560        67
56.570       107
56.580       120
56.590       167
56.600        93
56.610       127
56.620       147
56.630       147
56.640       113
56.650       127
56.660       133
56.670       120
56.680       147
56.690       100
56.700       133
56.710       127
56.720       113
56.730       127
56.740       160
56.750       127
56.760       133
56.770       153
56.780       180
56.790       167
56.800       140
56.810       180
56.820       120
56.830       167
56.840       160
56.850       173
56.860       140
56.870       220
56.880       167
56.890       133
56.900       153
56.910       120
56.920       167
56.930       193
56.940       113
56.950       187
56.960       153
56.970       180
56.980       153
56.990       107
57.000       113
57.010       213
57.020       207
57.030       140
57.040       193
57.050       180
57.060       180
57.070       127
57.080       133
57.090       140
57.100       213
57.110       160
57.120       233
57.130       153
57.140       140
57.150       133
57.160       133
57.170       100
57.180       127
57.190       120
57.200       147
57.210       153
57.220       140
57.230       167
57.240       153
57.250       120
57.260       133
57.270       160
57.280       120
57.290        93
57.300       160
57.310       153
57.320       153
57.330       153
57.340       140
57.350       140
57.360       120
57.370       153
57.380       207
57.390       133
57.400       140
57.410       147
57.420       107
57.430       153
57.440       187
57.450       147
57.460       113
57.470       167
57.480       120
57.490       107
57.500       127
57.510       167
57.520       107
57.530       173
57.540        80
57.550       147
57.560       193
57.570       120
57.580       127
57.590       127
57.600       120
57.610       133
57.620       140
57.630       127
57.640       153
57.650       120
57.660       160
57.670       120
57.680       120
57.690        93
57.700       147
57.710        80
57.720       140
57.730       120
57.740       113
57.750        73
57.760       100
57.770       140
57.780       127
57.790       127
57.800       120
57.810       127
57.820       120
57.830       100
57.840       100
57.850        80
57.860       153
57.870       193
57.880       127
57.890       127
57.900       127
57.910       100
57.920       133
57.930       107
57.940        80
57.950       133
57.960        93
57.970       160
57.980       133
57.990       113
58.000       147
58.010       173
58.020       120
58.030       127
58.040        80
58.050       107
58.060       113
58.070        47
58.080       113
58.090       160
58.100        53
58.110       127
58.120        93
58.130       160
58.140        67
58.150       153
58.160       120
58.170       120
58.180       107
58.190       107
58.200       113
58.210       107
58.220        93
58.230        93
58.240       107
58.250       113
58.260        80
58.270        73
58.280       127
58.290       107
58.300        87
58.310       140
58.320       153
58.330        87
58.340        93
58.350        87
58.360        93
58.370       140
58.380        87
58.390       140
58.400       107
58.410       147
58.420        67
58.430        87
58.440       140
58.450       100
58.460        73
58.470       113
58.480       133
58.490       113
58.500       107
58.510        93
58.520       147
58.530       160
58.540       153
58.550       100
58.560       100
58.570       147
58.580       107
58.590        80
58.600       107
58.610       113
58.620        67
58.630       147
58.640       107
58.650       107
58.660        93
58.670       153
58.680        60
58.690        80
58.700        60
58.710        93
58.720       133
58.730       100
58.740       100
58.750       127
58.760       100
58.770        80
58.780       107
58.790       127
58.800       160
58.810       133
58.820        60
58.830        73
58.840        60
58.850       160
58.860       107
58.870       113
58.880       100
58.890       120
58.900        67
58.910       140
58.920       107
58.930       140
58.940        93
58.950       147
58.960        80
58.970       113
58.980       107
58.990        93
59.000       107
59.010       120
59.020        93
59.030       120
59.040       140
59.050       160
59.060       100
59.070       113
59.080       127
59.090        53
59.100        80
59.110       133
59.120       113
59.130       147
59.140       127
59.150       107
59.160        73
59.170        87
59.180       140
59.190       107
59.200       147
59.210        80
59.220        73
59.230        80
59.240       113
59.250       113
59.260       100
59.270       127
59.280        93
59.290       113
59.300       160
59.310        80
59.320        87
59.330        93
59.340        87
59.350       127
59.360        93
59.370        67
59.380        93
59.390       107
59.400        93
59.410       120
59.420       100
59.430       100
59.440        60
59.450       167
59.460        93
59.470        87
59.480        87
59.490       127
59.500       127
59.510       107
59.520        73
59.530        93
59.540        87
59.550       127
59.560       100
59.570       100
59.580        67
59.590        67
59.600        87
59.610       100
59.620       127
59.630       100
59.640       113
59.650       120
59.660       133
59.670        60
59.680       120
59.690       100
59.700       107
59.710        87
59.720       120
59.730        73
59.740        73
59.750       140
59.760        73
59.770       120
59.780       107
59.790        87
59.800       120
59.810        80
59.820        67
59.830       120
59.840        73
59.850        93
59.860        87
59.870       140
59.880       147
59.890        93
59.900       133
59.910        80
59.920        80
59.930        93
59.940        67
59.950       107
59.960       120
59.970       107
59.980        60
59.990        93
60.000       113
