20.000        40
20.010        20
20.020        40
20.030        13
20.040        27
20.050        27
20.060        27
20.070        47
20.080        40
20.090        47
20.100        47
20.110        47
20.120        27
20.130        33
20.140        67
20.150        60
20.160        53
20.170        87
20.180        13
20.190        20
20.200        47
20.210        67
20.220        27
20.230        40
20.240        13
20.250        40
20.260        13
20.270        60
20.280        53
20.290        40
20.300        33
20.310        40
20.320        53
20.330        47
20.340        27
20.350        47
20.360        27
20.370        40
20.380        27
20.390        27
20.400        53
20.410        47
20.420        40
20.430        27
20.440        27
20.450        67
20.460        40
20.470        33
20.480        20
20.490        33
20.500        40
20.510        40
20.520        53
20.530        53
20.540        33
20.550        53
20.560        33
20.570        47
20.580        13
20.590        47
20.600        13
20.610        40
20.620        40
20.630        47
20.640        53
20.650        20
20.660        47
20.670        47
20.680        27
20.690        60
20.700        40
20.710        47
20.720        27
20.730        47
20.740        27
20.750        40
20.760        20
20.770        40
20.780        40
20.790        20
20.800        40
20.810        13
20.820        47
20.830        33
20.840        27
20.850        60
20.860        27
20.870        67
20.880        20
20.890        60
20.900        20
20.910        40
20.920        47
20.930        47
20.940        80
20.950        33
20.960        20
20.970        33
20.980         7
20.990        60
21.000        13
21.010        47
21.020        33
21.030        33
21.040        53
21.050        20
21.060        33
21.070        33
21.080        33
21.090        13
21.100        33
21.110        33
21.120        33
21.130        27
21.140        53
21.150        33
21.160        53
21.170        20
21.180        53
21.190        20
21.200        20
21.210        47
21.220        40
21.230        40
21.240        40
21.250        27
21.260        20
21.270        27
21.280        40
21.290        40
21.300        40
21.310        47
21.320        27
21.330        80
21.340        40
21.350         7
21.360        13
21.370        20
21.380        40
21.390        60
21.400        47
21.410        47
21.420        40
21.430        20
21.440        27
21.450        67
21.460        20
21.470        80
21.480        67
21.490        53
21.500        33
21.510        20
21.520        60
21.530         7
21.540        47
21.550        60
21.560        33
21.570        40
21.580        40
21.590        27
21.600        33
21.610        33
21.620        20
21.630        60
21.640        67
21.650        60
21.660        33
21.670        27
21.680        67
21.690        33
21.700        27
21.710        33
21.720        33
21.730        33
21.740        33
21.750        40
21.760        53
21.770        40
21.780        60
21.790        53
21.800        47
21.810        33
21.820        33
21.830        40
21.840        27
21.850        80
21.860        53
21.870        40
21.880        40
21.890        40
21.900        47
21.910        20
21.920        60
21.930        27
21.940        60
21.950        33
21.960        33
21.970        53
21.980        40
21.990        67
22.000        60
22.010        40
22.020        40
22.030        60
22.040        40
22.050        40
22.060        33
22.070        27
22.080        13
22.090        13
22.100        13
22.110        13
22.120        27
22.130        33
22.140        20
22.150        27
22.160        53
22.170        13
22.180        20
22.190        60
22.200        53
22.210        40
22.220        40
22.230        33
22.240        47
22.250        33
22.260        27
22.270        20
22.280        53
22.290        60
22.300        67
22.310        80
22.320        53
22.330        33
22.340        40
22.350        87
22.360        40
22.370        20
22.380        87
22.390        80
22.400        73
22.410        40
22.420        67
22.430       140
22.440        33
22.450        80
22.460       113
22.470        93
22.480        73
22.490        93
22.500       120
22.510       100
22.520        73
22.530        93
22.540       113
22.550       100
22.560        87
22.570        53
22.580        60
22.590        47
22.600        33
22.610        53
22.620        33
22.630        87
22.640        40
22.650        33
22.660        60
22.670        47
22.680        67
22.690        67
22.700        47
22.710        13
22.720        20
22.730        33
22.740        47
22.750        60
22.760        20
22.770        60
22.780        27
22.790        20
22.800        33
22.810        67
22.820        27
22.830        33
22.840        27
22.850        73
22.860        47
22.870        47
22.880        33
22.890        40
22.900        53
22.910        27
22.920        13
22.930         7
22.940        13
22.950        53
22.960        20
22.970        33
22.980        27
22.990        13
23.000        40
23.010        47
23.020         7
23.030        33
23.040        20
23.050        27
23.060        60
23.070        73
23.080        27
23.090        33
23.100        27
23.110        33
23.120        47
23.130        27
23.140        40
23.150        40
23.160        40
23.170        33
23.180        47
23.190        47
23.200        40
23.210        27
23.220        27
23.230        13
23.240        13
23.250        20
23.260        33
23.270        67
23.280        33
23.290        27
23.300        47
23.310        33
23.320        47
23.330         0
23.340        40
23.350        33
23.360        27
23.370        40
23.380        47
23.390         7
23.400        27
23.410        33
23.420        40
23.430        33
23.440        40
23.450        33
23.460        27
23.470        53
23.480        40
23.490        27
23.500        33
23.510        40
23.520        47
23.530        80
23.540        40
23.550         0
23.560        33
23.570        40
23.580        60
23.590        20
23.600        13
23.610        47
23.620        40
23.630        20
23.640        60
23.650        13
23.660        27
23.670        53
23.680        60
23.690        53
23.700        20
23.710        27
23.720        53
23.730        27
23.740        33
23.750        20
23.760        53
23.770        33
23.780        60
23.790        27
23.800        13
23.810        53
23.820        40
23.830         7
23.840         7
23.850        33
23.860        27
23.870        47
23.880        20
23.890        40
23.900        33
23.910        53
23.920        27
23.930        33
23.940        40
23.950        13
23.960        40
23.970        27
23.980         7
23.990        47
24.000        27
24.010        40
24.020        47
24.030        47
24.040        27
24.050        47
24.060        13
24.070        20
24.080        20
24.090        47
24.100        27
24.110        27
24.120        33
24.130        40
24.140        27
24.150        27
24.160        20
24.170        33
24.180        20
24.190        33
24.200        27
24.210        40
24.220        20
24.230        33
24.240        20
24.250        40
24.260        53
24.270        20
24.280        33
24.290        33
24.300        20
24.310        20
24.320        40
24.330        20
24.340         7
24.350        33
24.360        20
24.370        27
24.380        47
24.390        27
24.400        67
24.410        47
24.420        20
24.430        27
24.440        33
24.450         7
24.460        27
24.470        13
24.480        33
24.490        47
24.500        33
24.510        13
24.520        20
24.530        40
24.540        53
24.550        27
24.560        13
24.570        47
24.580        40
24.590        20
24.600        13
24.610        47
24.620        33
24.630        27
24.640        47
24.650        27
24.660        13
24.670        27
24.680        20
24.690        20
24.700        53
24.710        20
24.720        27
24.730        27
24.740         7
24.750        13
24.760        27
24.770        33
24.780        33
24.790        27
24.800         7
24.810         7
24.820        40
24.830         0
24.840        13
24.850        33
24.860        33
24.870        40
24.880        40
24.890        40
24.900        33
24.910        13
24.920        33
24.930        27
24.940        33
24.950        27
24.960        20
24.970        27
24.980        20
24.990        27
25.000        27
25.010        47
25.020        27
25.030        20
25.040        47
25.050        47
25.060        27
25.070        20
25.080        27
25.090        20
25.100        27
25.110        47
25.120        60
25.130        13
25.140        47
25.150        40
25.160        33
25.170         7
25.180        47
25.190        40
25.200        13
25.210        33
25.220        53
25.230        53
25.240        47
25.250        40
25.260        27
25.270        13
25.280        40
25.290        53
25.300        27
25.310        27
25.320        53
25.330        33
25.340         7
25.350        80
25.360        60
25.370        40
25.380        20
25.390        13
25.400        20
25.410        47
25.420        47
25.430        40
25.440        47
25.450        47
25.460        27
25.470        53
25.480        40
25.490        40
25.500        60
25.510        73
25.520        27
25.530        13
25.540        33
25.550        27
25.560        80
25.570        40
25.580        87
25.590        67
25.600        80
25.610       107
25.620       180
25.630        53
25.640       147
25.650       147
25.660       167
25.670       133
25.680        80
25.690        67
25.700        73
25.710        80
25.720        93
25.730        40
25.740        53
25.750        27
25.760        60
25.770        27
25.780        20
25.790        27
25.800        20
25.810        53
25.820        13
25.830        40
25.840        27
25.850        40
25.860        27
25.870        47
25.880        33
25.890        40
25.900        53
25.910        13
25.920         7
25.930        27
25.940        27
25.950        20
25.960         7
25.970        27
25.980         7
25.990        40
26.000        40
26.010        20
26.020        27
26.030        27
26.040        20
26.050         7
26.060        40
26.070        33
26.080         7
26.090        40
26.100        20
26.110        53
26.120        20
26.130         7
26.140        60
26.150        33
26.160        20
26.170        40
26.180        13
26.190        13
26.200        13
26.210        20
26.220        27
26.230        13
26.240        20
26.250        73
26.260        47
26.270        27
26.280        33
26.290        33
26.300        53
26.310        27
26.320        27
26.330        20
26.340        20
26.350         7
26.360         0
26.370        27
26.380        40
26.390         0
26.400        40
26.410         7
26.420        67
26.430        20
26.440        13
26.450        20
26.460        27
26.470        13
26.480        47
26.490        20
26.500        40
26.510        33
26.520        40
26.530        47
26.540        27
26.550        33
26.560        27
26.570        13
26.580        13
26.590        47
26.600        33
26.610        13
26.620        40
26.630         0
26.640        33
26.650        27
26.660        33
26.670        33
26.680        33
26.690         7
26.700        13
26.710        33
26.720        20
26.730        20
26.740        40
26.750        27
26.760         7
26.770        33
26.780        20
26.790        20
26.800        20
26.810        40
26.820        27
26.830        40
26.840        20
26.850        20
26.860        53
26.870        27
26.880        20
26.890        27
26.900        13
26.910        53
26.920        27
26.930        20
26.940        27
26.950        27
26.960        27
26.970        20
26.980        27
26.990        20
27.000        13
27.010        40
27.020        20
27.030        27
27.040        20
27.050        47
27.060        20
27.070        53
27.080        20
27.090        40
27.100        20
27.110        27
27.120        53
27.130        33
27.140        40
27.150        13
27.160        20
27.170        27
27.180        20
27.190        13
27.200        33
27.210        27
27.220        53
27.230        13
27.240        27
27.250        47
27.260        27
27.270        40
27.280        27
27.290        33
27.300        27
27.310        33
27.320        40
27.330        47
27.340        20
27.350        27
27.360         7
27.370        40
27.380         7
27.390        47
27.400        40
27.410        33
27.420        13
27.430        40
27.440        20
27.450        20
27.460        33
27.470        27
27.480        20
27.490        13
27.500        13
27.510        20
27.520        27
27.530        33
27.540        53
27.550        33
27.560        33
27.570        13
27.580        20
27.590        13
27.600        20
27.610        20
27.620        27
27.630        13
27.640        27
27.650        20
27.660        40
27.670         7
27.680        27
27.690         7
27.700        40
27.710        20
27.720        33
27.730        13
27.740        47
27.750        27
27.760        33
27.770        33
27.780        20
27.790        47
27.800         7
27.810        40
27.820        20
27.830        33
27.840        20
27.850        27
27.860        27
27.870        33
27.880        33
27.890        27
27.900        27
27.910        13
27.920        20
27.930        33
27.940        33
27.950        13
27.960        20
27.970        33
27.980         7
27.990        20
28.000        33
28.010        13
28.020        13
28.030         0
28.040        20
28.050        27
28.060        20
28.070        40
28.080        13
28.090        13
28.100        13
28.110        20
28.120        27
28.130        13
28.140        27
28.150        47
28.160        20
28.170        47
28.180        47
28.190        20
28.200        40
28.210        33
28.220        40
28.230        13
28.240        40
28.250        27
28.260         7
28.270        20
28.280        13
28.290        13
28.300        33
28.310        20
28.320        27
28.330        20
28.340        27
28.350        33
28.360        53
28.370        27
28.380        27
28.390        13
28.400        33
28.410        33
28.420        27
28.430        27
28.440         7
28.450        27
28.460        13
28.470        33
28.480        27
28.490        27
28.500        47
28.510        20
28.520        33
28.530        27
28.540        20
28.550        13
28.560        27
28.570        13
28.580        47
28.590         0
28.600        33
28.610         7
28.620        20
28.630        13
28.640        33
28.650        47
28.660        27
28.670        20
28.680        40
28.690        20
28.700        13
28.710        27
28.720        40
28.730        20
28.740        20
28.750         7
28.760        27
28.770        33
28.780        13
28.790        13
28.800        33
28.810        33
28.820        20
28.830        13
28.840        20
28.850        27
28.860        27
28.870        40
28.880        47
28.890        27
28.900         7
28.910        47
28.920        13
28.930        13
28.940        27
28.950        20
28.960        13
28.970         7
28.980        27
28.990        13
29.000        33
29.010        33
29.020        13
29.030        13
29.040        13
29.050        27
29.060        27
29.070        13
29.080        27
29.090         7
29.100        40
29.110        13
29.120        13
29.130        13
29.140        20
29.150        47
29.160        33
29.170        20
29.180        27
29.190        13
29.200        40
29.210        20
29.220        33
29.230         7
29.240        33
29.250         7
29.260        13
29.270        13
29.280        40
29.290        20
29.300        20
29.310        33
29.320        20
29.330        13
29.340        13
29.350        27
29.360        33
29.370         7
29.380        33
29.390         7
29.400        27
29.410        40
29.420        33
29.430         7
29.440        27
29.450        27
29.460        13
29.470        27
29.480        27
29.490        33
29.500        33
29.510        13
29.520        40
29.530        13
29.540        13
29.550        20
29.560        33
29.570        33
29.580         7
29.590        27
29.600        20
29.610         7
29.620        47
29.630         0
29.640        33
29.650        13
29.660        33
29.670         7
29.680         7
29.690         7
29.700        33
29.710        13
29.720         0
29.730        33
29.740        20
29.750        33
29.760        33
29.770        13
29.780        33
29.790        27
29.800        20
29.810        33
29.820        40
29.830        13
29.840        13
29.850        47
29.860        27
29.870         0
29.880        20
29.890        20
29.900        33
29.910        20
29.920        47
29.930        20
29.940        20
29.950        13
29.960        20
29.970        53
29.980        20
29.990        40
30.000        40
30.010         0
30.020        13
30.030         0
30.040        27
30.050        20
30.060        27
30.070        13
30.080        13
30.090        13
30.100        13
30.110        13
30.120        20
30.130        33
30.140        33
30.150        13
30.160        13
30.170        33
30.180        40
30.190        20
30.200        27
30.210        40
30.220         7
30.230        20
30.240        20
30.250        20
30.260        20
30.270        33
30.280        27
30.290        13
30.300        27
30.310        20
30.320         7
30.330        13
30.340        20
30.350        27
30.360        13
30.370        20
30.380        33
30.390        20
30.400        40
30.410        33
30.420         7
30.430        13
30.440        13
30.450        13
30.460        20
30.470        27
30.480        33
30.490         7
30.500        27
30.510        33
30.520        33
30.530        20
30.540        20
30.550        27
30.560        20
30.570        27
30.580        40
30.590        33
30.600        20
30.610        20
30.620        27
30.630        33
30.640        33
30.650         0
30.660        13
30.670        20
30.680        13
30.690        33
30.700         0
30.710        27
30.720        27
30.730        33
30.740        13
30.750        33
30.760        27
30.770         0
30.780        20
30.790        27
30.800         7
30.810        13
30.820        20
30.830        20
30.840         7
30.850        27
30.860        53
30.870        27
30.880         7
30.890        13
30.900        27
30.910        27
30.920        27
30.930        40
30.940        20
30.950         7
30.960        20
30.970        13
30.980        40
30.990        33
31.000        20
31.010         7
31.020         0
31.030        27
31.040        13
31.050        20
31.060         7
31.070        13
31.080        40
31.090        27
31.100        40
31.110        67
31.120        20
31.130        33
31.140        33
31.150        13
31.160         7
31.170        47
31.180        33
31.190        13
31.200        53
31.210        20
31.220        20
31.230        27
31.240        13
31.250        13
31.260        13
31.270        20
31.280        13
31.290         0
31.300        33
31.310        53
31.320        20
31.330        20
31.340        33
31.350        20
31.360        47
31.370        20
31.380        33
31.390        47
31.400        20
31.410         0
31.420        40
31.430        20
31.440        27
31.450        27
31.460         7
31.470        27
31.480        33
31.490        27
31.500         7
31.510        27
31.520        13
31.530        40
31.540        20
31.550        40
31.560        20
31.570        27
31.580        60
31.590         0
31.600        27
31.610        20
31.620         7
31.630        27
31.640        40
31.650        27
31.660        47
31.670        27
31.680       100
31.690        33
31.700        73
31.710        33
31.720        67
31.730        27
31.740        87
31.750        33
31.760        73
31.770        87
31.780        73
31.790        73
31.800       100
31.810       100
31.820       120
31.830       107
31.840       127
31.850       160
31.860       120
31.870        73
31.880       127
31.890       180
31.900       107
31.910       147
31.920       247
31.930       213
31.940       200
31.950       167
31.960       287
31.970       173
31.980       240
31.990       253
32.000       313
32.010       400
32.020       273
32.030       273
32.040       273
32.050       187
32.060       307
32.070       207
32.080       227
32.090       233
32.100       200
32.110       173
32.120       147
32.130       100
32.140       107
32.150        93
32.160       100
32.170        60
32.180        93
32.190        67
32.200        80
32.210        87
32.220        67
32.230        27
32.240        13
32.250        47
32.260        20
32.270        20
32.280        27
32.290        40
32.300        27
32.310        40
32.320        47
32.330        13
32.340        33
32.350        13
32.360        40
32.370         7
32.380        33
32.390        27
32.400        20
32.410        27
32.420        40
32.430        73
32.440        20
32.450        27
32.460        47
32.470        53
32.480        20
32.490        33
32.500        13
32.510        40
32.520        20
32.530        27
32.540        33
32.550        40
32.560        13
32.570        20
32.580        27
32.590        13
32.600         7
32.610         7
32.620        27
32.630        67
32.640        33
32.650        53
32.660        33
32.670         7
32.680         7
32.690        13
32.700        13
32.710        20
32.720        47
32.730        20
32.740        20
32.750        33
32.760        33
32.770        27
32.780        20
32.790        20
32.800        13
32.810        27
32.820        20
32.830         7
32.840        27
32.850        20
32.860        40
32.870        20
32.880        33
32.890        33
32.900        20
32.910        33
32.920        20
32.930        33
32.940        13
32.950        33
32.960        13
32.970        47
32.980        27
32.990        40
33.000        40
33.010         7
33.020        13
33.030         7
33.040        20
33.050         7
33.060        20
33.070        13
33.080        27
33.090        13
33.100        20
33.110        13
33.120        47
33.130        33
33.140         7
33.150        27
33.160        33
33.170        13
33.180         7
33.190        40
33.200        20
33.210        60
33.220        27
33.230        13
33.240        13
33.250        20
33.260        60
33.270        13
33.280        20
33.290         7
33.300        27
33.310        20
33.320         7
33.330        27
33.340        33
33.350        27
33.360        20
33.370        20
33.380        13
33.390        33
33.400         7
33.410         7
33.420        27
33.430        13
33.440         7
33.450        20
33.460        20
33.470        20
33.480        20
33.490        13
33.500        20
33.510        13
33.520        20
33.530        20
33.540        33
33.550        33
33.560        20
33.570        20
33.580         7
33.590        33
33.600        27
33.610        20
33.620         7
33.630        33
33.640        20
33.650        20
33.660        27
33.670        13
33.680        27
33.690        20
33.700        33
33.710        20
33.720        27
33.730        27
33.740        20
33.750        27
33.760         7
33.770        20
33.780         0
33.790        53
33.800        47
33.810        40
33.820        13
33.830         0
33.840        20
33.850        27
33.860        33
33.870         0
33.880        40
33.890         7
33.900         0
33.910        13
33.920        13
33.930        27
33.940        20
33.950        27
33.960        27
33.970        20
33.980        13
33.990        27
34.000        53
34.010        40
34.020        47
34.030        33
34.040        27
34.050         7
34.060        27
34.070        13
34.080        53
34.090        27
34.100         7
34.110        40
34.120        60
34.130        33
34.140        33
34.150         7
34.160         7
34.170        27
34.180        13
34.190        13
34.200        13
34.210        20
34.220        20
34.230        13
34.240        13
34.250        27
34.260        20
34.270        13
34.280        13
34.290        40
34.300        13
34.310         0
34.320        13
34.330        20
34.340        20
34.350        20
34.360        20
34.370        27
34.380        27
34.390         7
34.400        27
34.410        40
34.420        13
34.430        13
34.440        13
34.450         7
34.460        27
34.470        27
34.480         0
34.490        20
34.500        33
34.510        20
34.520        13
34.530        13
34.540        33
34.550        53
34.560        13
34.570        20
34.580        20
34.590        47
34.600        13
34.610        27
34.620        13
34.630        13
34.640        33
34.650         0
34.660        20
34.670        33
34.680         7
34.690        27
34.700        20
34.710        27
34.720        20
34.730        27
34.740        33
34.750        33
34.760        47
34.770        20
34.780         0
34.790        27
34.800         0
34.810        40
34.820        13
34.830         7
34.840        13
34.850        13
34.860        20
34.870        13
34.880        27
34.890        20
34.900        27
34.910        20
34.920        27
34.930        33
34.940        33
34.950        27
34.960        33
34.970        13
34.980        53
34.990        40
35.000        40
35.010        33
35.020        47
35.030        53
35.040        47
35.050        87
35.060        67
35.070        47
35.080        60
35.090        47
35.100        80
35.110       140
35.120       187
35.130       187
35.140       207
35.150       233
35.160       220
35.170       287
35.180       233
35.190       200
35.200       287
35.210       233
35.220       187
35.230       220
35.240       173
35.250       140
35.260       160
35.270       120
35.280       153
35.290       147
35.300        80
35.310        80
35.320        73
35.330        53
35.340        20
35.350        47
35.360        27
35.370        20
35.380        27
35.390        33
35.400        40
35.410         0
35.420         0
35.430        20
35.440        40
35.450        27
35.460        40
35.470        13
35.480        20
35.490        33
35.500        27
35.510        20
35.520        27
35.530        20
35.540        27
35.550        33
35.560         7
35.570         7
35.580        13
35.590        20
35.600        27
35.610        13
35.620        20
35.630        27
35.640        33
35.650        13
35.660         7
35.670        47
35.680        13
35.690        13
35.700        13
35.710        20
35.720        27
35.730        27
35.740        13
35.750        13
35.760        27
35.770        27
35.780        20
35.790        27
35.800         0
35.810         7
35.820        33
35.830        27
35.840        20
35.850        20
35.860        20
35.870        40
35.880         0
35.890        13
35.900        27
35.910        13
35.920        20
35.930        13
35.940        13
35.950        33
35.960        20
35.970        20
35.980         0
35.990        40
36.000         0
36.010        27
36.020        13
36.030        13
36.040         7
36.050         7
36.060        20
36.070        40
36.080        13
36.090        27
36.100         0
36.110        27
36.120        20
36.130        33
36.140         7
36.150        13
36.160        20
36.170        20
36.180        33
36.190        27
36.200        27
36.210        20
36.220         0
36.230        20
36.240        53
36.250        40
36.260        20
36.270         7
36.280        13
36.290         7
36.300         7
36.310        27
36.320         7
36.330        40
36.340        20
36.350        27
36.360        20
36.370        20
36.380         7
36.390        20
36.400        47
36.410         7
36.420        20
36.430        20
36.440        20
36.450        13
36.460        27
36.470        27
36.480         7
36.490         7
36.500         7
36.510        33
36.520        40
36.530        13
36.540        13
36.550        20
36.560        13
36.570        20
36.580        27
36.590        27
36.600         0
36.610        13
36.620        27
36.630        27
36.640        33
36.650        33
36.660        20
36.670        33
36.680        27
36.690        33
36.700        20
36.710        13
36.720        20
36.730        13
36.740        33
36.750         7
36.760        20
36.770        13
36.780        20
36.790        47
36.800        20
36.810        13
36.820        13
36.830        20
36.840        20
36.850        20
36.860         7
36.870        27
36.880        13
36.890        20
36.900        27
36.910        27
36.920         7
36.930        20
36.940        27
36.950        27
36.960        20
36.970        53
36.980        87
36.990        60
37.000         7
37.010        13
37.020        33
37.030        20
37.040        40
37.050        27
37.060        33
37.070         7
37.080        20
37.090        53
37.100        27
37.110        33
37.120        13
37.130        27
37.140        13
37.150        27
37.160        13
37.170        13
37.180        33
37.190        40
37.200        33
37.210        13
37.220         7
37.230        20
37.240        27
37.250        47
37.260        27
37.270         7
37.280        47
37.290        13
37.300         7
37.310        20
37.320        13
37.330        13
37.340         7
37.350        40
37.360         7
37.370        27
37.380        13
37.390         0
37.400        13
37.410        27
37.420         7
37.430         7
37.440        20
37.450        20
37.460         7
37.470        20
37.480         0
37.490         7
37.500         7
37.510        53
37.520        13
37.530        27
37.540         0
37.550         7
37.560        13
37.570        13
37.580         7
37.590        20
37.600        13
37.610        33
37.620        20
37.630        27
37.640        27
37.650         7
37.660        33
37.670        20
37.680        20
37.690        27
37.700        13
37.710        40
37.720        40
37.730         7
37.740        20
37.750        27
37.760        53
37.770        60
37.780        27
37.790        47
37.800        47
37.810        80
37.820       120
37.830       100
37.840       107
37.850        53
37.860       107
37.870        93
37.880        67
37.890        20
37.900        20
37.910        67
37.920        40
37.930        47
37.940        60
37.950        47
37.960        67
37.970         0
37.980         0
37.990        33
38.000         7
38.010         7
38.020         0
38.030        20
38.040         0
38.050         7
38.060        13
38.070        13
38.080        13
38.090        13
38.100        27
38.110        40
38.120        20
38.130        13
38.140         7
38.150        27
38.160        20
38.170        13
38.180        20
38.190        27
38.200        40
38.210        40
38.220        13
38.230         7
38.240        33
38.250         7
38.260        13
38.270        27
38.280         0
38.290        40
38.300         7
38.310         0
38.320        27
38.330        27
38.340        27
38.350        13
38.360         7
38.370        13
38.380        20
38.390        20
38.400         7
38.410        27
38.420         7
38.430        40
38.440         7
38.450        20
38.460         7
38.470        27
38.480        33
38.490        20
38.500        27
38.510        27
38.520        13
38.530        13
38.540        27
38.550        20
38.560        27
38.570        20
38.580        20
38.590        27
38.600         0
38.610        40
38.620         7
38.630        13
38.640        13
38.650        13
38.660        27
38.670        13
38.680        20
38.690        33
38.700        13
38.710        20
38.720        27
38.730        27
38.740        20
38.750        27
38.760        13
38.770        33
38.780        33
38.790        33
38.800        20
38.810         0
38.820         7
38.830        27
38.840        47
38.850        33
38.860        27
38.870        20
38.880        33
38.890        20
38.900        13
38.910        20
38.920         7
38.930         0
38.940         7
38.950        40
38.960        20
38.970        33
38.980        27
38.990        20
39.000        20
39.010        13
39.020        13
39.030        27
39.040        13
39.050        27
39.060         0
39.070         7
39.080        13
39.090         7
39.100        40
39.110        13
39.120         7
39.130        27
39.140        40
39.150        33
39.160        20
39.170        13
39.180        27
39.190        33
39.200        40
39.210        27
39.220        33
39.230        13
39.240         7
39.250        20
39.260         7
39.270        20
39.280        13
39.290        33
39.300        13
39.310        27
39.320        53
39.330        13
39.340         7
39.350        27
39.360         7
39.370        33
39.380        33
39.390        27
39.400        40
39.410        27
39.420        40
39.430        27
39.440        60
39.450        20
39.460        47
39.470        33
39.480        60
39.490        67
39.500        47
39.510        80
39.520        80
39.530        53
39.540        53
39.550        47
39.560        60
39.570       100
39.580        33
39.590        60
39.600        47
39.610        53
39.620        40
39.630        40
39.640        27
39.650        33
39.660        73
39.670        27
39.680        47
39.690        47
39.700        40
39.710        33
39.720        13
39.730        33
39.740        27
39.750        47
39.760        20
39.770        27
39.780        20
39.790        20
39.800        13
39.810        33
39.820         0
39.830        20
39.840        33
39.850        47
39.860         7
39.870        20
39.880        13
39.890        20
39.900        20
39.910        13
39.920         7
39.930         0
39.940         7
39.950         0
39.960         0
39.970        20
39.980        20
39.990         7
40.000        27
40.010        20
40.020        27
40.030         7
40.040        20
40.050        13
40.060        33
40.070         7
40.080        13
40.090         7
40.100        20
40.110        27
40.120         0
40.130        40
40.140         7
40.150        20
40.160        33
40.170        27
40.180         7
40.190         7
40.200        13
40.210        20
40.220        27
40.230        40
40.240         7
40.250        40
40.260        47
40.270        13
40.280        20
40.290        13
40.300        33
40.310        47
40.320        13
40.330         7
40.340        33
40.350         7
40.360        13
40.370         0
40.380        27
40.390        20
40.400        20
40.410        27
40.420        27
40.430        20
40.440        33
40.450         7
40.460        27
40.470         7
40.480        13
40.490        27
40.500        40
40.510        33
40.520        20
40.530        20
40.540        40
40.550         7
40.560        33
40.570        13
40.580        20
40.590        20
40.600        20
40.610         7
40.620        13
40.630        13
40.640        13
40.650        20
40.660        27
40.670         7
40.680        13
40.690        27
40.700         0
40.710         0
40.720        20
40.730        13
40.740        13
40.750        20
40.760        13
40.770        27
40.780        20
40.790        13
40.800        20
40.810        27
40.820        13
40.830        20
40.840        53
40.850        20
40.860        27
40.870        33
40.880         7
40.890         7
40.900         7
40.910        20
40.920        20
40.930        33
40.940        33
40.950         7
40.960        33
40.970        20
40.980        20
40.990        33
41.000        13
41.010        13
41.020        20
41.030        27
41.040         7
41.050        13
41.060        40
41.070        20
41.080        27
41.090        20
41.100        33
41.110        13
41.120        40
41.130        33
41.140        13
41.150        20
41.160        40
41.170        27
41.180        20
41.190        13
41.200        40
41.210        33
41.220        33
41.230        33
41.240        13
41.250        20
41.260        13
41.270        20
41.280        13
41.290        20
41.300        13
41.310         7
41.320        13
41.330        47
41.340        13
41.350        33
41.360        73
41.370        27
41.380        13
41.390        20
41.400        20
41.410        20
41.420        20
41.430        27
41.440        13
41.450        27
41.460        33
41.470        53
41.480        13
41.490        13
41.500        13
41.510         7
41.520        27
41.530        27
41.540        33
41.550        40
41.560        33
41.570        20
41.580        40
41.590        33
41.600        33
41.610        73
41.620        73
41.630        40
41.640        80
41.650        40
41.660        60
41.670        93
41.680        80
41.690        80
41.700       107
41.710       120
41.720        93
41.730       107
41.740        80
41.750        47
41.760       113
41.770        87
41.780        67
41.790        60
41.800        67
41.810        67
41.820        40
41.830        60
41.840        80
41.850        27
41.860        47
41.870        20
41.880        20
41.890        13
41.900        20
41.910        33
41.920         7
41.930        27
41.940         7
41.950         7
41.960        27
41.970        27
41.980         0
41.990        33
42.000         0
42.010        20
42.020        27
42.030        27
42.040         7
42.050        27
42.060        40
42.070         0
42.080         0
42.090        13
42.100        13
42.110        20
42.120         7
42.130        20
42.140        27
42.150        13
42.160        13
42.170         7
42.180         0
42.190        13
42.200        20
42.210        27
42.220        13
42.230        20
42.240        40
42.250         7
42.260        53
42.270         7
42.280         7
42.290        20
42.300        27
42.310        53
42.320        20
42.330        33
42.340        13
42.350        27
42.360        20
42.370        33
42.380        20
42.390         7
42.400        13
42.410        27
42.420        47
42.430        13
42.440        20
42.450        27
42.460        20
42.470         7
42.480        20
42.490        27
42.500        40
42.510         0
42.520         7
42.530        20
42.540         7
42.550        33
42.560        13
42.570        27
42.580         7
42.590        40
42.600         7
42.610        20
42.620        13
42.630        20
42.640        27
42.650        13
42.660        20
42.670        13
42.680        13
42.690        33
42.700        13
42.710        13
42.720         0
42.730        20
42.740        53
42.750        20
42.760        20
42.770        27
42.780         7
42.790        13
42.800        27
42.810        13
42.820        40
42.830        33
42.840        27
42.850         0
42.860         0
42.870        20
42.880        20
42.890        13
42.900        13
42.910         7
42.920        20
42.930         7
42.940        20
42.950         7
42.960        13
42.970        33
42.980        40
42.990        27
43.000         7
43.010        33
43.020        13
43.030        20
43.040        27
43.050        20
43.060        33
43.070         7
43.080        20
43.090        13
43.100        27
43.110        20
43.120        27
43.130        33
43.140        33
43.150        40
43.160        27
43.170        27
43.180        53
43.190        60
43.200        27
43.210        40
43.220        20
43.230        27
43.240        27
43.250        33
43.260        33
43.270        47
43.280        53
43.290        53
43.300        67
43.310        73
43.320        73
43.330       147
43.340       173
43.350       127
43.360       127
43.370       153
43.380       127
43.390       127
43.400       133
43.410       133
43.420       120
43.430       153
43.440        93
43.450        60
43.460       127
43.470        60
43.480        53
43.490        60
43.500       100
43.510        80
43.520        93
43.530        93
43.540        33
43.550        53
43.560        47
43.570        33
43.580        40
43.590        27
43.600        27
43.610        20
43.620        27
43.630        20
43.640        33
43.650         7
43.660        27
43.670        20
43.680        20
43.690        40
43.700        13
43.710        20
43.720        33
43.730         7
43.740         7
43.750        13
43.760        20
43.770        13
43.780         7
43.790        27
43.800         0
43.810        47
43.820        20
43.830        27
43.840        40
43.850        27
43.860         7
43.870        33
43.880        27
43.890        27
43.900        13
43.910        33
43.920        13
43.930        20
43.940        27
43.950        13
43.960        27
43.970        40
43.980        13
43.990        27
44.000        20
44.010        13
44.020         0
44.030        13
44.040         0
44.050        33
44.060        20
44.070        13
44.080        27
44.090         7
44.100         7
44.110        13
44.120        40
44.130        20
44.140        13
44.150        27
44.160        27
44.170        20
44.180        13
44.190        13
44.200        20
44.210        27
44.220        27
44.230        13
44.240         7
44.250        13
44.260         7
44.270        20
44.280        13
44.290        33
44.300         7
44.310        33
44.320        20
44.330        27
44.340        13
44.350        20
44.360         7
44.370        27
44.380        27
44.390        20
44.400        27
44.410        40
44.420        33
44.430         7
44.440        27
44.450         0
44.460         0
44.470        20
44.480         7
44.490        27
44.500        40
44.510         0
44.520        20
44.530         7
44.540        33
44.550        27
44.560        47
44.570         7
44.580         7
44.590        27
44.600         0
44.610        40
44.620        13
44.630        33
44.640        33
44.650        33
44.660        20
44.670        33
44.680         0
44.690        27
44.700        20
44.710        13
44.720        20
44.730        33
44.740        27
44.750        73
44.760        40
44.770        13
44.780        33
44.790        20
44.800        27
44.810        33
44.820        20
44.830        20
44.840        20
44.850        33
44.860        27
44.870        20
44.880        20
44.890        20
44.900        27
44.910         0
44.920        33
44.930        20
44.940        13
44.950        47
44.960        27
44.970        27
44.980        33
44.990        13
45.000        40
45.010        27
45.020        27
45.030        40
45.040        20
45.050        20
45.060        13
45.070        20
45.080        33
45.090        33
45.100        33
45.110        20
45.120        13
45.130        27
45.140        20
45.150        33
45.160         7
45.170        20
45.180         7
45.190        20
45.200        20
45.210         0
45.220        47
45.230        40
45.240        47
45.250         0
45.260        20
45.270        20
45.280        27
45.290        40
45.300        33
45.310        47
45.320        53
45.330        33
45.340        27
45.350        40
45.360        27
45.370        40
45.380        33
45.390        20
45.400        27
45.410        27
45.420        27
45.430        20
45.440        27
45.450        47
45.460        47
45.470        13
45.480        40
45.490        27
45.500        33
45.510        67
45.520        53
45.530        53
45.540        33
45.550        40
45.560        67
45.570        40
45.580        53
45.590        93
45.600        93
45.610        67
45.620        80
45.630        73
45.640        80
45.650       107
45.660        80
45.670        80
45.680        80
45.690        80
45.700       107
45.710        87
45.720        93
45.730       127
45.740       133
45.750       140
45.760       147
45.770       120
45.780       180
45.790       120
45.800       240
45.810       213
45.820       247
45.830       233
45.840       253
45.850       160
45.860       193
45.870       227
45.880       253
45.890       253
45.900       167
45.910       280
45.920       253
45.930       253
45.940       193
45.950       207
45.960       220
45.970       213
45.980       187
45.990       173
46.000       160
46.010       153
46.020       187
46.030       140
46.040       100
46.050       120
46.060       147
46.070       167
46.080        67
46.090        60
46.100        47
46.110       127
46.120        53
46.130        87
46.140        67
46.150        87
46.160        20
46.170        53
46.180        73
46.190        40
46.200        47
46.210        60
46.220        73
46.230        53
46.240        47
46.250        53
46.260        47
46.270        20
46.280        40
46.290        27
46.300        40
46.310        20
46.320        40
46.330        47
46.340        47
46.350        27
46.360        13
46.370        33
46.380        27
46.390        27
46.400        47
46.410        47
46.420        33
46.430        60
46.440        53
46.450        13
46.460        33
46.470        13
46.480        33
46.490        20
46.500        33
46.510        20
46.520        20
46.530         7
46.540        20
46.550        33
46.560        20
46.570        47
46.580        13
46.590        33
46.600        27
46.610        33
46.620        20
46.630        20
46.640        20
46.650        27
46.660        40
46.670        33
46.680        13
46.690        33
46.700        20
46.710        27
46.720        27
46.730        20
46.740        13
46.750         7
46.760        13
46.770        20
46.780        13
46.790        20
46.800        27
46.810        20
46.820        20
46.830        13
46.840         7
46.850        33
46.860        20
46.870        13
46.880        20
46.890        13
46.900        40
46.910         7
46.920        20
46.930        13
46.940        20
46.950         0
46.960        20
46.970         0
46.980        13
46.990        27
47.000        27
47.010        20
47.020        13
47.030        20
47.040        27
47.050         7
47.060         7
47.070        27
47.080        20
47.090        13
47.100        27
47.110        27
47.120        27
47.130        40
47.140        27
47.150        13
47.160        33
47.170        33
47.180        20
47.190         0
47.200        20
47.210         0
47.220        33
47.230        13
47.240         7
47.250        20
47.260        33
47.270         7
47.280        20
47.290        27
47.300        33
47.310        33
47.320        33
47.330         0
47.340         7
47.350         0
47.360        13
47.370        27
47.380        40
47.390         7
47.400        13
47.410        20
47.420        47
47.430        33
47.440        33
47.450        13
47.460         7
47.470        20
47.480        33
47.490        13
47.500        53
47.510        20
47.520         7
47.530        20
47.540         7
47.550        33
47.560        13
47.570        60
47.580        27
47.590        33
47.600         7
47.610        20
47.620         7
47.630        40
47.640        27
47.650        27
47.660         7
47.670        27
47.680        13
47.690        13
47.700        13
47.710         7
47.720        27
47.730        20
47.740        27
47.750         7
47.760        20
47.770        27
47.780        33
47.790        27
47.800        27
47.810        13
47.820        33
47.830        13
47.840        47
47.850        13
47.860        13
47.870         0
47.880        27
47.890         7
47.900         7
47.910        27
47.920        33
47.930        27
47.940        33
47.950        20
47.960        20
47.970        13
47.980        27
47.990        20
48.000         7
48.010        20
48.020        13
48.030         7
48.040         7
48.050         0
48.060        13
48.070        27
48.080        13
48.090        13
48.100        20
48.110         7
48.120        20
48.130        20
48.140         0
48.150        20
48.160        13
48.170        20
48.180        20
48.190         0
48.200         7
48.210        13
48.220        20
48.230        13
48.240         7
48.250        40
48.260        27
48.270        33
48.280        27
48.290        13
48.300         0
48.310        33
48.320         0
48.330        13
48.340        13
48.350        27
48.360        27
48.370        13
48.380        20
48.390        13
48.400        13
48.410         7
48.420        13
48.430         7
48.440        20
48.450        47
48.460        33
48.470         0
48.480        20
48.490         0
48.500        27
48.510        20
48.520        20
48.530        13
48.540        20
48.550         7
48.560         0
48.570        13
48.580         7
48.590         0
48.600        13
48.610        47
48.620        27
48.630        27
48.640        20
48.650         0
48.660        13
48.670        13
48.680        20
48.690         7
48.700         7
48.710        20
48.720        13
48.730         0
48.740        20
48.750        13
48.760         7
48.770         0
48.780         7
48.790        20
48.800        20
48.810         7
48.820         0
48.830         7
48.840        13
48.850        13
48.860         7
48.870        13
48.880        20
48.890        20
48.900         0
48.910        53
48.920        13
48.930        40
48.940         0
48.950         0
48.960        13
48.970        13
48.980        27
48.990        20
49.000         0
49.010         7
49.020        13
49.030        20
49.040        47
49.050         7
49.060        13
49.070         7
49.080         0
49.090        27
49.100        13
49.110         7
49.120         7
49.130        20
49.140         0
49.150        20
49.160         0
49.170        20
49.180         0
49.190        13
49.200        20
49.210         0
49.220         7
49.230        27
49.240        47
49.250        20
49.260        33
49.270        20
49.280        27
49.290         7
49.300        27
49.310        40
49.320        27
49.330        27
49.340         7
49.350        20
49.360        27
49.370         7
49.380         7
49.390        27
49.400        33
49.410        33
49.420        27
49.430         0
49.440        13
49.450        20
49.460         7
49.470        33
49.480        13
49.490         7
49.500        20
49.510         7
49.520        40
49.530        33
49.540         7
49.550        13
49.560        27
49.570        13
49.580         7
49.590        13
49.600        33
49.610        20
49.620        13
49.630         7
49.640        13
49.650         7
49.660         0
49.670         7
49.680        47
49.690        27
49.700         0
49.710        33
49.720        13
49.730        13
49.740        20
49.750        27
49.760        13
49.770        27
49.780         0
49.790         0
49.800         7
49.810        20
49.820        33
49.830        27
49.840         7
49.850         7
49.860        13
49.870        13
49.880         7
49.890        20
49.900         7
49.910        20
49.920        13
49.930        20
49.940        13
49.950        27
49.960        27
49.970        27
49.980        13
49.990        13
50.000        13
50.010         0
50.020         7
50.030        13
50.040        13
50.050        13
50.060        13
50.070        13
50.080        20
50.090         0
50.100        13
50.110         7
50.120         7
50.130        27
50.140        13
50.150         0
50.160         0
50.170         7
50.180        13
50.190         7
50.200        33
50.210        13
50.220         7
50.230        13
50.240         7
50.250         7
50.260        33
50.270         7
50.280         0
50.290        27
50.300        13
50.310        13
50.320        13
50.330        27
50.340        33
50.350         7
50.360        13
50.370         7
50.380        27
50.390         0
50.400        13
50.410        20
50.420         0
50.430        27
50.440         7
50.450        13
50.460        13
50.470        13
50.480        13
50.490        13
50.500        40
50.510         0
50.520        53
50.530        20
50.540         7
50.550        13
50.560        13
50.570        20
50.580        13
50.590         7
50.600        13
50.610         7
50.620        27
50.630        33
50.640        13
50.650         7
50.660        13
50.670         7
50.680        13
50.690        13
50.700        27
50.710        20
50.720        27
50.730        20
50.740        40
50.750        33
50.760        20
50.770         7
50.780         7
50.790        13
50.800        27
50.810        27
50.820         0
50.830        33
50.840         0
50.850        13
50.860         7
50.870         7
50.880        20
50.890        13
50.900        20
50.910        13
50.920        13
50.930        20
50.940        13
50.950        27
50.960        13
50.970         0
50.980         0
50.990        20
51.000         7
51.010        13
51.020        27
51.030         0
51.040        13
51.050        27
51.060        13
51.070        13
51.080        33
51.090         7
51.100        13
51.110        27
51.120        27
51.130         7
51.140        47
51.150        40
51.160        20
51.170        20
51.180        13
51.190         7
51.200        13
51.210         7
51.220        13
51.230         7
51.240         7
51.250         7
51.260        13
51.270        20
51.280         7
51.290        20
51.300         0
51.310         0
51.320        20
51.330         7
51.340         7
51.350        20
51.360        20
51.370        27
51.380        13
51.390        13
51.400        20
51.410        20
51.420        13
51.430        27
51.440        13
51.450        20
51.460        20
51.470        13
51.480        33
51.490         7
51.500        27
51.510        13
51.520        13
51.530        27
51.540        13
51.550        47
51.560         7
51.570        33
51.580        20
51.590        20
51.600        47
51.610        27
51.620        20
51.630        40
51.640        20
51.650        20
51.660        20
51.670        33
51.680        13
51.690        20
51.700        20
51.710        40
51.720        47
51.730        40
51.740        13
51.750        40
51.760        13
51.770        13
51.780         7
51.790        20
51.800        27
51.810        13
51.820        20
51.830        13
51.840        20
51.850        33
51.860         7
51.870        20
51.880         7
51.890        13
51.900        27
51.910        13
51.920         0
51.930        27
51.940        20
51.950        27
51.960        13
51.970        33
51.980        20
51.990        13
52.000        20
52.010         7
52.020         7
52.030         7
52.040         7
52.050        13
52.060        13
52.070        20
52.080        33
52.090        13
52.100        20
52.110         0
52.120        20
52.130        20
52.140        13
52.150        20
52.160         7
52.170        40
52.180        20
52.190         7
52.200        13
52.210        33
52.220         7
52.230         7
52.240         0
52.250        27
52.260         0
52.270        20
52.280         7
52.290         7
52.300        13
52.310        13
52.320        13
52.330        27
52.340        13
52.350        40
52.360        33
52.370        20
52.380         7
52.390        33
52.400        13
52.410        27
52.420        13
52.430        20
52.440         7
52.450         7
52.460        13
52.470        33
52.480        13
52.490        20
52.500        20
52.510        33
52.520        47
52.530        47
52.540        60
52.550        40
52.560       147
52.570       100
52.580        87
52.590        93
52.600        67
52.610       107
52.620        93
52.630        73
52.640        40
52.650        20
52.660        40
52.670        60
52.680        53
52.690        87
52.700        80
52.710        60
52.720        80
52.730        60
52.740        33
52.750        47
52.760        67
52.770        40
52.780        33
52.790        27
52.800        40
52.810         0
52.820        27
52.830        13
52.840        27
52.850        20
52.860         0
52.870        20
52.880        13
52.890        13
52.900         7
52.910        33
52.920         0
52.930        20
52.940        13
52.950         0
52.960         7
52.970        27
52.980         0
52.990        13
53.000        27
53.010        13
53.020        13
53.030        27
53.040        13
53.050         0
53.060        13
53.070         7
53.080        27
53.090         7
53.100        13
53.110        20
53.120        27
53.130        13
53.140        27
53.150        33
53.160        27
53.170        20
53.180        13
53.190        27
53.200        33
53.210        13
53.220         7
53.230        27
53.240        13
53.250         7
53.260        13
53.270         7
53.280        13
53.290        20
53.300        13
53.310        27
53.320        13
53.330         0
53.340        20
53.350        20
53.360        13
53.370         0
53.380        13
53.390         7
53.400        20
53.410         7
53.420        20
53.430         0
53.440        20
53.450         7
53.460         7
53.470         7
53.480        27
53.490         7
53.500        20
53.510         7
53.520        33
53.530        13
53.540        13
53.550        13
53.560         0
53.570         0
53.580        20
53.590         0
53.600         7
53.610        13
53.620        13
53.630        13
53.640        27
53.650        20
53.660        13
53.670        33
53.680         7
53.690         7
53.700         7
53.710         7
53.720         7
53.730         0
53.740        13
53.750         0
53.760        20
53.770         7
53.780        53
53.790        40
53.800        13
53.810        20
53.820         7
53.830         7
53.840        13
53.850        13
53.860         7
53.870         7
53.880         7
53.890        20
53.900        20
53.910         7
53.920         0
53.930        20
53.940        20
53.950        13
53.960         7
53.970         0
53.980         0
53.990         7
54.000         7
54.010         7
54.020         7
54.030        20
54.040         7
54.050         0
54.060         0
54.070         7
54.080        27
54.090         0
54.100         7
54.110        27
54.120         7
54.130        13
54.140         7
54.150        20
54.160         7
54.170         7
54.180         0
54.190        13
54.200        13
54.210        13
54.220         7
54.230        20
54.240        13
54.250         7
54.260         0
54.270         7
54.280         7
54.290        20
54.300        13
54.310        13
54.320        20
54.330        13
54.340        13
54.350        27
54.360        13
54.370        20
54.380        13
54.390         7
54.400         7
54.410        20
54.420        20
54.430         7
54.440        20
54.450        13
54.460         7
54.470        20
54.480         0
54.490         0
54.500        53
54.510        20
54.520        13
54.530         7
54.540        13
54.550         0
54.560         0
54.570        20
54.580        20
54.590         7
54.600        20
54.610        13
54.620        13
54.630        33
54.640        13
54.650         7
54.660        13
54.670        13
54.680        33
54.690         7
54.700        27
54.710        13
54.720        20
54.730        13
54.740        33
54.750         0
54.760         0
54.770        33
54.780         0
54.790        33
54.800        13
54.810         7
54.820        20
54.830         7
54.840        13
54.850         0
54.860        20
54.870        13
54.880        20
54.890        27
54.900        13
54.910        20
54.920        33
54.930        20
54.940        13
54.950        33
54.960        13
54.970        47
54.980        13
54.990        13
55.000        20
55.010        33
55.020         7
55.030        27
55.040        33
55.050        20
55.060        13
55.070         7
55.080        20
55.090         7
55.100         0
55.110        13
55.120        40
55.130        13
55.140         0
55.150         7
55.160         0
55.170        20
55.180        20
55.190         7
55.200        27
55.210         7
55.220         7
55.230         7
55.240         0
55.250         7
55.260        20
55.270        13
55.280        13
55.290        20
55.300        33
55.310        20
55.320        20
55.330        27
55.340        20
55.350         0
55.360         7
55.370         7
55.380        13
55.390        13
55.400        13
55.410         0
55.420         7
55.430        27
55.440        20
55.450         7
55.460        13
55.470        40
55.480         7
55.490         7
55.500        20
55.510         7
55.520         7
55.530        13
55.540         7
55.550        13
55.560        27
55.570         7
55.580        20
55.590        13
55.600         7
55.610         7
55.620        20
55.630        33
55.640         7
55.650        13
55.660         7
55.670        13
55.680         7
55.690        40
55.700        20
55.710        13
55.720        13
55.730        27
55.740        20
55.750        33
55.760        27
55.770         0
55.780        27
55.790        13
55.800        47
55.810         7
55.820        27
55.830        27
55.840        20
55.850        13
55.860         0
55.870        40
55.880        20
55.890        27
55.900        27
55.910        20
55.920        27
55.930         7
55.940        27
55.950        20
55.960         7
55.970        20
55.980        13
55.990        27
56.000        13
56.010         0
56.020        33
56.030         7
56.040         7
56.050        27
56.060         7
56.070        13
56.080        20
56.090        27
56.100         7
56.110        13
56.120         7
56.130         7
56.140         0
56.150        20
56.160        13
56.170        20
56.180        13
56.190         7
56.200        20
56.210         7
56.220        20
56.230        20
56.240        20
56.250         7
56.260         7
56.270         7
56.280        13
56.290         7
56.300         7
56.310         7
56.320         0
56.330        27
56.340        20
56.350        13
56.360        20
56.370        13
56.380        20
56.390        27
56.400        13
56.410        27
56.420        20
56.430        27
56.440        47
56.450         0
56.460        13
56.470        27
56.480        20
56.490        20
56.500        27
56.510        20
56.520        20
56.530        27
56.540         7
56.550         7
56.560         7
56.570         7
56.580         0
56.590        27
56.600        33
56.610        20
56.620         7
56.630         7
56.640         0
56.650        27
56.660        13
56.670        13
56.680        20
56.690        27
56.700        20
56.710        27
56.720        13
56.730        40
56.740        13
56.750        47
56.760         7
56.770        20
56.780        33
56.790        27
56.800        20
56.810        20
56.820        20
56.830        27
56.840        13
56.850        33
56.860        33
56.870        33
56.880        40
56.890        33
56.900        60
56.910        27
56.920        47
56.930        20
56.940        20
56.950        47
56.960        27
56.970        73
56.980        33
56.990        53
57.000        73
57.010        53
57.020        87
57.030        73
57.040        73
57.050        60
57.060       100
57.070        73
57.080        80
57.090        67
57.100        53
57.110        47
57.120        53
57.130        47
57.140        80
57.150        47
57.160        33
57.170        33
57.180        27
57.190        60
57.200        53
57.210        53
57.220        60
57.230        60
57.240        47
57.250        53
57.260        33
57.270        33
57.280        27
57.290        80
57.300        27
57.310        60
57.320        47
57.330        73
57.340        47
57.350        40
57.360        60
57.370        33
57.380        60
57.390        53
57.400        53
57.410        53
57.420        53
57.430        53
57.440       113
57.450        60
57.460       147
57.470       187
57.480       200
57.490       233
57.500       220
57.510       227
57.520       253
57.530       253
57.540       240
57.550       200
57.560       267
57.570       227
57.580       173
57.590       193
57.600       187
57.610       113
57.620        80
57.630       120
57.640        53
57.650       120
57.660        93
57.670       113
57.680       107
57.690       127
57.700       100
57.710       153
57.720       127
57.730        80
57.740        67
57.750        73
57.760        53
57.770        27
57.780        60
57.790        20
57.800        20
57.810        33
57.820        20
57.830        33
57.840         7
57.850        40
57.860        33
57.870        40
57.880        13
57.890        33
57.900        33
57.910        27
57.920         7
57.930         0
57.940        20
57.950        13
57.960        20
57.970         7
57.980        20
57.990         0
58.000        13
58.010        13
58.020         7
58.030        13
58.040        13
58.050        13
58.060        13
58.070         7
58.080         7
58.090         0
58.100        40
58.110        13
58.120         7
58.130        20
58.140        13
58.150        13
58.160        13
58.170         7
58.180         7
58.190         7
58.200         0
58.210         0
58.220        13
58.230         7
58.240        20
58.250         7
58.260        13
58.270        13
58.280        20
58.290         0
58.300        13
58.310        27
58.320         0
58.330         0
58.340         7
58.350        20
58.360         7
58.370        13
58.380         7
58.390        13
58.400        27
58.410         7
58.420         0
58.430        20
58.440        13
58.450        20
58.460         7
58.470        13
58.480        13
58.490         7
58.500         7
58.510        13
58.520         7
58.530         7
58.540         0
58.550        13
58.560        13
58.570        20
58.580        40
58.590         7
58.600         7
58.610        13
58.620        13
58.630         7
58.640         7
58.650        20
58.660         7
58.670        13
58.680         7
58.690        20
58.700        20
58.710        13
58.720        27
58.730        33
58.740        20
58.750         0
58.760        20
58.770        27
58.780        13
58.790         0
58.800         7
58.810        40
58.820         0
58.830        13
58.840        13
58.850        13
58.860         7
58.870        13
58.880         0
58.890        13
58.900        27
58.910         7
58.920        33
58.930         7
58.940         0
58.950         7
58.960        33
58.970        27
58.980         7
58.990        20
59.000        20
59.010         7
59.020        13
59.030         7
59.040         0
59.050        33
59.060        33
59.070        20
59.080         7
59.090        20
59.100         7
59.110        13
59.120        13
59.130         7
59.140        20
59.150        27
59.160        33
59.170         7
59.180         0
59.190        13
59.200        13
59.210        27
59.220        20
59.230         7
59.240        20
59.250         7
59.260         0
59.270         7
59.280        13
59.290         7
59.300         7
59.310        20
59.320        13
59.330         7
59.340         7
59.350         7
59.360        20
59.370         0
59.380        13
59.390         0
59.400        13
59.410         7
59.420        13
59.430         7
59.440         7
59.450         0
59.460        27
59.470        20
59.480        20
59.490         7
59.500        53
59.510        20
59.520         7
59.530        27
59.540        13
59.550        33
59.560         0
59.570         7
59.580         0
59.590        20
59.600        20
59.610        33
59.620         7
59.630        20
59.640         7
59.650        20
59.660        33
59.670         0
59.680        27
59.690        13
59.700        33
59.710        27
59.720         0
59.730        13
59.740         7
59.750        20
59.760         0
59.770        13
59.780        20
59.790        27
59.800        13
59.810        20
59.820        27
59.830        13
59.840        33
59.850         7
59.860        13
59.870         0
59.880         7
59.890        20
59.900        27
59.910        20
59.920        33
59.930         7
59.940         7
59.950        27
59.960        33
59.970        13
59.980         0
59.990        13
60.000        13
