20.000        40
20.010        40
20.020        80
20.030        40
20.040        67
20.050        13
20.060        27
20.070        27
20.080        60
20.090        67
20.100        13
20.110        53
20.120        27
20.130        53
20.140        47
20.150        33
20.160        47
20.170        27
20.180        27
20.190        47
20.200        53
20.210        53
20.220        47
20.230        27
20.240        13
20.250        53
20.260        27
20.270        53
20.280        60
20.290        53
20.300        53
20.310        40
20.320        40
20.330        60
20.340        47
20.350        53
20.360        47
20.370        47
20.380        40
20.390        40
20.400        60
20.410        33
20.420        73
20.430        47
20.440        27
20.450        40
20.460        20
20.470        47
20.480        53
20.490        53
20.500        33
20.510         7
20.520        33
20.530        40
20.540        27
20.550        40
20.560        20
20.570        40
20.580        47
20.590        40
20.600        20
20.610        53
20.620        27
20.630        80
20.640        40
20.650        40
20.660        33
20.670        27
20.680        13
20.690        40
20.700        33
20.710        60
20.720         7
20.730        53
20.740        40
20.750        53
20.760        53
20.770        33
20.780        40
20.790        53
20.800        33
20.810        40
20.820        73
20.830        33
20.840        47
20.850        40
20.860        47
20.870        20
20.880        13
20.890        33
20.900        40
20.910        20
20.920        27
20.930        20
20.940        53
20.950        27
20.960        40
20.970        20
20.980        47
20.990       107
21.000        60
21.010        27
21.020        27
21.030        40
21.040        33
21.050        40
21.060        47
21.070        27
21.080        27
21.090        47
21.100        47
21.110        73
21.120        20
21.130        40
21.140        40
21.150        33
21.160        53
21.170        40
21.180        40
21.190        33
21.200        53
21.210        80
21.220        33
21.230        67
21.240        33
21.250        13
21.260        53
21.270        60
21.280        27
21.290        47
21.300        53
21.310        47
21.320        80
21.330        47
21.340        47
21.350        13
21.360        60
21.370        73
21.380        33
21.390        53
21.400        27
21.410        47
21.420        27
21.430        20
21.440        67
21.450        73
21.460        67
21.470        40
21.480        67
21.490        67
21.500        87
21.510        47
21.520        40
21.530        27
21.540       107
21.550        40
21.560        53
21.570        60
21.580        40
21.590        53
21.600        27
21.610        47
21.620        53
21.630        73
21.640        60
21.650        20
21.660        73
21.670        40
21.680        67
21.690        67
21.700        67
21.710        80
21.720        47
21.730        73
21.740        73
21.750        73
21.760        27
21.770        73
21.780        67
21.790       100
21.800        80
21.810        87
21.820        93
21.830       113
21.840        93
21.850        73
21.860       127
21.870        87
21.880       127
21.890       173
21.900        60
21.910       127
21.920       127
21.930       100
21.940       147
21.950       113
21.960        87
21.970       160
21.980       100
21.990       100
22.000       120
22.010        87
22.020       107
22.030       140
22.040       100
22.050       127
22.060        93
22.070        73
22.080       153
22.090        87
22.100       120
22.110        67
22.120        80
22.130       100
22.140        93
22.150        27
22.160        73
22.170        47
22.180        93
22.190        73
22.200        67
22.210        53
22.220        87
22.230        53
22.240        73
22.250        27
22.260        80
22.270        53
22.280        87
22.290        47
22.300        80
22.310        80
22.320        53
22.330        80
22.340        27
22.350        80
22.360        60
22.370        60
22.380        60
22.390        27
22.400        47
22.410        33
22.420        47
22.430        53
22.440        20
22.450        73
22.460        27
22.470        47
22.480        47
22.490        20
22.500        40
22.510        40
22.520        27
22.530        67
22.540        13
22.550        33
22.560        60
22.570        40
22.580        20
22.590        60
22.600        20
22.610        40
22.620        60
22.630        33
22.640        47
22.650        27
22.660        40
22.670        93
22.680        27
22.690        60
22.700        20
22.710        33
22.720        33
22.730        53
22.740        33
22.750        40
22.760        40
22.770        27
22.780        20
22.790        40
22.800        33
22.810        20
22.820        33
22.830         7
22.840        33
22.850        67
22.860        33
22.870        73
22.880        40
22.890        40
22.900        40
22.910        60
22.920        27
22.930        47
22.940        33
22.950        13
22.960        40
22.970        33
22.980        27
22.990        40
23.000        40
23.010        40
23.020        33
23.030        40
23.040        27
23.050        40
23.060        27
23.070        27
23.080        53
23.090        27
23.100        27
23.110        73
23.120        33
23.130        53
23.140        27
23.150        53
23.160        33
23.170        47
23.180        27
23.190        13
23.200        53
23.210        20
23.220        40
23.230        47
23.240        27
23.250        33
23.260        33
23.270        27
23.280        13
23.290        20
23.300        47
23.310        47
23.320        27
23.330        40
23.340        40
23.350        27
23.360        53
23.370        20
23.380        47
23.390        27
23.400        40
23.410        27
23.420        40
23.430        40
23.440        20
23.450        47
23.460         7
23.470        33
23.480        40
23.490        20
23.500        53
23.510        60
23.520        27
23.530        33
23.540        27
23.550        20
23.560        40
23.570        47
23.580        20
23.590        27
23.600        27
23.610        47
23.620        13
23.630        40
23.640        33
23.650        20
23.660        20
23.670        53
23.680         7
23.690        53
23.700        13
23.710        60
23.720        40
23.730        13
23.740        27
23.750        33
23.760        27
23.770        40
23.780        27
23.790        40
23.800        53
23.810        20
23.820        33
23.830        27
23.840         7
23.850        47
23.860        33
23.870        27
23.880        53
23.890        27
23.900        33
23.910        20
23.920        27
23.930        20
23.940        27
23.950        47
23.960        47
23.970        20
23.980        13
23.990        27
24.000        33
24.010        67
24.020        33
24.030        47
24.040        33
24.050        40
24.060        27
24.070        13
24.080        33
24.090        53
24.100         0
24.110        20
24.120        27
24.130        40
24.140        53
24.150        47
24.160        20
24.170        47
24.180        27
24.190        27
24.200        27
24.210        40
24.220        33
24.230        20
24.240        40
24.250        27
24.260        13
24.270        33
24.280        13
24.290        27
24.300         7
24.310        53
24.320        47
24.330        47
24.340        13
24.350        27
24.360        40
24.370        27
24.380        40
24.390        40
24.400        40
24.410        27
24.420        53
24.430        33
24.440        20
24.450        33
24.460        20
24.470        20
24.480        53
24.490        40
24.500        27
24.510        33
24.520        27
24.530        27
24.540        40
24.550        20
24.560        47
24.570        53
24.580        53
24.590        27
24.600        27
24.610        33
24.620        40
24.630        40
24.640        47
24.650        20
24.660        20
24.670         7
24.680        33
24.690        20
24.700         7
24.710        47
24.720        47
24.730        20
24.740        53
24.750         7
24.760        47
24.770        47
24.780        20
24.790        53
24.800        47
24.810        27
24.820        40
24.830        27
24.840        27
24.850        33
24.860         7
24.870        33
24.880        47
24.890        13
24.900        53
24.910        27
24.920        33
24.930        53
24.940        40
24.950        47
24.960        20
24.970        20
24.980        33
24.990        33
25.000        20
25.010        47
25.020        47
25.030        40
25.040        20
25.050        33
25.060        20
25.070        33
25.080        40
25.090        53
25.100        13
25.110        53
25.120        33
25.130        40
25.140        20
25.150        33
25.160        33
25.170        40
25.180        40
25.190        33
25.200        40
25.210        60
25.220        47
25.230        33
25.240         7
25.250        67
25.260        47
25.270        40
25.280        40
25.290        27
25.300        27
25.310        33
25.320        27
25.330        53
25.340        20
25.350        40
25.360         7
25.370         7
25.380        20
25.390        47
25.400        27
25.410         7
25.420        40
25.430        27
25.440        20
25.450        20
25.460        40
25.470        13
25.480        53
25.490        27
25.500         7
25.510        40
25.520        27
25.530        47
25.540        40
25.550        33
25.560        33
25.570        40
25.580        53
25.590        20
25.600        33
25.610        20
25.620        47
25.630        20
25.640        20
25.650        33
25.660        47
25.670        20
25.680        20
25.690        40
25.700        47
25.710        20
25.720        27
25.730        40
25.740        27
25.750        27
25.760        13
25.770        27
25.780         7
25.790        40
25.800        60
25.810        33
25.820        33
25.830        13
25.840        47
25.850         7
25.860        40
25.870         0
25.880        13
25.890        47
25.900        33
25.910        13
25.920         7
25.930        27
25.940        40
25.950        13
25.960        27
25.970        27
25.980        20
25.990        20
26.000        27
26.010        20
26.020        40
26.030         0
26.040        53
26.050        60
26.060        53
26.070        27
26.080        40
26.090        20
26.100        67
26.110        20
26.120         0
26.130        20
26.140        27
26.150        27
26.160        27
26.170        13
26.180        40
26.190        27
26.200        27
26.210        47
26.220        33
26.230        27
26.240        53
26.250        47
26.260        27
26.270        47
26.280        27
26.290        27
26.300        47
26.310        40
26.320        20
26.330        33
26.340        47
26.350        20
26.360        87
26.370        20
26.380        27
26.390        27
26.400         7
26.410        20
26.420        27
26.430        33
26.440        20
26.450        47
26.460        27
26.470        33
26.480        27
26.490         7
26.500        47
26.510        33
26.520        53
26.530        33
26.540        27
26.550        40
26.560        13
26.570        27
26.580        53
26.590        33
26.600        20
26.610        40
26.620        20
26.630        47
26.640        40
26.650        33
26.660        33
26.670        27
26.680        33
26.690        27
26.700        20
26.710        47
26.720        40
26.730        20
26.740        20
26.750        20
26.760        27
26.770        20
26.780        53
26.790        20
26.800        33
26.810         7
26.820        20
26.830        13
26.840        13
26.850        60
26.860        33
26.870        27
26.880        47
26.890        27
26.900        40
26.910        47
26.920        20
26.930        33
26.940        20
26.950        20
26.960        33
26.970        27
26.980        13
26.990        13
27.000        20
27.010        27
27.020        60
27.030        53
27.040        27
27.050        47
27.060        20
27.070        47
27.080        27
27.090        20
27.100        13
27.110        13
27.120        27
27.130        53
27.140        27
27.150        47
27.160        33
27.170        47
27.180        33
27.190        33
27.200        33
27.210        13
27.220        20
27.230        33
27.240        13
27.250        33
27.260        47
27.270        27
27.280         0
27.290        27
27.300        60
27.310         7
27.320        53
27.330        33
27.340        20
27.350         7
27.360        47
27.370        33
27.380        40
27.390         0
27.400        20
27.410        27
27.420        13
27.430        33
27.440        40
27.450        40
27.460        27
27.470        13
27.480        47
27.490        27
27.500        40
27.510        27
27.520        20
27.530        20
27.540        27
27.550        20
27.560        20
27.570        60
27.580        33
27.590        33
27.600         7
27.610        33
27.620        40
27.630        33
27.640        20
27.650         7
27.660        13
27.670        40
27.680        20
27.690        27
27.700        47
27.710        27
27.720         0
27.730        20
27.740        33
27.750        33
27.760        33
27.770        40
27.780        47
27.790        27
27.800        33
27.810         7
27.820        33
27.830         7
27.840        40
27.850        27
27.860         0
27.870        40
27.880        60
27.890        27
27.900        20
27.910        27
27.920        33
27.930        20
27.940        20
27.950        20
27.960        13
27.970        13
27.980         0
27.990        40
28.000        27
28.010        47
28.020        33
28.030        33
28.040        40
28.050        27
28.060        33
28.070        33
28.080        27
28.090        20
28.100        33
28.110        33
28.120        20
28.130        27
28.140        27
28.150        33
28.160        53
28.170        40
28.180        20
28.190        27
28.200        27
28.210        33
28.220        33
28.230        27
28.240        33
28.250        40
28.260        27
28.270        53
28.280        13
28.290        40
28.300        27
28.310        27
28.320         0
28.330        33
28.340        40
28.350         7
28.360        33
28.370        20
28.380        60
28.390         0
28.400        33
28.410        27
28.420        13
28.430        33
28.440        13
28.450        40
28.460        27
28.470        13
28.480        47
28.490        27
28.500        27
28.510        40
28.520        27
28.530        20
28.540        27
28.550        13
28.560         7
28.570        47
28.580         0
28.590        27
28.600        40
28.610        47
28.620        13
28.630        27
28.640        20
28.650        27
28.660        47
28.670        47
28.680         7
28.690        33
28.700        20
28.710        13
28.720        13
28.730         7
28.740        27
28.750        40
28.760        40
28.770        20
28.780        33
28.790        47
28.800        13
28.810        33
28.820        33
28.830        20
28.840        27
28.850        20
28.860        60
28.870        47
28.880        20
28.890        20
28.900        33
28.910        40
28.920        27
28.930        27
28.940        20
28.950         7
28.960        13
28.970        13
28.980        13
28.990        33
29.000        53
29.010        13
29.020        47
29.030        20
29.040        47
29.050        20
29.060        20
29.070        33
29.080        27
29.090        20
29.100        53
29.110        13
29.120        33
29.130        33
29.140        27
29.150        33
29.160        13
29.170         0
29.180        20
29.190        27
29.200         7
29.210         7
29.220        33
29.230         0
29.240        20
29.250        27
29.260        40
29.270        47
29.280        13
29.290        20
29.300        27
29.310        27
29.320        27
29.330        33
29.340        33
29.350        20
29.360        20
29.370         7
29.380        40
29.390        27
29.400        13
29.410        27
29.420        13
29.430        33
29.440        20
29.450         7
29.460        40
29.470         0
29.480        40
29.490        13
29.500        40
29.510        20
29.520        27
29.530        20
29.540         7
29.550        53
29.560        27
29.570        20
29.580        20
29.590         7
29.600        27
29.610        27
29.620        20
29.630        27
29.640         7
29.650        20
29.660        27
29.670        53
29.680         0
29.690        20
29.700        33
29.710        33
29.720        27
29.730         7
29.740        13
29.750         7
29.760        33
29.770        27
29.780        20
29.790        33
29.800        13
29.810        13
29.820        27
29.830        47
29.840        20
29.850        13
29.860        20
29.870        60
29.880        40
29.890        20
29.900        13
29.910        27
29.920         7
29.930         7
29.940         0
29.950        13
29.960        27
29.970        27
29.980        13
29.990        20
30.000        40
30.010        20
30.020         0
30.030        13
30.040        40
30.050         7
30.060        33
30.070        13
30.080        27
30.090        20
30.100        33
30.110        27
30.120        13
30.130        60
30.140        13
30.150        40
30.160        13
30.170        40
30.180        33
30.190        27
30.200        13
30.210        20
30.220        33
30.230        13
30.240        13
30.250         7
30.260        13
30.270        40
30.280        20
30.290        33
30.300        20
30.310        13
30.320        13
30.330         7
30.340        13
30.350        13
30.360        40
30.370        33
30.380        27
30.390        47
30.400        33
30.410        20
30.420        20
30.430        20
30.440         7
30.450        33
30.460        20
30.470        13
30.480         7
30.490        20
30.500        27
30.510         0
30.520        27
30.530         7
30.540        33
30.550        53
30.560        33
30.570        33
30.580         7
30.590        27
30.600        13
30.610        40
30.620        40
30.630        20
30.640         7
30.650        20
30.660        13
30.670        27
30.680        27
30.690        33
30.700        20
30.710        47
30.720        47
30.730        33
30.740         7
30.750        13
30.760        40
30.770        67
30.780         7
30.790        20
30.800        33
30.810        33
30.820        27
30.830        20
30.840        13
30.850        27
30.860        20
30.870        20
30.880        60
30.890        27
30.900        27
30.910        27
30.920        47
30.930        27
30.940        40
30.950        53
30.960        33
30.970        47
30.980        47
30.990        33
31.000        40
31.010        53
31.020        20
31.030        60
31.040        60
31.050        40
31.060        40
31.070        33
31.080        93
31.090        60
31.100        53
31.110        80
31.120        93
31.130         7
31.140        33
31.150        47
31.160        60
31.170        60
31.180        60
31.190        80
31.200        67
31.210        53
31.220        20
31.230        53
31.240        67
31.250        67
31.260        67
31.270        60
31.280        60
31.290        67
31.300        47
31.310        80
31.320        60
31.330        93
31.340        60
31.350       100
31.360        60
31.370        40
31.380        60
31.390        40
31.400        27
31.410        40
31.420        53
31.430        47
31.440        60
31.450        67
31.460        53
31.470        27
31.480        53
31.490        33
31.500        33
31.510        60
31.520        33
31.530        40
31.540        40
31.550        13
31.560        27
31.570        20
31.580        20
31.590        20
31.600        47
31.610        33
31.620        40
31.630        33
31.640        27
31.650        40
31.660        27
31.670        60
31.680         0
31.690        33
31.700        13
31.710        60
31.720         7
31.730        33
31.740        20
31.750        47
31.760        60
31.770        33
31.780        53
31.790        20
31.800        47
31.810         7
31.820        20
31.830        40
31.840        13
31.850        40
31.860        13
31.870        33
31.880        20
31.890        27
31.900        20
31.910        47
31.920        20
31.930        40
31.940        40
31.950        53
31.960        47
31.970        27
31.980        20
31.990        33
32.000        47
32.010        33
32.020        33
32.030        27
32.040         0
32.050        47
32.060        13
32.070         7
32.080        27
32.090        13
32.100        20
32.110        33
32.120        20
32.130         7
32.140        40
32.150        33
32.160        20
32.170         7
32.180        27
32.190         7
32.200        13
32.210        47
32.220        20
32.230        40
32.240        13
32.250        40
32.260        20
32.270         7
32.280        33
32.290        27
32.300         7
32.310        27
32.320         0
32.330        13
32.340        13
32.350        13
32.360        20
32.370        27
32.380        20
32.390        47
32.400        27
32.410        13
32.420        20
32.430        33
32.440        20
32.450        33
32.460        20
32.470        40
32.480         7
32.490        20
32.500        20
32.510         7
32.520        27
32.530         7
32.540        33
32.550        13
32.560        33
32.570         7
32.580        27
32.590        13
32.600        47
32.610        13
32.620        20
32.630        27
32.640        40
32.650        20
32.660         7
32.670        33
32.680         7
32.690        13
32.700        27
32.710        27
32.720        13
32.730        33
32.740        27
32.750        27
32.760        33
32.770        27
32.780        27
32.790        20
32.800        47
32.810        53
32.820        27
32.830         7
32.840        33
32.850         7
32.860        20
32.870        33
32.880        27
32.890         0
32.900        40
32.910        13
32.920        33
32.930        20
32.940        27
32.950        13
32.960        27
32.970        27
32.980         7
32.990        20
33.000        13
33.010        13
33.020        47
33.030        13
33.040        20
33.050        13
33.060        73
33.070        40
33.080         7
33.090         7
33.100        33
33.110         7
33.120        13
33.130        27
33.140        13
33.150        33
33.160        27
33.170        20
33.180        13
33.190        33
33.200        13
33.210         7
33.220        13
33.230        13
33.240        27
33.250        27
33.260        13
33.270        27
33.280        27
33.290        13
33.300        20
33.310        33
33.320         7
33.330         7
33.340        27
33.350         7
33.360         7
33.370        13
33.380        33
33.390        27
33.400        13
33.410        13
33.420        20
33.430        53
33.440         7
33.450        27
33.460        20
33.470        20
33.480        20
33.490        13
33.500        13
33.510         7
33.520        20
33.530        40
33.540        27
33.550        13
33.560        40
33.570        20
33.580        13
33.590        13
33.600        27
33.610        33
33.620        13
33.630         0
33.640         0
33.650         0
33.660        33
33.670        40
33.680        27
33.690        20
33.700         0
33.710        27
33.720        20
33.730        13
33.740        13
33.750        27
33.760        20
33.770        13
33.780        20
33.790         0
33.800        40
33.810         7
33.820         7
33.830        20
33.840        33
33.850        27
33.860        33
33.870         7
33.880         0
33.890         7
33.900        20
33.910        27
33.920        20
33.930        33
33.940         7
33.950         7
33.960        33
33.970        33
33.980        13
33.990        33
34.000        20
34.010        27
34.020        40
34.030        20
34.040        20
34.050        13
34.060        13
34.070        20
34.080        20
34.090        20
34.100        33
34.110        20
34.120        47
34.130        13
34.140         0
34.150        33
34.160        13
34.170        27
34.180        27
34.190         7
34.200        13
34.210        13
34.220        20
34.230         7
34.240        20
34.250        27
34.260         7
34.270        13
34.280        20
34.290        20
34.300         7
34.310        13
34.320        13
34.330        13
34.340        27
34.350        20
34.360         0
34.370        13
34.380        53
34.390        33
34.400         7
34.410        47
34.420         0
34.430         0
34.440        20
34.450        27
34.460         7
34.470        33
34.480        20
34.490         7
34.500        33
34.510         7
34.520        27
34.530         7
34.540        33
34.550        27
34.560        13
34.570        40
34.580        13
34.590        20
34.600         7
34.610        27
34.620        20
34.630         7
34.640         7
34.650        13
34.660        27
34.670        33
34.680         7
34.690        20
34.700        33
34.710         7
34.720        40
34.730        20
34.740        53
34.750        27
34.760        20
34.770         0
34.780         0
34.790        27
34.800        27
34.810        33
34.820         7
34.830        27
34.840        27
34.850        40
34.860        13
34.870        20
34.880        33
34.890        33
34.900        33
34.910        13
34.920        27
34.930         7
34.940        27
34.950        20
34.960        20
34.970        33
34.980         7
34.990        27
35.000        13
35.010        27
35.020        13
35.030        13
35.040        20
35.050        20
35.060        27
35.070        40
35.080        27
35.090        20
35.100        20
35.110        40
35.120        27
35.130        27
35.140        33
35.150        33
35.160        47
35.170         0
35.180        40
35.190         7
35.200        20
35.210        20
35.220         7
35.230         7
35.240         7
35.250         0
35.260        13
35.270        27
35.280         7
35.290        27
35.300        20
35.310         7
35.320        20
35.330         0
35.340        20
35.350        13
35.360        40
35.370        27
35.380        13
35.390         7
35.400        20
35.410         7
35.420         7
35.430        20
35.440        20
35.450        33
35.460        20
35.470        27
35.480        13
35.490         7
35.500        27
35.510        20
35.520        13
35.530         0
35.540        13
35.550         7
35.560         7
35.570         7
35.580        20
35.590        40
35.600        27
35.610        40
35.620         7
35.630        20
35.640        20
35.650        20
35.660        27
35.670        20
35.680        20
35.690        27
35.700        13
35.710        27
35.720         0
35.730        27
35.740        20
35.750        20
35.760         7
35.770        40
35.780         7
35.790        13
35.800         7
35.810        20
35.820        13
35.830        27
35.840        33
35.850        13
35.860        20
35.870        27
35.880        13
35.890         7
35.900        13
35.910        27
35.920        27
35.930        13
35.940        33
35.950        20
35.960         7
35.970         7
35.980        27
35.990         7
36.000        13
36.010         0
36.020        13
36.030        27
36.040        33
36.050        27
36.060        13
36.070        13
36.080        27
36.090        27
36.100        33
36.110        33
36.120        33
36.130         0
36.140        20
36.150        13
36.160        13
36.170         7
36.180        20
36.190         0
36.200        27
36.210         0
36.220        27
36.230         7
36.240        27
36.250         7
36.260        13
36.270        13
36.280         7
36.290        20
36.300        13
36.310        20
36.320        27
36.330         0
36.340        47
36.350        33
36.360        13
36.370        13
36.380        13
36.390        33
36.400        13
36.410         7
36.420        13
36.430        13
36.440        13
36.450        27
36.460        40
36.470         7
36.480        20
36.490        27
36.500        20
36.510        27
36.520        27
36.530        20
36.540        33
36.550        40
36.560        13
36.570         0
36.580        47
36.590        27
36.600         7
36.610        20
36.620        13
36.630        33
36.640        27
36.650        13
36.660        20
36.670         0
36.680        13
36.690        27
36.700        20
36.710        27
36.720        27
36.730         0
36.740        33
36.750        13
36.760        27
36.770        13
36.780        20
36.790        13
36.800        13
36.810        13
36.820        27
36.830        13
36.840        27
36.850        20
36.860        40
36.870        27
36.880        27
36.890        27
36.900        13
36.910        27
36.920         7
36.930         0
36.940        13
36.950        20
36.960        27
36.970         7
36.980         0
36.990        33
37.000        13
37.010        13
37.020         7
37.030        20
37.040         7
37.050        47
37.060         7
37.070        13
37.080        13
37.090         0
37.100        13
37.110        20
37.120        20
37.130        20
37.140        20
37.150        13
37.160         7
37.170         7
37.180        20
37.190        33
37.200         7
37.210        27
37.220         7
37.230         7
37.240        27
37.250        47
37.260         7
37.270        20
37.280        33
37.290         7
37.300        13
37.310        13
37.320        20
37.330        27
37.340        27
37.350        27
37.360        13
37.370        13
37.380        40
37.390         7
37.400        20
37.410        27
37.420        13
37.430        27
37.440        20
37.450        27
37.460        13
37.470        13
37.480        13
37.490         0
37.500        13
37.510        27
37.520        20
37.530        20
37.540        27
37.550         0
37.560        13
37.570        47
37.580        47
37.590        20
37.600        27
37.610        20
37.620        13
37.630        20
37.640        20
37.650        33
37.660        47
37.670        27
37.680        33
37.690        27
37.700        13
37.710        13
37.720        20
37.730        33
37.740        13
37.750        20
37.760        27
37.770        40
37.780        27
37.790        40
37.800        20
37.810        20
37.820         0
37.830        27
37.840        13
37.850        20
37.860         7
37.870        13
37.880         7
37.890        33
37.900        13
37.910        13
37.920        20
37.930        40
37.940        27
37.950        33
37.960        40
37.970        27
37.980        33
37.990        33
38.000        13
38.010        13
38.020        13
38.030        20
38.040        47
38.050        13
38.060        47
38.070        40
38.080        53
38.090        33
38.100         0
38.110        27
38.120        27
38.130        40
38.140         7
38.150        33
38.160        40
38.170        20
38.180        33
38.190        40
38.200        27
38.210        27
38.220        33
38.230        47
38.240        33
38.250        20
38.260        40
38.270        27
38.280        60
38.290        20
38.300        27
38.310        27
38.320        20
38.330        27
38.340        60
38.350        40
38.360        47
38.370        87
38.380        47
38.390        87
38.400        67
38.410        67
38.420       133
38.430        47
38.440       133
38.450        53
38.460       147
38.470       120
38.480        87
38.490       133
38.500       120
38.510       200
38.520       160
38.530       167
38.540       160
38.550       207
38.560       267
38.570       207
38.580       293
38.590       360
38.600       267
38.610       373
38.620       300
38.630       347
38.640       460
38.650       307
38.660       453
38.670       520
38.680       560
38.690       520
38.700       593
38.710       626
38.720       680
38.730       600
38.740       646
38.750       680
38.760       793
38.770       633
38.780       606
38.790       593
38.800       566
38.810       546
38.820       526
38.830       446
38.840       553
38.850       440
38.860       327
38.870       320
38.880       273
38.890       333
38.900       220
38.910       307
38.920       240
38.930       227
38.940       213
38.950       187
38.960       167
38.970       173
38.980       147
38.990       120
39.000       140
39.010       107
39.020       100
39.030       160
39.040        33
39.050        87
39.060        67
39.070       107
39.080        53
39.090        60
39.100        67
39.110        27
39.120        27
39.130        47
39.140        73
39.150        67
39.160        40
39.170        93
39.180        33
39.190        33
39.200        27
39.210        80
39.220        33
39.230        53
39.240        40
39.250        53
39.260        47
39.270        40
39.280        20
39.290        27
39.300        53
39.310        67
39.320        60
39.330        20
39.340        40
39.350        47
39.360        33
39.370        13
39.380        40
39.390        60
39.400        40
39.410        33
39.420        53
39.430         7
39.440        47
39.450        13
39.460        33
39.470        27
39.480        13
39.490        60
39.500        67
39.510        80
39.520        40
39.530        33
39.540        33
39.550        40
39.560        20
39.570        40
39.580        20
39.590        27
39.600        27
39.610        20
39.620        13
39.630        27
39.640         7
39.650         7
39.660        33
39.670        27
39.680        27
39.690        47
39.700        27
39.710        27
39.720        33
39.730        40
39.740        53
39.750        27
39.760        27
39.770        20
39.780        27
39.790        20
39.800        33
39.810        33
39.820        33
39.830        13
39.840        20
39.850        27
39.860        33
39.870        40
39.880        13
39.890        27
39.900        13
39.910        67
39.920        27
39.930        27
39.940        27
39.950        40
39.960         7
39.970        20
39.980        20
39.990         0
40.000        33
40.010        27
40.020        33
40.030        40
40.040        27
40.050        27
40.060        27
40.070        20
40.080        33
40.090        20
40.100        20
40.110        33
40.120         0
40.130        27
40.140        33
40.150        20
40.160        27
40.170        13
40.180        33
40.190        20
40.200        40
40.210        20
40.220         0
40.230        13
40.240        33
40.250        27
40.260        13
40.270        20
40.280        20
40.290        13
40.300        53
40.310        13
40.320        27
40.330        27
40.340        33
40.350        47
40.360        20
40.370        13
40.380        67
40.390        20
40.400        20
40.410        20
40.420        33
40.430         7
40.440        13
40.450        33
40.460        40
40.470        13
40.480        33
40.490        20
40.500         0
40.510         7
40.520        20
40.530        27
40.540        13
40.550        40
40.560        27
40.570         7
40.580        33
40.590        13
40.600        53
40.610        20
40.620        27
40.630        27
40.640        20
40.650        20
40.660        27
40.670        27
40.680        53
40.690        27
40.700        20
40.710        20
40.720        33
40.730         7
40.740        27
40.750        27
40.760        40
40.770        27
40.780        20
40.790        27
40.800        27
40.810        33
40.820         7
40.830        13
40.840         7
40.850        20
40.860         7
40.870        13
40.880        13
40.890        27
40.900        13
40.910        20
40.920        27
40.930        60
40.940        20
40.950        27
40.960        27
40.970        20
40.980        20
40.990        33
41.000        40
41.010        20
41.020        20
41.030        20
41.040        27
41.050        13
41.060        20
41.070        13
41.080        20
41.090        40
41.100        13
41.110        27
41.120        47
41.130        27
41.140        13
41.150        27
41.160        20
41.170        20
41.180        47
41.190        27
41.200         7
41.210         7
41.220        13
41.230        13
41.240        40
41.250        20
41.260        13
41.270        27
41.280        27
41.290        13
41.300        20
41.310        33
41.320        20
41.330        53
41.340        20
41.350        20
41.360        27
41.370        20
41.380        27
41.390        40
41.400         0
41.410        27
41.420        20
41.430        13
41.440        27
41.450        13
41.460        20
41.470         7
41.480         7
41.490         7
41.500         0
41.510        13
41.520        13
41.530         0
41.540        13
41.550        27
41.560        13
41.570        13
41.580        33
41.590        40
41.600        13
41.610         7
41.620         7
41.630        27
41.640        33
41.650         7
41.660        13
41.670        20
41.680        27
41.690        27
41.700        20
41.710        13
41.720        20
41.730        13
41.740        13
41.750         7
41.760        20
41.770        27
41.780        13
41.790        13
41.800         0
41.810        20
41.820        40
41.830        27
41.840        27
41.850        27
41.860        27
41.870        20
41.880        33
41.890        40
41.900        27
41.910        20
41.920        13
41.930        20
41.940        33
41.950        20
41.960        20
41.970        13
41.980         7
41.990         7
42.000        13
42.010        47
42.020        27
42.030        27
42.040         0
42.050        13
42.060        13
42.070        13
42.080        27
42.090        13
42.100        20
42.110         7
42.120        27
42.130         7
42.140        20
42.150        13
42.160        13
42.170        27
42.180        20
42.190        20
42.200         7
42.210        47
42.220        20
42.230        20
42.240        40
42.250         7
42.260        20
42.270        20
42.280        13
42.290        27
42.300        13
42.310         0
42.320         7
42.330        13
42.340         7
42.350        13
42.360         0
42.370        20
42.380         7
42.390        20
42.400         7
42.410        13
42.420        13
42.430        13
42.440         0
42.450         0
42.460        20
42.470         7
42.480         7
42.490        20
42.500        27
42.510        20
42.520        20
42.530        13
42.540        27
42.550         7
42.560         7
42.570        33
42.580        13
42.590         7
42.600        47
42.610        20
42.620        27
42.630        20
42.640        20
42.650        13
42.660         7
42.670        20
42.680         0
42.690        20
42.700        13
42.710        20
42.720        33
42.730        13
42.740        20
42.750        20
42.760        20
42.770        13
42.780        20
42.790        20
42.800         7
42.810        13
42.820        20
42.830        13
42.840        13
42.850        13
42.860        13
42.870        20
42.880        20
42.890        27
42.900        27
42.910        27
42.920        13
42.930        40
42.940        27
42.950        13
42.960        27
42.970         7
42.980        20
42.990        47
43.000        27
43.010        13
43.020         7
43.030        33
43.040         7
43.050        27
43.060        20
43.070        13
43.080        13
43.090        13
43.100        47
43.110        33
43.120        13
43.130         7
43.140        20
43.150        20
43.160        33
43.170         7
43.180        27
43.190         7
43.200        20
43.210        27
43.220        40
43.230        13
43.240        27
43.250        13
43.260        27
43.270        40
43.280        20
43.290        27
43.300        40
43.310        20
43.320        40
43.330        20
43.340        40
43.350        13
43.360        27
43.370        27
43.380        20
43.390        20
43.400        40
43.410        20
43.420        33
43.430        20
43.440        13
43.450         7
43.460         7
43.470        13
43.480        20
43.490        33
43.500        13
43.510        53
43.520        40
43.530        27
43.540        13
43.550        33
43.560        13
43.570        47
43.580        27
43.590        33
43.600        20
43.610        40
43.620        20
43.630        27
43.640        40
43.650        33
43.660         7
43.670         0
43.680        27
43.690        33
43.700        27
43.710        47
43.720        20
43.730         7
43.740        40
43.750        20
43.760        87
43.770        40
43.780        13
43.790        47
43.800        27
43.810        40
43.820        27
43.830         7
43.840        20
43.850        27
43.860        20
43.870        20
43.880        33
43.890        33
43.900        73
43.910        27
43.920         7
43.930        33
43.940         7
43.950        27
43.960         7
43.970         0
43.980        33
43.990        33
44.000        40
44.010        20
44.020        27
44.030        33
44.040        53
44.050        33
44.060        27
44.070        27
44.080        20
44.090        87
44.100        20
44.110        40
44.120        27
44.130        47
44.140        13
44.150        53
44.160        60
44.170        13
44.180        27
44.190        67
44.200        47
44.210        27
44.220        60
44.230        40
44.240        40
44.250        33
44.260        47
44.270        53
44.280        67
44.290        13
44.300        47
44.310        40
44.320        40
44.330        33
44.340        53
44.350        47
44.360        47
44.370        53
44.380        60
44.390        47
44.400        67
44.410        20
44.420        33
44.430        20
44.440        60
44.450        33
44.460        60
44.470       107
44.480        73
44.490        93
44.500        67
44.510        47
44.520        87
44.530        87
44.540       100
44.550        87
44.560        60
44.570        33
44.580        67
44.590        67
44.600        80
44.610        93
44.620       107
44.630        80
44.640        93
44.650        67
44.660        87
44.670        73
44.680       113
44.690       100
44.700        73
44.710        87
44.720       100
44.730        87
44.740       113
44.750        80
44.760        93
44.770       113
44.780        60
44.790       127
44.800        93
44.810       100
44.820        80
44.830       100
44.840        93
44.850       107
44.860        67
44.870        87
44.880        60
44.890        73
44.900        47
44.910        80
44.920        33
44.930        67
44.940        80
44.950        40
44.960        53
44.970       107
44.980        67
44.990        73
45.000        47
45.010        53
45.020        87
45.030        53
45.040        53
45.050        60
45.060       120
45.070        67
45.080        60
45.090        27
45.100        73
45.110        67
45.120        40
45.130        67
45.140        53
45.150        73
45.160        67
45.170        60
45.180        60
45.190        67
45.200        47
45.210        47
45.220        40
45.230        47
45.240        27
45.250        53
45.260        53
45.270        33
45.280        47
45.290        20
45.300        40
45.310        33
45.320        53
45.330        53
45.340        27
45.350        67
45.360        47
45.370        40
45.380        60
45.390        53
45.400        13
45.410        67
45.420        27
45.430        47
45.440        87
45.450        40
45.460        40
45.470        40
45.480        27
45.490        47
45.500        20
45.510        27
45.520        60
45.530        20
45.540         7
45.550        33
45.560        27
45.570        67
45.580        13
45.590        27
45.600        33
45.610        80
45.620        20
45.630        33
45.640        33
45.650        27
45.660        13
45.670        20
45.680        47
45.690        33
45.700        13
45.710         7
45.720        33
45.730        20
45.740        20
45.750        13
45.760        27
45.770        27
45.780        33
45.790        47
45.800         0
45.810        33
45.820        27
45.830        20
45.840        33
45.850        20
45.860        13
45.870        27
45.880        20
45.890        13
45.900        20
45.910        47
45.920        27
45.930        53
45.940        20
45.950        20
45.960        20
45.970        40
45.980        33
45.990        33
46.000        27
46.010         7
46.020        27
46.030        27
46.040         7
46.050         7
46.060         7
46.070        53
46.080        47
46.090        33
46.100         7
46.110        20
46.120        20
46.130        20
46.140        40
46.150        40
46.160        13
46.170        47
46.180        20
46.190        13
46.200        27
46.210        13
46.220        13
46.230        40
46.240        13
46.250        13
46.260        13
46.270         7
46.280         7
46.290        27
46.300        27
46.310        13
46.320         7
46.330        40
46.340         7
46.350        20
46.360        40
46.370        27
46.380         7
46.390        20
46.400        13
46.410        33
46.420        13
46.430        27
46.440         7
46.450        33
46.460        33
46.470        13
46.480        27
46.490        20
46.500        27
46.510        20
46.520        33
46.530        13
46.540        40
46.550        53
46.560        53
46.570        33
46.580        33
46.590        20
46.600        33
46.610        33
46.620        13
46.630        40
46.640         7
46.650        13
46.660         7
46.670         7
46.680        27
46.690        27
46.700         7
46.710        33
46.720        27
46.730        20
46.740        27
46.750        13
46.760        67
46.770        27
46.780         7
46.790         7
46.800        27
46.810        27
46.820        13
46.830        40
46.840        13
46.850        27
46.860        27
46.870        27
46.880        47
46.890        20
46.900        20
46.910        20
46.920         7
46.930        13
46.940        20
46.950         7
46.960        27
46.970        13
46.980         0
46.990        27
47.000         7
47.010         0
47.020        27
47.030         7
47.040        13
47.050         7
47.060        13
47.070        13
47.080        20
47.090        27
47.100        13
47.110        20
47.120        20
47.130        13
47.140        13
47.150        27
47.160         7
47.170        20
47.180        13
47.190         7
47.200         7
47.210        13
47.220        40
47.230         7
47.240         7
47.250        20
47.260         7
47.270        33
47.280        13
47.290        13
47.300        20
47.310        20
47.320         7
47.330        20
47.340         0
47.350        20
47.360        20
47.370         7
47.380        20
47.390        40
47.400        20
47.410        13
47.420        27
47.430        40
47.440        20
47.450        33
47.460        13
47.470        20
47.480        27
47.490        20
47.500        20
47.510         7
47.520        13
47.530        20
47.540        27
47.550        20
47.560        13
47.570        27
47.580        20
47.590        20
47.600        13
47.610        20
47.620         7
47.630         7
47.640         7
47.650        20
47.660         7
47.670        13
47.680        20
47.690         0
47.700        13
47.710        20
47.720         7
47.730         7
47.740        13
47.750        20
47.760        20
47.770         7
47.780        13
47.790         7
47.800        27
47.810        33
47.820         7
47.830        13
47.840        20
47.850        13
47.860         0
47.870        13
47.880         0
47.890        27
47.900        13
47.910        20
47.920        20
47.930        13
47.940         0
47.950        20
47.960        20
47.970         0
47.980        20
47.990        20
48.000        20
48.010        40
48.020        13
48.030        13
48.040        27
48.050        33
48.060        13
48.070        27
48.080        13
48.090        13
48.100        13
48.110         7
48.120        13
48.130        40
48.140         7
48.150        13
48.160        40
48.170        33
48.180        27
48.190        33
48.200        20
48.210        13
48.220        13
48.230        20
48.240        13
48.250        13
48.260        60
48.270         7
48.280        20
48.290         0
48.300        40
48.310         0
48.320        20
48.330        13
48.340        13
48.350        20
48.360        13
48.370        20
48.380         7
48.390        20
48.400        20
48.410         7
48.420        27
48.430         7
48.440         7
48.450        20
48.460        27
48.470        33
48.480        20
48.490        13
48.500         7
48.510        40
48.520        13
48.530        20
48.540        13
48.550         7
48.560        20
48.570        47
48.580        13
48.590        40
48.600        13
48.610        27
48.620        20
48.630        13
48.640         0
48.650        20
48.660        27
48.670        40
48.680        13
48.690         0
48.700         7
48.710         7
48.720         7
48.730        33
48.740        20
48.750        20
48.760        33
48.770         7
48.780        20
48.790        13
48.800         7
48.810         7
48.820        40
48.830         7
48.840        13
48.850        20
48.860        13
48.870        13
48.880        13
48.890        20
48.900        20
48.910        13
48.920         0
48.930        27
48.940        33
48.950         7
48.960        33
48.970        20
48.980        13
48.990        27
49.000        33
49.010        20
49.020        27
49.030         7
49.040        27
49.050        13
49.060        13
49.070         0
49.080         7
49.090        13
49.100         7
49.110        13
49.120        13
49.130        27
49.140        27
49.150         0
49.160        20
49.170         7
49.180        13
49.190        20
49.200         7
49.210        13
49.220         7
49.230        13
49.240        33
49.250        13
49.260         7
49.270         7
49.280         7
49.290        13
49.300        20
49.310         0
49.320        40
49.330        13
49.340         7
49.350        13
49.360         7
49.370        27
49.380        20
49.390         0
49.400        20
49.410         0
49.420        20
49.430        13
49.440         0
49.450        20
49.460        13
49.470        13
49.480        13
49.490         7
49.500        27
49.510        20
49.520         7
49.530        33
49.540        13
49.550         7
49.560         7
49.570         0
49.580         7
49.590        40
49.600        27
49.610        33
49.620        20
49.630         0
49.640        27
49.650        27
49.660         0
49.670         0
49.680         7
49.690        20
49.700        13
49.710         7
49.720        20
49.730        47
49.740        33
49.750        27
49.760        20
49.770        13
49.780        20
49.790         0
49.800         0
49.810        13
49.820         7
49.830        27
49.840         7
49.850         0
49.860        27
49.870        20
49.880        20
49.890        20
49.900        20
49.910        33
49.920        20
49.930        20
49.940        33
49.950        13
49.960        13
49.970        20
49.980        20
49.990        27
50.000         0
50.010        40
50.020        40
50.030         7
50.040        13
50.050        27
50.060        27
50.070         7
50.080         7
50.090        27
50.100        27
50.110         0
50.120        13
50.130        20
50.140        27
50.150        20
50.160        13
50.170        20
50.180        33
50.190         7
50.200        27
50.210        13
50.220        27
50.230        20
50.240        20
50.250        33
50.260         0
50.270        20
50.280        20
50.290        13
50.300         7
50.310         7
50.320        13
50.330         7
50.340        13
50.350        20
50.360        13
50.370         0
50.380        20
50.390        20
50.400         7
50.410         0
50.420         0
50.430        13
50.440        27
50.450        13
50.460         0
50.470        20
50.480        20
50.490        40
50.500        33
50.510         0
50.520        27
50.530        33
50.540        27
50.550        20
50.560        13
50.570        20
50.580        27
50.590        13
50.600        40
50.610        20
50.620        20
50.630        20
50.640        13
50.650        27
50.660         7
50.670        47
50.680         7
50.690        13
50.700        33
50.710        20
50.720         7
50.730        27
50.740        20
50.750         7
50.760         7
50.770        20
50.780         7
50.790        27
50.800        13
50.810        33
50.820        20
50.830         7
50.840        33
50.850        20
50.860        13
50.870        27
50.880        13
50.890        27
50.900        27
50.910        20
50.920        27
50.930        20
50.940        13
50.950         7
50.960        27
50.970         7
50.980        27
50.990         7
51.000        47
51.010        20
51.020        20
51.030        13
51.040        20
51.050        33
51.060        20
51.070        13
51.080        33
51.090        13
51.100        40
51.110        27
51.120         7
51.130         7
51.140        27
51.150        40
51.160        13
51.170        13
51.180         7
51.190        33
51.200        33
51.210        27
51.220        33
51.230        13
51.240         7
51.250        27
51.260         7
51.270         7
51.280        33
51.290        13
51.300        33
51.310        40
51.320         0
51.330        27
51.340        27
51.350        40
51.360        13
51.370        13
51.380         7
51.390        27
51.400        20
51.410        27
51.420        27
51.430        40
51.440        13
51.450        27
51.460        33
51.470        33
51.480        33
51.490        27
51.500        27
51.510         0
51.520        20
51.530        20
51.540        33
51.550        20
51.560        27
51.570        33
51.580        20
51.590        20
51.600         7
51.610        27
51.620        27
51.630        27
51.640        27
51.650        20
51.660        33
51.670        53
51.680        20
51.690        47
51.700        20
51.710        33
51.720        13
51.730        47
51.740        20
51.750        40
51.760        47
51.770        47
51.780        33
51.790        27
51.800        20
51.810        27
51.820        13
51.830        13
51.840        20
51.850        33
51.860        20
51.870        33
51.880        27
51.890        27
51.900        20
51.910        33
51.920        33
51.930        27
51.940        53
51.950         7
51.960        40
51.970        40
51.980        47
51.990        53
52.000        13
52.010        40
52.020        47
52.030        60
52.040        67
52.050        60
52.060        47
52.070        73
52.080        67
52.090        60
52.100        20
52.110        27
52.120        53
52.130        53
52.140        47
52.150        33
52.160        80
52.170        67
52.180        60
52.190        73
52.200        87
52.210       133
52.220        93
52.230       193
52.240       173
52.250       220
52.260       213
52.270       407
52.280       347
52.290       440
52.300       553
52.310       553
52.320       573
52.330       793
52.340       820
52.350       900
52.360       760
52.370       846
52.380       873
52.390       986
52.400       986
52.410       746
52.420       660
52.430       600
52.440       473
52.450       446
52.460       460
52.470       540
52.480       500
52.490       513
52.500       407
52.510       446
52.520       553
52.530       400
52.540       420
52.550       367
52.560       293
52.570       213
52.580       153
52.590       133
52.600       107
52.610        40
52.620        87
52.630        47
52.640        33
52.650        40
52.660        47
52.670        33
52.680        27
52.690        60
52.700        47
52.710        53
52.720        53
52.730        20
52.740        33
52.750        40
52.760        27
52.770        67
52.780        40
52.790        47
52.800        27
52.810        27
52.820        27
52.830        47
52.840        40
52.850        33
52.860        60
52.870        20
52.880        33
52.890        47
52.900        27
52.910        27
52.920        33
52.930        33
52.940        13
52.950        20
52.960        33
52.970        27
52.980        13
52.990        33
53.000        20
53.010        27
53.020        80
53.030        20
53.040        40
53.050        27
53.060        13
53.070        47
53.080        47
53.090        20
53.100        33
53.110        33
53.120        33
53.130        47
53.140        33
53.150        20
53.160        40
53.170        27
53.180        47
53.190        60
53.200        33
53.210        13
53.220        20
53.230        47
53.240        27
53.250        27
53.260        33
53.270        33
53.280        27
53.290        20
53.300        40
53.310        47
53.320        33
53.330        27
53.340        20
53.350        20
53.360        20
53.370        20
53.380        27
53.390        13
53.400        33
53.410        20
53.420        27
53.430        13
53.440        33
53.450        20
53.460        20
53.470        27
53.480        20
53.490        33
53.500        53
53.510        60
53.520        20
53.530         7
53.540        20
53.550        40
53.560        33
53.570        20
53.580        20
53.590        20
53.600        13
53.610        60
53.620         7
53.630        20
53.640        13
53.650        13
53.660        40
53.670        33
53.680        40
53.690        20
53.700        33
53.710        33
53.720        13
53.730        40
53.740        33
53.750        47
53.760         7
53.770        33
53.780         7
53.790         7
53.800        13
53.810        33
53.820         0
53.830        33
53.840        40
53.850        27
53.860        13
53.870         7
53.880        13
53.890        20
53.900        40
53.910        13
53.920        20
53.930        13
53.940        33
53.950        33
53.960        27
53.970        13
53.980        27
53.990        20
54.000        33
54.010        13
54.020        40
54.030        13
54.040        27
54.050        20
54.060        27
54.070        20
54.080        20
54.090         7
54.100        20
54.110        40
54.120        13
54.130        27
54.140        33
54.150        47
54.160         7
54.170        13
54.180        20
54.190        27
54.200        20
54.210        20
54.220        13
54.230        27
54.240        13
54.250        13
54.260        13
54.270        13
54.280         0
54.290        40
54.300        20
54.310        53
54.320         7
54.330         7
54.340        27
54.350        20
54.360        27
54.370        40
54.380        47
54.390        27
54.400        13
54.410        27
54.420        47
54.430        27
54.440        33
54.450         7
54.460        33
54.470        20
54.480        20
54.490        13
54.500        13
54.510        20
54.520        13
54.530        47
54.540         0
54.550        13
54.560        27
54.570        20
54.580        33
54.590        13
54.600        20
54.610         7
54.620        20
54.630        20
54.640        27
54.650        47
54.660        33
54.670        40
54.680        20
54.690         0
54.700        27
54.710        20
54.720         0
54.730        33
54.740        13
54.750        20
54.760        13
54.770        33
54.780        13
54.790         7
54.800        27
54.810        13
54.820        20
54.830        13
54.840         0
54.850        33
54.860        33
54.870        13
54.880         0
54.890        13
54.900        13
54.910         7
54.920        27
54.930         7
54.940         7
54.950         7
54.960         7
54.970         7
54.980        27
54.990         0
55.000        20
55.010        13
55.020        20
55.030        13
55.040        13
55.050        13
55.060        33
55.070         7
55.080        13
55.090        47
55.100        27
55.110         0
55.120        20
55.130        33
55.140        13
55.150        20
55.160        27
55.170        20
55.180        20
55.190        47
55.200        40
55.210        13
55.220        20
55.230        47
55.240        47
55.250         7
55.260        13
55.270        33
55.280        47
55.290        53
55.300        33
55.310        20
55.320        27
55.330        40
55.340        80
55.350        33
55.360        40
55.370        47
55.380        20
55.390        13
55.400         7
55.410        40
55.420        13
55.430        53
55.440        27
55.450        47
55.460        40
55.470        60
55.480        40
55.490        73
55.500        33
55.510        33
55.520        67
55.530        27
55.540        13
55.550        47
55.560        87
55.570        40
55.580        47
55.590        53
55.600        27
55.610        87
55.620        53
55.630        73
55.640        47
55.650        33
55.660        80
55.670        93
55.680        67
55.690        27
55.700        60
55.710        67
55.720       107
55.730        73
55.740        80
55.750        73
55.760        47
55.770        80
55.780        80
55.790        53
55.800        80
55.810        80
55.820        60
55.830        40
55.840        40
55.850        33
55.860        80
55.870        93
55.880        40
55.890        60
55.900        73
55.910       107
55.920        67
55.930        73
55.940        53
55.950        33
55.960       127
55.970        33
55.980        53
55.990        73
56.000        80
56.010        87
56.020        53
56.030       100
56.040        53
56.050        40
56.060        67
56.070        47
56.080        80
56.090        53
56.100        67
56.110        87
56.120        33
56.130        40
56.140        27
56.150        40
56.160        53
56.170        87
56.180        60
56.190        53
56.200        40
56.210        33
56.220        27
56.230        40
56.240        20
56.250        60
56.260        47
56.270        13
56.280        27
56.290        27
56.300        27
56.310        73
56.320        33
56.330        53
56.340        47
56.350        20
56.360        13
56.370         7
56.380        40
56.390        47
56.400        27
56.410        27
56.420        27
56.430        53
56.440        33
56.450        20
56.460        20
56.470        20
56.480        47
56.490        33
56.500        33
56.510        20
56.520         7
56.530        20
56.540        13
56.550        27
56.560        47
56.570        33
56.580        33
56.590        20
56.600        47
56.610        33
56.620        20
56.630         7
56.640        33
56.650        20
56.660        27
56.670        27
56.680        20
56.690        27
56.700        27
56.710        13
56.720        13
56.730        27
56.740        40
56.750        13
56.760        53
56.770        20
56.780        13
56.790        20
56.800        13
56.810         7
56.820        20
56.830        20
56.840        33
56.850        20
56.860        27
56.870        20
56.880        20
56.890        47
56.900        13
56.910         7
56.920        40
56.930         7
56.940         7
56.950         7
56.960        60
56.970        13
56.980        40
56.990        13
57.000        33
57.010        13
57.020        13
57.030         7
57.040         0
57.050        13
57.060         7
57.070         7
57.080        13
57.090         7
57.100         7
57.110        13
57.120        13
57.130        27
57.140        27
57.150        27
57.160         0
57.170        20
57.180        33
57.190         7
57.200        13
57.210        33
57.220         0
57.230        20
57.240        33
57.250         0
57.260        13
57.270        13
57.280        27
57.290        20
57.300        20
57.310        33
57.320         7
57.330         0
57.340         7
57.350        20
57.360        20
57.370         0
57.380        13
57.390         7
57.400        27
57.410        13
57.420        13
57.430        13
57.440        20
57.450        20
57.460         7
57.470        13
57.480         7
57.490        33
57.500        33
57.510         7
57.520         0
57.530        13
57.540         7
57.550        13
57.560        13
57.570        13
57.580         7
57.590         7
57.600         7
57.610        27
57.620        27
57.630        13
57.640         7
57.650         7
57.660        13
57.670        20
57.680        20
57.690         0
57.700         7
57.710         7
57.720        13
57.730        27
57.740        13
57.750        13
57.760         7
57.770        20
57.780         0
57.790        27
57.800        13
57.810        20
57.820        20
57.830        13
57.840        20
57.850        13
57.860         7
57.870        13
57.880        20
57.890        20
57.900        20
57.910        27
57.920        13
57.930        20
57.940        20
57.950        20
57.960         0
57.970        13
57.980        20
57.990         7
58.000         0
58.010        20
58.020         7
58.030         0
58.040         7
58.050        13
58.060         7
58.070        13
58.080        20
58.090        20
58.100        13
58.110         7
58.120         7
58.130        13
58.140         0
58.150         0
58.160        27
58.170        13
58.180         7
58.190        13
58.200         0
58.210        27
58.220        20
58.230         7
58.240        13
58.250        20
58.260        13
58.270        13
58.280        20
58.290        33
58.300         7
58.310        13
58.320        13
58.330         7
58.340        20
58.350         7
58.360        13
58.370         7
58.380        40
58.390        27
58.400        20
58.410        47
58.420        13
58.430         7
58.440         7
58.450         7
58.460        13
58.470        13
58.480         0
58.490        13
58.500        13
58.510        13
58.520         0
58.530         0
58.540         0
58.550        20
58.560        13
58.570        20
58.580        27
58.590        33
58.600         7
58.610         0
58.620        13
58.630         7
58.640        13
58.650         0
58.660        20
58.670        13
58.680         7
58.690        13
58.700         7
58.710        13
58.720         7
58.730        13
58.740         0
58.750         7
58.760         0
58.770         0
58.780        13
58.790         7
58.800         0
58.810         7
58.820        13
58.830         7
58.840        33
58.850         0
58.860         7
58.870         0
58.880        13
58.890        13
58.900        40
58.910         7
58.920         7
58.930         7
58.940        13
58.950         0
58.960         0
58.970        13
58.980        20
58.990        20
59.000         0
59.010         0
59.020        27
59.030         7
59.040        13
59.050         0
59.060        20
59.070         0
59.080         7
59.090        13
59.100        33
59.110        27
59.120         7
59.130        13
59.140         7
59.150         7
59.160        13
59.170         7
59.180         7
59.190        27
59.200        20
59.210        13
59.220         7
59.230        13
59.240        13
59.250        20
59.260         7
59.270         0
59.280        20
59.290         7
59.300        13
59.310        27
59.320        13
59.330         7
59.340        13
59.350        27
59.360         7
59.370         7
59.380         7
59.390        20
59.400        20
59.410         7
59.420         0
59.430        20
59.440         0
59.450        33
59.460        13
59.470        13
59.480         7
59.490         7
59.500         7
59.510        20
59.520         7
59.530        27
59.540        27
59.550        13
59.560         0
59.570         7
59.580        20
59.590         7
59.600        13
59.610         7
59.620         7
59.630        13
59.640        13
59.650         7
59.660        13
59.670        13
59.680        20
59.690         7
59.700        13
59.710        13
59.720        13
59.730         7
59.740        13
59.750         7
59.760        13
59.770        13
59.780        27
59.790         7
59.800         7
59.810        20
59.820        13
59.830        40
59.840         0
59.850         7
59.860        13
59.870         7
59.880        20
59.890        13
59.900        13
59.910        13
59.920         0
59.930        20
59.940         0
59.950         7
59.960         0
59.970        20
59.980         7
59.990         7
60.000         7
