20.000       100
20.010        73
20.020       113
20.030        67
20.040        53
20.050        33
20.060        60
20.070        93
20.080        80
20.090        40
20.100       107
20.110        80
20.120        33
20.130        67
20.140       127
20.150        87
20.160        67
20.170       107
20.180        93
20.190        40
20.200       107
20.210        60
20.220        93
20.230        93
20.240        67
20.250        80
20.260       100
20.270        87
20.280        53
20.290        60
20.300        67
20.310       100
20.320        67
20.330        93
20.340        53
20.350        67
20.360        73
20.370       113
20.380        53
20.390       127
20.400        67
20.410        47
20.420        47
20.430        87
20.440        93
20.450       107
20.460        67
20.470        60
20.480        47
20.490        53
20.500        73
20.510        67
20.520        93
20.530       127
20.540        73
20.550        60
20.560        87
20.570        93
20.580        80
20.590        93
20.600        80
20.610        73
20.620        60
20.630        73
20.640        93
20.650       120
20.660        73
20.670        67
20.680        60
20.690        67
20.700        60
20.710        93
20.720        53
20.730        93
20.740       100
20.750        93
20.760       100
20.770        80
20.780        53
20.790        80
20.800        87
20.810        87
20.820        67
20.830        60
20.840        47
20.850       107
20.860        73
20.870        60
20.880        47
20.890        67
20.900       107
20.910        87
20.920       140
20.930        80
20.940       133
20.950        80
20.960        67
20.970        73
20.980       100
20.990       120
21.000       100
21.010        80
21.020        80
21.030        73
21.040        40
21.050       120
21.060        60
21.070        47
21.080        87
21.090        53
21.100        60
21.110        80
21.120        67
21.130       100
21.140        60
21.150        60
21.160        80
21.170        67
21.180        87
21.190        80
21.200        53
21.210       133
21.220        67
21.230        67
21.240        93
21.250        67
21.260        40
21.270        80
21.280        73
21.290        93
21.300        67
21.310       160
21.320        80
21.330        73
21.340        73
21.350        80
21.360        60
21.370        67
21.380        73
21.390        53
21.400        80
21.410        67
21.420        73
21.430        73
21.440        93
21.450        67
21.460       113
21.470       127
21.480        93
21.490        40
21.500        73
21.510        33
21.520        80
21.530        73
21.540        47
21.550        87
21.560        60
21.570        80
21.580        80
21.590        80
21.600        60
21.610        93
21.620        87
21.630        53
21.640        67
21.650       100
21.660       113
21.670        60
21.680        73
21.690       100
21.700        93
21.710        73
21.720        73
21.730        67
21.740        87
21.750        40
21.760       133
21.770        67
21.780        53
21.790       127
21.800        33
21.810        73
21.820        53
21.830        33
21.840        67
21.850        67
21.860        33
21.870        80
21.880        33
21.890        80
21.900        87
21.910       113
21.920        53
21.930       100
21.940        13
21.950       120
21.960        67
21.970        60
21.980        53
21.990        67
22.000        80
22.010        87
22.020        80
22.030        67
22.040       133
22.050        67
22.060       120
22.070       107
22.080        73
22.090        60
22.100        87
22.110        67
22.120       127
22.130        73
22.140        80
22.150        80
22.160       100
22.170        67
22.180       100
22.190        87
22.200        67
22.210       147
22.220        60
22.230       100
22.240       140
22.250       147
22.260        80
22.270       140
22.280       120
22.290       140
22.300        87
22.310       133
22.320       167
22.330       153
22.340       120
22.350       200
22.360       173
22.370       127
22.380       140
22.390       173
22.400       147
22.410       247
22.420       207
22.430       167
22.440       207
22.450        93
22.460       120
22.470       133
22.480       133
22.490       127
22.500       120
22.510       100
22.520        67
22.530        67
22.540       100
22.550       127
22.560       113
22.570        67
22.580        53
22.590        73
22.600        73
22.610        67
22.620       107
22.630        60
22.640        87
22.650        47
22.660        53
22.670        73
22.680        80
22.690        67
22.700        87
22.710        60
22.720        67
22.730        27
22.740        53
22.750        67
22.760        87
22.770       107
22.780        73
22.790       113
22.800        60
22.810        53
22.820       107
22.830        73
22.840        80
22.850       107
22.860        87
22.870        53
22.880        87
22.890        80
22.900        67
22.910        60
22.920        53
22.930        60
22.940        73
22.950        80
22.960        40
22.970        93
22.980        87
22.990        33
23.000        73
23.010        40
23.020        93
23.030        60
23.040        53
23.050       127
23.060        47
23.070        73
23.080        47
23.090        87
23.100        60
23.110        73
23.120        47
23.130        80
23.140        53
23.150        67
23.160        73
23.170       120
23.180        53
23.190        80
23.200        80
23.210        40
23.220        80
23.230        60
23.240        60
23.250        33
23.260        60
23.270        73
23.280        80
23.290        87
23.300        33
23.310        60
23.320        73
23.330        47
23.340        80
23.350        73
23.360        87
23.370        80
23.380        87
23.390        40
23.400        40
23.410        60
23.420        53
23.430        60
23.440        80
23.450        73
23.460        47
23.470        67
23.480        67
23.490        53
23.500        80
23.510        67
23.520        67
23.530        53
23.540        33
23.550        93
23.560        47
23.570        27
23.580        67
23.590        87
23.600       120
23.610        87
23.620        80
23.630        60
23.640        87
23.650        53
23.660        87
23.670       100
23.680        53
23.690       100
23.700        67
23.710        87
23.720        87
23.730        93
23.740        53
23.750        53
23.760        40
23.770        80
23.780        73
23.790        93
23.800        33
23.810        20
23.820        60
23.830        73
23.840        87
23.850        60
23.860        67
23.870        67
23.880        53
23.890        20
23.900        53
23.910       127
23.920        60
23.930        53
23.940       100
23.950        80
23.960        87
23.970        60
23.980        60
23.990        40
24.000        53
24.010        87
24.020        53
24.030        47
24.040        80
24.050        53
24.060        67
24.070       100
24.080        53
24.090        40
24.100        60
24.110        87
24.120       107
24.130        87
24.140        73
24.150        67
24.160        53
24.170        60
24.180        33
24.190        87
24.200       100
24.210        33
24.220        73
24.230        80
24.240        67
24.250        20
24.260        47
24.270        80
24.280        33
24.290        67
24.300        53
24.310        53
24.320        33
24.330        80
24.340        73
24.350        93
24.360        47
24.370        73
24.380        80
24.390        33
24.400        27
24.410        60
24.420        40
24.430        47
24.440        40
24.450        87
24.460        47
24.470        80
24.480        73
24.490        73
24.500        93
24.510        73
24.520        73
24.530        73
24.540        87
24.550        67
24.560        87
24.570        67
24.580       113
24.590        53
24.600        80
24.610        20
24.620        80
24.630        60
24.640        93
24.650        93
24.660        73
24.670        47
24.680        60
24.690        67
24.700        73
24.710        33
24.720        60
24.730        67
24.740        67
24.750        73
24.760        60
24.770        60
24.780        47
24.790        80
24.800        73
24.810        27
24.820        67
24.830        60
24.840        73
24.850        27
24.860        40
24.870        73
24.880        67
24.890        80
24.900        53
24.910        67
24.920        53
24.930        73
24.940        47
24.950        60
24.960        60
24.970        60
24.980        60
24.990        33
25.000        73
25.010        87
25.020        87
25.030       113
25.040        60
25.050        53
25.060        87
25.070        47
25.080        60
25.090        33
25.100        60
25.110        53
25.120        80
25.130        40
25.140        60
25.150        60
25.160        73
25.170        53
25.180        53
25.190        60
25.200        87
25.210        47
25.220        47
25.230        53
25.240        47
25.250        27
25.260        60
25.270        73
25.280        67
25.290        73
25.300        60
25.310        47
25.320       100
25.330        40
25.340        47
25.350        40
25.360        40
25.370        53
25.380        67
25.390        33
25.400        67
25.410        80
25.420        80
25.430        73
25.440        53
25.450        53
25.460        73
25.470        93
25.480        47
25.490        60
25.500       120
25.510        67
25.520        80
25.530        67
25.540        87
25.550        87
25.560       107
25.570       100
25.580        67
25.590        93
25.600       120
25.610        87
25.620        87
25.630        67
25.640        80
25.650        53
25.660        53
25.670        73
25.680       100
25.690        73
25.700        53
25.710        80
25.720        60
25.730        13
25.740        67
25.750        47
25.760       107
25.770        60
25.780        27
25.790        80
25.800        67
25.810        60
25.820        87
25.830        80
25.840        33
25.850        67
25.860        80
25.870        40
25.880        60
25.890        53
25.900        53
25.910        67
25.920        53
25.930        73
25.940        40
25.950        73
25.960        33
25.970        73
25.980        93
25.990        87
26.000        20
26.010        47
26.020        60
26.030        60
26.040        33
26.050        47
26.060        73
26.070        40
26.080        67
26.090        80
26.100        73
26.110        73
26.120        40
26.130        33
26.140        40
26.150        73
26.160        47
26.170        33
26.180        80
26.190        40
26.200        40
26.210        53
26.220        60
26.230        73
26.240        53
26.250        73
26.260        27
26.270        80
26.280        67
26.290        47
26.300        53
26.310        73
26.320        87
26.330        60
26.340        73
26.350        67
26.360        60
26.370        47
26.380        60
26.390        73
26.400        67
26.410        47
26.420        20
26.430        67
26.440        40
26.450        33
26.460        33
26.470        60
26.480        27
26.490        33
26.500        47
26.510        47
26.520        40
26.530        60
26.540        60
26.550        60
26.560        13
26.570        80
26.580        27
26.590        67
26.600        53
26.610        47
26.620        53
26.630        60
26.640        40
26.650        53
26.660        60
26.670        53
26.680        27
26.690        53
26.700        47
26.710        40
26.720        53
26.730        67
26.740        33
26.750        40
26.760        40
26.770        47
26.780        73
26.790        47
26.800        27
26.810        87
26.820        60
26.830        40
26.840        47
26.850        27
26.860        27
26.870        47
26.880        53
26.890        47
26.900        67
26.910        67
26.920        53
26.930        60
26.940        33
26.950        53
26.960        20
26.970        33
26.980        73
26.990        13
27.000        33
27.010        47
27.020        53
27.030        40
27.040        80
27.050        47
27.060        53
27.070        53
27.080       107
27.090        33
27.100        53
27.110        33
27.120        53
27.130        20
27.140         7
27.150        47
27.160        47
27.170        53
27.180        47
27.190        27
27.200        60
27.210        47
27.220        33
27.230        20
27.240        47
27.250        20
27.260        53
27.270        87
27.280        40
27.290        47
27.300       107
27.310        53
27.320        87
27.330        73
27.340        47
27.350       100
27.360        40
27.370        60
27.380        47
27.390        67
27.400        33
27.410        73
27.420        13
27.430        53
27.440       100
27.450        67
27.460        53
27.470        13
27.480        27
27.490        20
27.500        40
27.510        53
27.520        40
27.530        40
27.540        53
27.550        53
27.560        33
27.570        53
27.580        73
27.590        87
27.600        60
27.610        60
27.620        67
27.630        33
27.640        40
27.650        53
27.660        47
27.670        40
27.680        53
27.690        67
27.700        67
27.710        67
27.720        47
27.730        53
27.740        40
27.750        93
27.760        73
27.770        27
27.780        73
27.790        40
27.800        53
27.810        40
27.820        47
27.830        13
27.840        33
27.850        47
27.860        27
27.870        33
27.880        67
27.890        27
27.900        73
27.910        20
27.920        87
27.930        67
27.940        33
27.950        33
27.960        40
27.970        40
27.980        40
27.990        27
28.000        33
28.010        40
28.020        33
28.030        20
28.040        53
28.050        13
28.060        40
28.070        53
28.080        47
28.090        53
28.100        13
28.110        53
28.120        47
28.130        73
28.140        67
28.150        53
28.160        73
28.170        53
28.180        27
28.190        40
28.200        27
28.210        73
28.220        13
28.230        53
28.240        87
28.250         7
28.260        20
28.270        80
28.280        60
28.290        60
28.300        20
28.310        47
28.320        33
28.330        67
28.340        60
28.350        40
28.360        33
28.370        33
28.380        47
28.390        33
28.400         7
28.410        33
28.420        27
28.430        60
28.440        87
28.450        13
28.460        60
28.470        27
28.480        53
28.490        67
28.500        47
28.510        60
28.520        40
28.530        27
28.540        20
28.550        67
28.560        47
28.570        27
28.580        20
28.590        20
28.600        33
28.610        47
28.620        67
28.630        33
28.640        40
28.650        60
28.660        33
28.670        13
28.680        27
28.690        80
28.700        33
28.710        33
28.720        53
28.730        47
28.740        60
28.750        53
28.760        47
28.770        67
28.780        33
28.790        67
28.800        67
28.810        13
28.820        47
28.830        60
28.840        60
28.850        47
28.860        33
28.870        13
28.880        20
28.890        33
28.900        47
28.910        47
28.920        73
28.930        27
28.940        40
28.950        40
28.960        33
28.970        20
28.980        80
28.990        47
29.000        60
29.010        67
29.020        13
29.030        40
29.040        27
29.050        20
29.060        27
29.070        20
29.080        27
29.090        60
29.100        60
29.110        33
29.120        47
29.130        20
29.140        40
29.150        53
29.160        40
29.170        47
29.180        33
29.190        47
29.200        47
29.210        27
29.220        53
29.230        33
29.240        20
29.250        20
29.260        53
29.270        47
29.280        13
29.290        40
29.300        33
29.310        47
29.320        33
29.330        27
29.340        40
29.350        20
29.360        47
29.370        47
29.380        27
29.390        47
29.400        40
29.410        53
29.420        33
29.430        33
29.440        67
29.450        33
29.460        33
29.470        60
29.480        40
29.490         7
29.500        47
29.510        67
29.520        20
29.530        47
29.540        60
29.550        60
29.560        27
29.570        67
29.580        33
29.590        13
29.600        33
29.610        73
29.620        47
29.630        20
29.640        40
29.650        40
29.660        60
29.670        53
29.680        20
29.690        40
29.700        47
29.710        47
29.720        33
29.730        60
29.740        40
29.750        47
29.760        40
29.770        67
29.780        13
29.790        47
29.800        47
29.810        33
29.820        20
29.830        47
29.840        40
29.850        80
29.860        47
29.870        20
29.880        27
29.890        33
29.900        20
29.910        53
29.920        53
29.930        47
29.940        47
29.950        33
29.960        47
29.970        13
29.980        67
29.990        20
30.000        27
30.010        20
30.020        67
30.030        27
30.040        67
30.050        40
30.060        20
30.070        47
30.080        20
30.090        47
30.100        53
30.110        27
30.120        53
30.130        40
30.140        33
30.150        20
30.160        47
30.170        47
30.180        60
30.190        40
30.200        33
30.210        53
30.220        40
30.230        47
30.240        27
30.250        33
30.260        20
30.270        33
30.280        47
30.290        47
30.300        53
30.310        53
30.320         0
30.330        13
30.340        13
30.350        20
30.360        27
30.370        20
30.380        27
30.390        20
30.400        53
30.410        27
30.420        33
30.430        40
30.440        20
30.450        33
30.460        27
30.470        53
30.480        60
30.490        40
30.500        13
30.510        33
30.520        40
30.530        13
30.540        27
30.550        13
30.560        53
30.570        40
30.580        20
30.590        27
30.600        27
30.610        33
30.620        33
30.630        27
30.640        33
30.650        40
30.660        27
30.670        40
30.680        20
30.690        47
30.700        47
30.710        33
30.720        47
30.730        40
30.740        27
30.750        27
30.760        47
30.770        33
30.780        93
30.790        53
30.800        47
30.810        47
30.820        33
30.830        33
30.840        47
30.850        53
30.860        40
30.870        67
30.880        73
30.890        40
30.900        33
30.910        53
30.920        20
30.930        33
30.940        53
30.950        20
30.960        20
30.970        27
30.980        20
30.990        47
31.000        33
31.010        53
31.020        13
31.030        27
31.040        47
31.050        47
31.060        47
31.070        67
31.080        27
31.090        33
31.100        60
31.110        33
31.120        20
31.130        47
31.140        33
31.150        33
31.160        13
31.170        27
31.180        47
31.190        40
31.200        40
31.210        27
31.220        20
31.230        47
31.240        60
31.250        33
31.260        33
31.270        20
31.280        20
31.290        47
31.300        40
31.310        60
31.320        47
31.330        40
31.340        47
31.350        67
31.360        33
31.370        67
31.380        73
31.390        47
31.400        60
31.410        73
31.420        53
31.430        60
31.440        47
31.450        40
31.460        53
31.470        73
31.480        60
31.490        47
31.500        60
31.510        47
31.520       100
31.530        73
31.540        93
31.550        73
31.560       113
31.570        80
31.580        73
31.590       100
31.600        87
31.610        93
31.620       127
31.630        67
31.640       140
31.650       180
31.660       140
31.670       127
31.680       160
31.690       133
31.700       173
31.710       213
31.720       187
31.730       193
31.740       320
31.750       333
31.760       327
31.770       380
31.780       466
31.790       413
31.800       466
31.810       706
31.820       646
31.830       806
31.840       720
31.850       780
31.860       760
31.870       653
31.880       786
31.890       673
31.900       640
31.910       566
31.920       613
31.930       546
31.940       513
31.950       400
31.960       320
31.970       380
31.980       340
31.990       247
32.000       240
32.010       133
32.020       193
32.030       173
32.040       133
32.050       100
32.060        93
32.070       100
32.080       127
32.090        60
32.100        93
32.110       107
32.120        87
32.130        60
32.140        27
32.150       107
32.160        73
32.170        60
32.180        93
32.190        27
32.200        53
32.210        40
32.220        60
32.230        40
32.240        33
32.250        33
32.260        47
32.270        33
32.280        20
32.290        33
32.300        40
32.310        27
32.320        40
32.330        47
32.340        33
32.350        40
32.360        27
32.370        60
32.380        47
32.390        47
32.400        67
32.410        53
32.420        47
32.430        40
32.440        33
32.450        67
32.460        33
32.470        20
32.480        20
32.490        60
32.500        40
32.510        53
32.520        13
32.530        27
32.540        53
32.550        13
32.560         7
32.570        20
32.580        33
32.590        53
32.600         0
32.610        20
32.620        27
32.630        67
32.640        27
32.650        40
32.660        13
32.670        47
32.680        47
32.690        47
32.700        40
32.710        33
32.720        20
32.730        20
32.740        67
32.750        27
32.760        33
32.770        47
32.780        33
32.790        20
32.800        40
32.810        67
32.820        27
32.830        27
32.840        33
32.850        27
32.860        33
32.870        40
32.880        33
32.890        33
32.900        47
32.910        40
32.920        33
32.930        53
32.940        33
32.950        40
32.960        27
32.970        20
32.980        40
32.990        60
33.000        40
33.010        67
33.020        20
33.030        27
33.040        27
33.050        47
33.060        33
33.070        47
33.080        47
33.090        13
33.100        40
33.110        33
33.120        53
33.130        13
33.140        40
33.150         7
33.160        13
33.170        40
33.180         7
33.190        27
33.200        47
33.210        33
33.220        33
33.230        33
33.240        13
33.250        27
33.260        47
33.270        33
33.280        33
33.290        33
33.300        27
33.310        20
33.320        20
33.330        33
33.340        40
33.350        47
33.360        27
33.370        33
33.380        33
33.390        27
33.400        33
33.410        53
33.420        33
33.430        33
33.440        27
33.450        60
33.460        47
33.470        20
33.480        40
33.490        13
33.500        27
33.510        53
33.520        53
33.530        27
33.540        27
33.550        27
33.560        40
33.570        20
33.580        33
33.590        13
33.600        33
33.610        47
33.620        27
33.630        47
33.640        47
33.650        40
33.660        40
33.670        13
33.680        20
33.690        20
33.700        33
33.710        20
33.720        33
33.730        40
33.740        27
33.750        33
33.760        33
33.770        20
33.780        40
33.790        47
33.800        20
33.810        33
33.820        33
33.830        20
33.840         0
33.850        20
33.860        27
33.870        47
33.880        27
33.890         7
33.900        53
33.910        20
33.920        20
33.930        33
33.940        27
33.950        27
33.960        33
33.970        40
33.980        33
33.990         7
34.000        27
34.010        47
34.020        20
34.030        27
34.040        33
34.050         7
34.060         7
34.070        40
34.080        27
34.090        33
34.100        53
34.110        33
34.120        27
34.130        20
34.140        27
34.150         0
34.160         7
34.170        13
34.180        53
34.190        40
34.200        13
34.210        20
34.220        33
34.230        40
34.240        27
34.250        33
34.260        33
34.270        27
34.280        27
34.290        47
34.300        33
34.310        40
34.320        13
34.330        33
34.340        40
34.350        20
34.360        40
34.370        47
34.380        20
34.390        20
34.400        33
34.410        47
34.420        27
34.430        27
34.440        40
34.450        40
34.460        13
34.470        33
34.480        33
34.490         7
34.500        20
34.510        40
34.520        20
34.530        20
34.540        40
34.550        33
34.560        27
34.570        33
34.580        40
34.590        33
34.600        33
34.610        27
34.620        40
34.630        40
34.640        47
34.650        33
34.660        27
34.670        33
34.680        27
34.690        40
34.700        20
34.710        47
34.720        27
34.730        20
34.740        20
34.750        13
34.760        33
34.770        27
34.780        20
34.790        20
34.800        67
34.810        20
34.820        60
34.830        20
34.840        40
34.850        27
34.860        20
34.870        47
34.880        13
34.890         0
34.900        33
34.910        53
34.920        27
34.930        20
34.940        27
34.950        67
34.960        60
34.970        20
34.980        47
34.990        40
35.000        53
35.010         7
35.020        73
35.030        53
35.040        47
35.050        33
35.060        73
35.070        67
35.080       133
35.090       113
35.100       120
35.110        73
35.120        93
35.130       127
35.140       160
35.150       213
35.160       240
35.170       233
35.180       200
35.190       233
35.200       187
35.210       293
35.220       273
35.230       147
35.240       160
35.250       220
35.260       127
35.270       153
35.280       153
35.290       147
35.300        80
35.310       140
35.320        73
35.330        73
35.340        53
35.350        67
35.360        40
35.370        47
35.380        47
35.390        40
35.400        27
35.410        47
35.420        33
35.430        27
35.440        60
35.450        47
35.460        40
35.470        47
35.480        27
35.490        27
35.500        33
35.510        67
35.520        53
35.530        33
35.540        53
35.550        67
35.560        67
35.570        67
35.580        33
35.590        40
35.600        40
35.610        33
35.620        47
35.630        60
35.640        27
35.650        67
35.660        87
35.670        27
35.680        60
35.690        67
35.700        73
35.710        93
35.720        47
35.730        60
35.740       107
35.750        60
35.760       160
35.770       127
35.780       127
35.790       213
35.800       147
35.810       160
35.820       147
35.830       240
35.840       187
35.850       173
35.860       113
35.870       187
35.880       167
35.890       173
35.900       207
35.910       147
35.920       173
35.930       193
35.940       107
35.950       133
35.960        67
35.970        87
35.980        80
35.990       140
36.000        80
36.010        60
36.020        67
36.030        60
36.040        47
36.050        47
36.060        47
36.070        53
36.080        40
36.090        33
36.100        87
36.110        40
36.120        33
36.130        33
36.140        47
36.150        33
36.160        47
36.170        67
36.180        47
36.190        33
36.200        20
36.210        27
36.220        60
36.230        27
36.240        60
36.250        47
36.260        33
36.270        40
36.280        40
36.290        67
36.300        47
36.310        40
36.320        20
36.330        33
36.340        20
36.350        53
36.360        27
36.370        27
36.380        53
36.390         0
36.400        33
36.410        47
36.420        20
36.430        53
36.440        27
36.450        27
36.460        47
36.470        73
36.480        27
36.490        20
36.500        53
36.510        60
36.520        67
36.530        60
36.540        40
36.550        27
36.560        33
36.570        40
36.580        13
36.590        60
36.600        33
36.610        60
36.620        33
36.630        13
36.640        53
36.650        47
36.660        33
36.670        53
36.680        27
36.690        27
36.700        47
36.710        13
36.720        20
36.730        13
36.740        33
36.750        27
36.760        33
36.770        40
36.780        13
36.790        47
36.800        33
36.810        60
36.820        40
36.830        27
36.840        20
36.850        33
36.860        67
36.870        33
36.880        47
36.890        40
36.900        40
36.910        13
36.920        20
36.930        20
36.940        20
36.950        33
36.960        33
36.970        40
36.980        27
36.990        40
37.000        20
37.010        33
37.020        20
37.030        27
37.040        60
37.050        47
37.060        60
37.070        53
37.080        20
37.090        40
37.100        47
37.110        47
37.120        20
37.130        33
37.140        40
37.150        33
37.160        40
37.170        27
37.180        67
37.190         0
37.200        20
37.210        40
37.220        67
37.230        20
37.240        33
37.250        20
37.260        13
37.270        67
37.280        20
37.290        40
37.300        27
37.310        27
37.320        20
37.330        33
37.340        67
37.350        33
37.360        20
37.370        60
37.380        53
37.390        33
37.400        40
37.410        33
37.420        40
37.430        47
37.440        40
37.450        33
37.460        20
37.470        53
37.480        27
37.490        60
37.500        20
37.510        33
37.520        40
37.530        60
37.540        13
37.550        20
37.560        33
37.570        33
37.580        40
37.590        27
37.600        60
37.610        20
37.620        47
37.630        27
37.640        40
37.650        47
37.660        60
37.670        27
37.680        20
37.690        40
37.700        40
37.710        47
37.720        40
37.730        40
37.740        60
37.750        53
37.760        60
37.770        40
37.780        67
37.790        80
37.800        80
37.810        67
37.820        53
37.830        60
37.840        80
37.850        27
37.860        53
37.870        40
37.880        53
37.890        47
37.900        47
37.910        47
37.920        40
37.930        53
37.940        53
37.950        33
37.960        27
37.970        47
37.980        73
37.990        13
38.000        27
38.010        73
38.020        53
38.030        47
38.040        13
38.050        47
38.060        67
38.070        60
38.080        47
38.090       100
38.100        53
38.110        20
38.120        60
38.130        27
38.140        47
38.150        27
38.160        67
38.170        27
38.180        67
38.190        73
38.200        53
38.210        87
38.220        33
38.230        80
38.240        67
38.250        73
38.260        47
38.270        80
38.280        60
38.290        87
38.300        33
38.310        80
38.320        60
38.330       100
38.340        60
38.350        53
38.360        80
38.370        73
38.380        67
38.390        93
38.400       127
38.410        93
38.420       140
38.430       113
38.440       113
38.450       133
38.460       127
38.470        80
38.480       120
38.490       127
38.500       127
38.510       153
38.520       107
38.530       120
38.540       193
38.550       127
38.560       113
38.570       200
38.580       187
38.590       127
38.600       193
38.610       187
38.620       153
38.630       160
38.640       153
38.650       140
38.660       173
38.670       153
38.680       207
38.690       167
38.700       113
38.710       200
38.720       187
38.730       200
38.740       187
38.750       213
38.760       133
38.770       160
38.780       173
38.790       207
38.800       127
38.810       153
38.820       153
38.830       167
38.840       167
38.850       213
38.860       167
38.870       227
38.880       240
38.890       167
38.900       207
38.910       200
38.920       227
38.930       213
38.940       227
38.950       180
38.960       207
38.970       187
38.980       173
38.990       187
39.000       173
39.010       267
39.020       207
39.030       233
39.040       253
39.050       247
39.060       260
39.070       267
39.080       253
39.090       280
39.100       313
39.110       313
39.120       360
39.130       313
39.140       327
39.150       373
39.160       313
39.170       320
39.180       360
39.190       380
39.200       526
39.210       533
39.220       526
39.230       586
39.240       573
39.250       553
39.260       706
39.270       673
39.280       713
39.290       660
39.300       753
39.310       613
39.320       806
39.330       720
39.340       613
39.350       693
39.360       766
39.370       693
39.380       706
39.390       693
39.400       673
39.410       620
39.420       740
39.430       760
39.440       680
39.450       760
39.460       666
39.470       900
39.480       833
39.490       786
39.500      1073
39.510       973
39.520      1213
39.530      1140
39.540      1273
39.550      1326
39.560      1539
39.570      1493
39.580      1853
39.590      2106
39.600      2119
39.610      2739
39.620      2692
39.630      3405
39.640      3539
39.650      3965
39.660      4258
39.670      4678
39.680      5438
39.690      5738
39.700      6544
39.710      7430
39.720      8717
39.730      9796
39.740     10816
39.750     11969
39.760     14054
39.770     15154
39.780     17106
39.790     19246
39.800     21025
39.810     22858
39.820     24877
39.830     25450
39.840     25630
39.850     26709
39.860     26143
39.870     25950
39.880     25603
39.890     24364
39.900     23804
39.910     22924
39.920     21771
39.930     20972
39.940     19692
39.950     17986
39.960     17020
39.970     15367
39.980     14361
39.990     12628
40.000     12002
40.010      9969
40.020      8903
40.030      7837
40.040      6904
40.050      5998
40.060      5151
40.070      4445
40.080      3732
40.090      3485
40.100      3025
40.110      2472
40.120      2232
40.130      2126
40.140      2006
40.150      1586
40.160      1466
40.170      1406
40.180      1326
40.190      1226
40.200      1026
40.210      1066
40.220       926
40.230       820
40.240       833
40.250       613
40.260       566
40.270       646
40.280       640
40.290       500
40.300       400
40.310       560
40.320       613
40.330       480
40.340       446
40.350       526
40.360       513
40.370       293
40.380       400
40.390       446
40.400       426
40.410       453
40.420       307
40.430       320
40.440       373
40.450       287
40.460       333
40.470       240
40.480       180
40.490       193
40.500       253
40.510       273
40.520       333
40.530       233
40.540       353
40.550       240
40.560       293
40.570       227
40.580       153
40.590       247
40.600       167
40.610       193
40.620       247
40.630       233
40.640       213
40.650       180
40.660       187
40.670       213
40.680       160
40.690       207
40.700       280
40.710       233
40.720       187
40.730       167
40.740       167
40.750       220
40.760       187
40.770       160
40.780       160
40.790       160
40.800       140
40.810       173
40.820       173
40.830       193
40.840       140
40.850       167
40.860       220
40.870       167
40.880       107
40.890       147
40.900       180
40.910       120
40.920       187
40.930       160
40.940       153
40.950       167
40.960       187
40.970       140
40.980       147
40.990       140
41.000       120
41.010       120
41.020       187
41.030       167
41.040       153
41.050       160
41.060       140
41.070       133
41.080        80
41.090       160
41.100        73
41.110       100
41.120       140
41.130       113
41.140       120
41.150       113
41.160        93
41.170       160
41.180       200
41.190       147
41.200       153
41.210       113
41.220       107
41.230       133
41.240        87
41.250       107
41.260       173
41.270       120
41.280       133
41.290        87
41.300       113
41.310       120
41.320        80
41.330       100
41.340       113
41.350        93
41.360       107
41.370       107
41.380       147
41.390       140
41.400       160
41.410       100
41.420       113
41.430       173
41.440       107
41.450       127
41.460        73
41.470       100
41.480       133
41.490       107
41.500       107
41.510       113
41.520        67
41.530       167
41.540       120
41.550        73
41.560       113
41.570       153
41.580       120
41.590        80
41.600       167
41.610        93
41.620        80
41.630       133
41.640       120
41.650       100
41.660       153
41.670       127
41.680       173
41.690       180
41.700       187
41.710       140
41.720       100
41.730       193
41.740       120
41.750       113
41.760       140
41.770       113
41.780        87
41.790       113
41.800        87
41.810       147
41.820       140
41.830       147
41.840       133
41.850       153
41.860        87
41.870       120
41.880        93
41.890        67
41.900        60
41.910        73
41.920        60
41.930        93
41.940       120
41.950       120
41.960       100
41.970       100
41.980       107
41.990        93
42.000       107
42.010        67
42.020        67
42.030       127
42.040        67
42.050        67
42.060        87
42.070        73
42.080        87
42.090        53
42.100       113
42.110        80
42.120       120
42.130        80
42.140       113
42.150       113
42.160        80
42.170        33
42.180        93
42.190        47
42.200        93
42.210        60
42.220       127
42.230        93
42.240        53
42.250       127
42.260        87
42.270        87
42.280        73
42.290        87
42.300        87
42.310       100
42.320       100
42.330       113
42.340        73
42.350        73
42.360        87
42.370        60
42.380        60
42.390        60
42.400        53
42.410        80
42.420        60
42.430       100
42.440       107
42.450        80
42.460       120
42.470        73
42.480        93
42.490       140
42.500        93
42.510        60
42.520        73
42.530        93
42.540        93
42.550       100
42.560        27
42.570       107
42.580        20
42.590        53
42.600        47
42.610        33
42.620       107
42.630        67
42.640        60
42.650        80
42.660        73
42.670        40
42.680       127
42.690        67
42.700        73
42.710        87
42.720        93
42.730        73
42.740        60
42.750        47
42.760        60
42.770       107
42.780        47
42.790       107
42.800       107
42.810        87
42.820        53
42.830        93
42.840        80
42.850        80
42.860       113
42.870        53
42.880        73
42.890        33
42.900        73
42.910        67
42.920        67
42.930        93
42.940        33
42.950        60
42.960        93
42.970        47
42.980       120
42.990        53
43.000        87
43.010        67
43.020        27
43.030       113
43.040        73
43.050        67
43.060        87
43.070        33
43.080        53
43.090        67
43.100        33
43.110        60
43.120        87
43.130       107
43.140        53
43.150        80
43.160        80
43.170        33
43.180        73
43.190       100
43.200        87
43.210        53
43.220        93
43.230        67
43.240        40
43.250       120
43.260        40
43.270       113
43.280        80
43.290        47
43.300        73
43.310        93
43.320        80
43.330        80
43.340       107
43.350       113
43.360        93
43.370       120
43.380       160
43.390       253
43.400       207
43.410       240
43.420       173
43.430       147
43.440       113
43.450       133
43.460       120
43.470       100
43.480       133
43.490       120
43.500       180
43.510       193
43.520       127
43.530       100
43.540       140
43.550       100
43.560       147
43.570        73
43.580        67
43.590        67
43.600        40
43.610        40
43.620        73
43.630        40
43.640        87
43.650        60
43.660        80
43.670        53
43.680        73
43.690        73
43.700        33
43.710        73
43.720       113
43.730        40
43.740        53
43.750        73
43.760        47
43.770        60
43.780        27
43.790        80
43.800        53
43.810        67
43.820        53
43.830        47
43.840        87
43.850        53
43.860        67
43.870        53
43.880       127
43.890        53
43.900        53
43.910        60
43.920        47
43.930        40
43.940        47
43.950        40
43.960        40
43.970        93
43.980        73
43.990        60
44.000        60
44.010        60
44.020        47
44.030        40
44.040        73
44.050        27
44.060        67
44.070        47
44.080        53
44.090       100
44.100        53
44.110        60
44.120        27
44.130        67
44.140        33
44.150        40
44.160        40
44.170        47
44.180        53
44.190        53
44.200        47
44.210        53
44.220        67
44.230        33
44.240        73
44.250        53
44.260        67
44.270        80
44.280        53
44.290        80
44.300        27
44.310        67
44.320        53
44.330        93
44.340        93
44.350        53
44.360        33
44.370        60
44.380        60
44.390        60
44.400        80
44.410        80
44.420        27
44.430        33
44.440        53
44.450        33
44.460        53
44.470        73
44.480        73
44.490        40
44.500        67
44.510        60
44.520        40
44.530        67
44.540        33
44.550        47
44.560        73
44.570        40
44.580        60
44.590        67
44.600        87
44.610        53
44.620        60
44.630        33
44.640        33
44.650        20
44.660        60
44.670        67
44.680        40
44.690        40
44.700        47
44.710        73
44.720        40
44.730        40
44.740        73
44.750        67
44.760        40
44.770        60
44.780        53
44.790       120
44.800        53
44.810        47
44.820       113
44.830        47
44.840        20
44.850        27
44.860        47
44.870        73
44.880        40
44.890        20
44.900        60
44.910       100
44.920        87
44.930        40
44.940        40
44.950        53
44.960        73
44.970        53
44.980        53
44.990        47
45.000        53
45.010        73
45.020        27
45.030        53
45.040        40
45.050        47
45.060        60
45.070        47
45.080        60
45.090        40
45.100        47
45.110        53
45.120        60
45.130        27
45.140        73
45.150        53
45.160        60
45.170        87
45.180        67
45.190        47
45.200        47
45.210        47
45.220        20
45.230        40
45.240        40
45.250        73
45.260        53
45.270        67
45.280        27
45.290        33
45.300        53
45.310        33
45.320        53
45.330        53
45.340        47
45.350        53
45.360        53
45.370        73
45.380        33
45.390        93
45.400        67
45.410        67
45.420        73
45.430        67
45.440       107
45.450        80
45.460        87
45.470        67
45.480       127
45.490        93
45.500       100
45.510       113
45.520       107
45.530       107
45.540       107
45.550       140
45.560       140
45.570       167
45.580       173
45.590       127
45.600       207
45.610       207
45.620       147
45.630       193
45.640       167
45.650       247
45.660       173
45.670       200
45.680       160
45.690       293
45.700       193
45.710       153
45.720       200
45.730       187
45.740       140
45.750       173
45.760       160
45.770       160
45.780       167
45.790       107
45.800       147
45.810       140
45.820       133
45.830       107
45.840       113
45.850       113
45.860       100
45.870       113
45.880       127
45.890        67
45.900        60
45.910       113
45.920        73
45.930        60
45.940        80
45.950        47
45.960        67
45.970        53
45.980        73
45.990        40
46.000        67
46.010        60
46.020        73
46.030        33
46.040        40
46.050        47
46.060        53
46.070        27
46.080        27
46.090        33
46.100        40
46.110        53
46.120        60
46.130        33
46.140        60
46.150        67
46.160        87
46.170        47
46.180        73
46.190        53
46.200        73
46.210        80
46.220        60
46.230        27
46.240       127
46.250        47
46.260        33
46.270        27
46.280        60
46.290        27
46.300        40
46.310        33
46.320        60
46.330        60
46.340        47
46.350        67
46.360        33
46.370        40
46.380        33
46.390        53
46.400        47
46.410        60
46.420        33
46.430        33
46.440        33
46.450        13
46.460        53
46.470        40
46.480        53
46.490        40
46.500        33
46.510        60
46.520        40
46.530        67
46.540        53
46.550        20
46.560        60
46.570        40
46.580        33
46.590        47
46.600        13
46.610        40
46.620        40
46.630        27
46.640        53
46.650        33
46.660        33
46.670        33
46.680        27
46.690        27
46.700        40
46.710        33
46.720        47
46.730        13
46.740        27
46.750        20
46.760        73
46.770        27
46.780        60
46.790        20
46.800        27
46.810        47
46.820        13
46.830        20
46.840        47
46.850        33
46.860        47
46.870        27
46.880        27
46.890        67
46.900        53
46.910        47
46.920        47
46.930        27
46.940        20
46.950        33
46.960        27
46.970        47
46.980        53
46.990        47
47.000        13
47.010        33
47.020        27
47.030        40
47.040        27
47.050        53
47.060        60
47.070         7
47.080        33
47.090        27
47.100        20
47.110        20
47.120        47
47.130        40
47.140        27
47.150        47
47.160        47
47.170        33
47.180        20
47.190        47
47.200        53
47.210        27
47.220        40
47.230        40
47.240        13
47.250         0
47.260        47
47.270        60
47.280        20
47.290        53
47.300        60
47.310        47
47.320        47
47.330        27
47.340        33
47.350        40
47.360        27
47.370        40
47.380        27
47.390        27
47.400        33
47.410        27
47.420        60
47.430        53
47.440        47
47.450        67
47.460        20
47.470        47
47.480        53
47.490        47
47.500        13
47.510        60
47.520        40
47.530        27
47.540        40
47.550        20
47.560        27
47.570        33
47.580        67
47.590        20
47.600        47
47.610        27
47.620        40
47.630         0
47.640         7
47.650        53
47.660        20
47.670        60
47.680        33
47.690        47
47.700        40
47.710        60
47.720        33
47.730        13
47.740        40
47.750        47
47.760        40
47.770        27
47.780        40
47.790        60
47.800        40
47.810        27
47.820        20
47.830        53
47.840        47
47.850        20
47.860        27
47.870        40
47.880        27
47.890        40
47.900        60
47.910        40
47.920        40
47.930        27
47.940        20
47.950        87
47.960        47
47.970        20
47.980        40
47.990        40
48.000        33
48.010        47
48.020        27
48.030        27
48.040        27
48.050        40
48.060        47
48.070        27
48.080        33
48.090        53
48.100        60
48.110        20
48.120        33
48.130        13
48.140        73
48.150         7
48.160        20
48.170        33
48.180         7
48.190        13
48.200        27
48.210        40
48.220        47
48.230        20
48.240        40
48.250        20
48.260        27
48.270        53
48.280        33
48.290        40
48.300        40
48.310        53
48.320        13
48.330        20
48.340        33
48.350        33
48.360        53
48.370         7
48.380        27
48.390        40
48.400        20
48.410        47
48.420        53
48.430         7
48.440        27
48.450        27
48.460        13
48.470        40
48.480        33
48.490        20
48.500        47
48.510        20
48.520        73
48.530        40
48.540        27
48.550        47
48.560        60
48.570        13
48.580        47
48.590        27
48.600        13
48.610        47
48.620        40
48.630        33
48.640        27
48.650        13
48.660        47
48.670        33
48.680        13
48.690        53
48.700        33
48.710        53
48.720        40
48.730        20
48.740        47
48.750        20
48.760        27
48.770        40
48.780        20
48.790        13
48.800        20
48.810        33
48.820        33
48.830         7
48.840        33
48.850        20
48.860        47
48.870        20
48.880        27
48.890        40
48.900        27
48.910        60
48.920        20
48.930        27
48.940        13
48.950        27
48.960        20
48.970        67
48.980        27
48.990        27
49.000        47
49.010        40
49.020         7
49.030         7
49.040        27
49.050        47
49.060        40
49.070        20
49.080        33
49.090        13
49.100        27
49.110        47
49.120        13
49.130        27
49.140        33
49.150         7
49.160        33
49.170        33
49.180        40
49.190        53
49.200        33
49.210        20
49.220        20
49.230        33
49.240         7
49.250        27
49.260        40
49.270        20
49.280        27
49.290        60
49.300        47
49.310        33
49.320        20
49.330        27
49.340        60
49.350        33
49.360        73
49.370        27
49.380        47
49.390        20
49.400        67
49.410        20
49.420        33
49.430        27
49.440        33
49.450        13
49.460         7
49.470        20
49.480        47
49.490        33
49.500        33
49.510        20
49.520        13
49.530        47
49.540        27
49.550        40
49.560        27
49.570         0
49.580         7
49.590        40
49.600        20
49.610         7
49.620        27
49.630        27
49.640        27
49.650        20
49.660        20
49.670        20
49.680         7
49.690        47
49.700        27
49.710        13
49.720        13
49.730        47
49.740        27
49.750        27
49.760        40
49.770        27
49.780        33
49.790        27
49.800        20
49.810        47
49.820        33
49.830        13
49.840        47
49.850        13
49.860         7
49.870        53
49.880        27
49.890        47
49.900        33
49.910         7
49.920        33
49.930        27
49.940        27
49.950        27
49.960        27
49.970        33
49.980        20
49.990        13
50.000        27
50.010        27
50.020        27
50.030        40
50.040         7
50.050        20
50.060        27
50.070        27
50.080        27
50.090        13
50.100        47
50.110        27
50.120        27
50.130        33
50.140        27
50.150        13
50.160        27
50.170        20
50.180        13
50.190        33
50.200        33
50.210         7
50.220        33
50.230         0
50.240        20
50.250        13
50.260        20
50.270        27
50.280         0
50.290        47
50.300        33
50.310        40
50.320        33
50.330         7
50.340        27
50.350        13
50.360        27
50.370        47
50.380         7
50.390        40
50.400        33
50.410        33
50.420        33
50.430        20
50.440         7
50.450        20
50.460        27
50.470        20
50.480         7
50.490        33
50.500        33
50.510        27
50.520        20
50.530        27
50.540        20
50.550         7
50.560        40
50.570        20
50.580        20
50.590        53
50.600        20
50.610        13
50.620        40
50.630         7
50.640        20
50.650        27
50.660        20
50.670        27
50.680        33
50.690        33
50.700        20
50.710        27
50.720        27
50.730        27
50.740         0
50.750        53
50.760        13
50.770        33
50.780        13
50.790        13
50.800        33
50.810        20
50.820        20
50.830        33
50.840        20
50.850         7
50.860        13
50.870        20
50.880        20
50.890        53
50.900        47
50.910        27
50.920        33
50.930         7
50.940        20
50.950        20
50.960        20
50.970        40
50.980        73
50.990        40
51.000        40
51.010        27
51.020        53
51.030        27
51.040        40
51.050        27
51.060        20
51.070        27
51.080        40
51.090        33
51.100        33
51.110        33
51.120        33
51.130        40
51.140        20
51.150        20
51.160        13
51.170        40
51.180        33
51.190        60
51.200         7
51.210        47
51.220        33
51.230        40
51.240         0
51.250        20
51.260        53
51.270         7
51.280        40
51.290        60
51.300        53
51.310        13
51.320        53
51.330        27
51.340        47
51.350        40
51.360        40
51.370        47
51.380        67
51.390        47
51.400        33
51.410        40
51.420        27
51.430        53
51.440        20
51.450        33
51.460        67
51.470        47
51.480        40
51.490        40
51.500        47
51.510        27
51.520        47
51.530        33
51.540        47
51.550        53
51.560        20
51.570        27
51.580        60
51.590        47
51.600        27
51.610        33
51.620        20
51.630        27
51.640        27
51.650        20
51.660        33
51.670         7
51.680         7
51.690        13
51.700        53
51.710        27
51.720        53
51.730        20
51.740        40
51.750         7
51.760        33
51.770        13
51.780         7
51.790        47
51.800        13
51.810        20
51.820        33
51.830        13
51.840        20
51.850         0
51.860        13
51.870        20
51.880        33
51.890        13
51.900         7
51.910        33
51.920        20
51.930        27
51.940        13
51.950        27
51.960         7
51.970        20
51.980        13
51.990        20
52.000         0
52.010         7
52.020         7
52.030        13
52.040        27
52.050        20
52.060        33
52.070         7
52.080        27
52.090        13
52.100        27
52.110         7
52.120         7
52.130        20
52.140        47
52.150        27
52.160        33
52.170        13
52.180        33
52.190        33
52.200        13
52.210        33
52.220        20
52.230        20
52.240        27
52.250         7
52.260         7
52.270        47
52.280        20
52.290        20
52.300        27
52.310        27
52.320         7
52.330         0
52.340        40
52.350        20
52.360         7
52.370        20
52.380        27
52.390        40
52.400         7
52.410        33
52.420        27
52.430        27
52.440        27
52.450        33
52.460        20
52.470        13
52.480        33
52.490        33
52.500        13
52.510         7
52.520        47
52.530        60
52.540        73
52.550        80
52.560        93
52.570        40
52.580        40
52.590        93
52.600       107
52.610        33
52.620        80
52.630        47
52.640        40
52.650        33
52.660        47
52.670        40
52.680        73
52.690        47
52.700        40
52.710        27
52.720        60
52.730        33
52.740        67
52.750        27
52.760        67
52.770        27
52.780        13
52.790        20
52.800        13
52.810        13
52.820        20
52.830        27
52.840        33
52.850         7
52.860        27
52.870        13
52.880         7
52.890        27
52.900        33
52.910        20
52.920         7
52.930        27
52.940        27
52.950        13
52.960        20
52.970         0
52.980        33
52.990        20
53.000         7
53.010        20
53.020        13
53.030        20
53.040         0
53.050        13
53.060        20
53.070        27
53.080        40
53.090        33
53.100         7
53.110        20
53.120        27
53.130        40
53.140        33
53.150        13
53.160        13
53.170         0
53.180        13
53.190        27
53.200         7
53.210        53
53.220        40
53.230        33
53.240        20
53.250        47
53.260         0
53.270        13
53.280        20
53.290        13
53.300        33
53.310         0
53.320        40
53.330        20
53.340        47
53.350         7
53.360        13
53.370        33
53.380        27
53.390         7
53.400         0
53.410         7
53.420         7
53.430        13
53.440        20
53.450        13
53.460         7
53.470        20
53.480        20
53.490         7
53.500        80
53.510        40
53.520        13
53.530         7
53.540        13
53.550        20
53.560        20
53.570        20
53.580        27
53.590         7
53.600        33
53.610         7
53.620        20
53.630         0
53.640        40
53.650        13
53.660        27
53.670        13
53.680        13
53.690        13
53.700        13
53.710         7
53.720        20
53.730        33
53.740        20
53.750        33
53.760         7
53.770        47
53.780        33
53.790        20
53.800        20
53.810        40
53.820        13
53.830        20
53.840        33
53.850        33
53.860        40
53.870        33
53.880        27
53.890         7
53.900        33
53.910        27
53.920        40
53.930         0
53.940        20
53.950        20
53.960         7
53.970        20
53.980        13
53.990        33
54.000         7
54.010         7
54.020         7
54.030        27
54.040        13
54.050        27
54.060        20
54.070        20
54.080        13
54.090        20
54.100        20
54.110        13
54.120         7
54.130        27
54.140        47
54.150        20
54.160         7
54.170        33
54.180        33
54.190        33
54.200        13
54.210        13
54.220        13
54.230        20
54.240        13
54.250        27
54.260        27
54.270         7
54.280        20
54.290        13
54.300        13
54.310        20
54.320         7
54.330        20
54.340         0
54.350         7
54.360        40
54.370        33
54.380         0
54.390        20
54.400         7
54.410         7
54.420         0
54.430         7
54.440        20
54.450        13
54.460        13
54.470         7
54.480        13
54.490        27
54.500        13
54.510        47
54.520        47
54.530        33
54.540        13
54.550         7
54.560        13
54.570        33
54.580         7
54.590        20
54.600        20
54.610        13
54.620        20
54.630         7
54.640         0
54.650        33
54.660        13
54.670        47
54.680        13
54.690        20
54.700        13
54.710        20
54.720        20
54.730        33
54.740        13
54.750        27
54.760         0
54.770        20
54.780         0
54.790        20
54.800         7
54.810        27
54.820         0
54.830        33
54.840        33
54.850        13
54.860        20
54.870        20
54.880        33
54.890        20
54.900        27
54.910        27
54.920        33
54.930        20
54.940        20
54.950         7
54.960        27
54.970        27
54.980        27
54.990        20
55.000         0
55.010         7
55.020        27
55.030         7
55.040        27
55.050         0
55.060         0
55.070         7
55.080        13
55.090        33
55.100         0
55.110        33
55.120        33
55.130        13
55.140        27
55.150        20
55.160        13
55.170        40
55.180         7
55.190         7
55.200        13
55.210        47
55.220        40
55.230        20
55.240        13
55.250        20
55.260        33
55.270        13
55.280        27
55.290         7
55.300        33
55.310        13
55.320        33
55.330        27
55.340        20
55.350         7
55.360        27
55.370        27
55.380        60
55.390         0
55.400         7
55.410         7
55.420        13
55.430        13
55.440        53
55.450        13
55.460         0
55.470        20
55.480        40
55.490        20
55.500        20
55.510        13
55.520        20
55.530        20
55.540         0
55.550        20
55.560        20
55.570        27
55.580        20
55.590        20
55.600        13
55.610        20
55.620        27
55.630        27
55.640        13
55.650        27
55.660        20
55.670        27
55.680        13
55.690        33
55.700        20
55.710        40
55.720         0
55.730         7
55.740        20
55.750        20
55.760         0
55.770        13
55.780         7
55.790        20
55.800         7
55.810        20
55.820        27
55.830        20
55.840        33
55.850        13
55.860        27
55.870        27
55.880        13
55.890         0
55.900         0
55.910        47
55.920         7
55.930        33
55.940        27
55.950        20
55.960        27
55.970        20
55.980        13
55.990         7
56.000        20
56.010        13
56.020        20
56.030        20
56.040        33
56.050        20
56.060        27
56.070        33
56.080        53
56.090        13
56.100        20
56.110        27
56.120        20
56.130        13
56.140        13
56.150        20
56.160        20
56.170        27
56.180        33
56.190        13
56.200        27
56.210        20
56.220        13
56.230        13
56.240        27
56.250        20
56.260        27
56.270        33
56.280        20
56.290        13
56.300        33
56.310        13
56.320         7
56.330        13
56.340        13
56.350        33
56.360        20
56.370        20
56.380        27
56.390        13
56.400        27
56.410        40
56.420        40
56.430        27
56.440        40
56.450        47
56.460        53
56.470        27
56.480        40
56.490        53
56.500         7
56.510        60
56.520        67
56.530        20
56.540        40
56.550        67
56.560        60
56.570        47
56.580        73
56.590        80
56.600        47
56.610        80
56.620        53
56.630        33
56.640        73
56.650        73
56.660        93
56.670       133
56.680       100
56.690       113
56.700       180
56.710       167
56.720       187
56.730       213
56.740       153
56.750       233
56.760       133
56.770       227
56.780       200
56.790       153
56.800       127
56.810       227
56.820       173
56.830       127
56.840       167
56.850       140
56.860       107
56.870        67
56.880        80
56.890       187
56.900       153
56.910       140
56.920        67
56.930       107
56.940        73
56.950       100
56.960       120
56.970        93
56.980       120
56.990        80
57.000        73
57.010        87
57.020        20
57.030        60
57.040        87
57.050        47
57.060        27
57.070        33
57.080       100
57.090        40
57.100        27
57.110        33
57.120        47
57.130        53
57.140        47
57.150        53
57.160        40
57.170        20
57.180        13
57.190        27
57.200        27
57.210        13
57.220        40
57.230        33
57.240        40
57.250        33
57.260         7
57.270        27
57.280        27
57.290        47
57.300        27
57.310         7
57.320        13
57.330        40
57.340        27
57.350        27
57.360        27
57.370        20
57.380        40
57.390        27
57.400        47
57.410        47
57.420        33
57.430        67
57.440        67
57.450        93
57.460        80
57.470        93
57.480       100
57.490        73
57.500       127
57.510       200
57.520       200
57.530       147
57.540       193
57.550       107
57.560       127
57.570       127
57.580        87
57.590        73
57.600        40
57.610        73
57.620        73
57.630        67
57.640        80
57.650        73
57.660        80
57.670        47
57.680       127
57.690       113
57.700        93
57.710        80
57.720        60
57.730        93
57.740        40
57.750        33
57.760        13
57.770        40
57.780        20
57.790        20
57.800        27
57.810        27
57.820        13
57.830        20
57.840        20
57.850        47
57.860        13
57.870        13
57.880        27
57.890        20
57.900        20
57.910        13
57.920        13
57.930        13
57.940         0
57.950        20
57.960         7
57.970        20
57.980        33
57.990         7
58.000        13
58.010        20
58.020         7
58.030         7
58.040         7
58.050        40
58.060        40
58.070        13
58.080        20
58.090        13
58.100         0
58.110         7
58.120        13
58.130        13
58.140        27
58.150        13
58.160        27
58.170        20
58.180        13
58.190         0
58.200         0
58.210         7
58.220        13
58.230         7
58.240         7
58.250        13
58.260         7
58.270        20
58.280        13
58.290        13
58.300        33
58.310         7
58.320        33
58.330        20
58.340        13
58.350        20
58.360         7
58.370         0
58.380         0
58.390         7
58.400         7
58.410        13
58.420         0
58.430        13
58.440        27
58.450        13
58.460        20
58.470         0
58.480        20
58.490         7
58.500        20
58.510        13
58.520        27
58.530         0
58.540        27
58.550        27
58.560        27
58.570        20
58.580         7
58.590         7
58.600        20
58.610         7
58.620         7
58.630        20
58.640         0
58.650         7
58.660        13
58.670         7
58.680        13
58.690         0
58.700         7
58.710         7
58.720        13
58.730        20
58.740         7
58.750        20
58.760        27
58.770        13
58.780        20
58.790         7
58.800         7
58.810         7
58.820        20
58.830        40
58.840        13
58.850        13
58.860        33
58.870         7
58.880        13
58.890         7
58.900         7
58.910         7
58.920        13
58.930        13
58.940        13
58.950        20
58.960        27
58.970         7
58.980         0
58.990        27
59.000        27
59.010        20
59.020         7
59.030        13
59.040        13
59.050        33
59.060         0
59.070        20
59.080        20
59.090        20
59.100        20
59.110         7
59.120        27
59.130         7
59.140        13
59.150         7
59.160        33
59.170         7
59.180        13
59.190        13
59.200        13
59.210        13
59.220         7
59.230        13
59.240         7
59.250        27
59.260         7
59.270        20
59.280        13
59.290         7
59.300         7
59.310        13
59.320         0
59.330        27
59.340         7
59.350        33
59.360        13
59.370        20
59.380        20
59.390         0
59.400        13
59.410         7
59.420        13
59.430         0
59.440         7
59.450        13
59.460        27
59.470         7
59.480         0
59.490        20
59.500        20
59.510        13
59.520        33
59.530        20
59.540        20
59.550         7
59.560         7
59.570        53
59.580        33
59.590        27
59.600         7
59.610         7
59.620        27
59.630         7
59.640        27
59.650        27
59.660        40
59.670        20
59.680        13
59.690        33
59.700        20
59.710        13
59.720        13
59.730        13
59.740        20
59.750        27
59.760         7
59.770        13
59.780        20
59.790        13
59.800        47
59.810         7
59.820         0
59.830         7
59.840        13
59.850        13
59.860        13
59.870        20
59.880        20
59.890         7
59.900        40
59.910         7
59.920        20
59.930        13
59.940         0
59.950        13
59.960        27
59.970        33
59.980         7
59.990        13
60.000        13
