20.000        47
20.010        60
20.020        47
20.030        87
20.040        47
20.050        53
20.060        53
20.070        53
20.080        53
20.090        53
20.100        53
20.110        53
20.120        80
20.130        47
20.140        33
20.150        33
20.160        60
20.170        47
20.180        33
20.190        33
20.200        60
20.210        60
20.220        53
20.230        73
20.240        20
20.250        40
20.260        33
20.270        53
20.280        40
20.290        33
20.300        40
20.310        47
20.320        53
20.330        60
20.340        40
20.350        67
20.360        27
20.370        27
20.380        20
20.390        73
20.400        33
20.410        60
20.420        53
20.430        33
20.440        40
20.450        60
20.460        53
20.470        40
20.480        40
20.490        67
20.500        33
20.510        60
20.520        47
20.530        27
20.540        47
20.550        20
20.560        53
20.570        60
20.580        53
20.590        73
20.600        13
20.610        13
20.620        60
20.630        13
20.640        60
20.650        47
20.660        60
20.670        20
20.680        53
20.690        33
20.700        33
20.710        47
20.720        40
20.730        60
20.740        20
20.750        20
20.760        47
20.770        27
20.780        33
20.790        33
20.800        27
20.810        40
20.820         7
20.830        40
20.840        60
20.850        53
20.860        47
20.870        20
20.880        67
20.890        60
20.900        67
20.910        53
20.920        47
20.930        60
20.940        40
20.950        60
20.960        53
20.970        40
20.980        27
20.990        40
21.000        67
21.010        33
21.020        53
21.030        73
21.040        53
21.050        47
21.060        80
21.070        60
21.080        40
21.090        60
21.100        47
21.110        53
21.120        40
21.130        20
21.140        40
21.150        67
21.160        60
21.170        47
21.180        47
21.190        53
21.200        40
21.210        60
21.220        33
21.230        60
21.240        67
21.250        40
21.260        80
21.270       100
21.280        87
21.290        67
21.300        47
21.310        67
21.320        80
21.330        60
21.340       100
21.350        80
21.360        73
21.370        67
21.380        47
21.390        80
21.400        87
21.410        73
21.420       100
21.430       107
21.440        73
21.450        80
21.460       153
21.470        93
21.480       113
21.490       140
21.500        87
21.510        93
21.520       100
21.530       187
21.540       200
21.550       160
21.560       213
21.570       187
21.580       133
21.590       147
21.600       180
21.610       260
21.620       233
21.630       147
21.640       200
21.650       213
21.660       180
21.670       287
21.680       220
21.690       193
21.700       213
21.710       260
21.720       293
21.730       187
21.740       173
21.750       247
21.760       273
21.770       153
21.780       173
21.790       200
21.800       167
21.810       140
21.820       173
21.830       160
21.840       107
21.850       140
21.860       120
21.870       100
21.880       107
21.890       107
21.900       100
21.910        60
21.920       100
21.930       100
21.940        67
21.950        40
21.960        40
21.970        67
21.980        73
21.990        20
22.000        67
22.010        53
22.020       100
22.030        60
22.040        60
22.050        87
22.060        67
22.070        47
22.080        47
22.090        40
22.100        27
22.110        73
22.120        67
22.130        20
22.140        47
22.150        53
22.160        27
22.170        20
22.180        53
22.190        73
22.200        67
22.210        27
22.220        73
22.230        67
22.240        47
22.250        27
22.260        67
22.270        47
22.280        40
22.290        20
22.300        40
22.310        53
22.320         7
22.330        53
22.340        40
22.350        60
22.360        47
22.370        73
22.380        53
22.390        53
22.400        53
22.410        33
22.420        53
22.430        60
22.440        87
22.450        67
22.460        27
22.470        20
22.480        53
22.490        47
22.500        40
22.510        67
22.520        67
22.530        40
22.540        33
22.550        47
22.560        60
22.570        27
22.580        40
22.590        47
22.600        33
22.610        40
22.620        47
22.630        27
22.640        27
22.650        60
22.660        33
22.670        53
22.680        53
22.690        33
22.700        47
22.710        60
22.720        53
22.730        80
22.740        40
22.750        40
22.760        40
22.770        87
22.780        47
22.790        33
22.800        67
22.810        47
22.820        20
22.830        40
22.840        40
22.850        33
22.860        33
22.870        47
22.880        40
22.890        40
22.900        40
22.910        47
22.920        33
22.930        47
22.940        47
22.950        33
22.960        73
22.970        53
22.980        20
22.990        20
23.000        40
23.010        53
23.020        47
23.030        47
23.040        33
23.050        47
23.060        27
23.070        33
23.080        47
23.090        27
23.100        80
23.110        33
23.120        20
23.130        53
23.140        33
23.150        47
23.160        33
23.170        53
23.180        40
23.190        60
23.200        33
23.210        33
23.220        27
23.230        60
23.240        13
23.250         0
23.260        20
23.270        47
23.280        53
23.290        40
23.300        20
23.310        33
23.320        33
23.330        60
23.340        33
23.350        40
23.360        80
23.370        20
23.380        27
23.390        40
23.400        20
23.410        33
23.420        27
23.430        33
23.440        27
23.450        33
23.460        60
23.470        67
23.480        13
23.490        27
23.500        67
23.510        40
23.520        27
23.530        40
23.540         7
23.550        13
23.560        53
23.570        67
23.580        33
23.590        53
23.600        87
23.610        80
23.620        53
23.630        40
23.640        40
23.650        40
23.660        53
23.670        53
23.680        20
23.690        67
23.700        33
23.710        27
23.720        73
23.730        67
23.740        33
23.750        27
23.760        27
23.770        47
23.780        53
23.790        47
23.800        20
23.810        40
23.820        20
23.830        47
23.840        47
23.850        53
23.860        47
23.870        27
23.880        47
23.890        53
23.900        40
23.910        33
23.920         0
23.930        27
23.940        40
23.950        60
23.960        33
23.970        60
23.980        53
23.990        27
24.000        47
24.010        40
24.020        47
24.030        33
24.040        47
24.050        27
24.060        33
24.070        13
24.080        40
24.090        33
24.100        20
24.110        20
24.120        47
24.130        40
24.140        60
24.150        80
24.160        80
24.170        53
24.180        53
24.190        47
24.200        67
24.210        20
24.220        60
24.230        60
24.240        60
24.250        20
24.260        13
24.270        20
24.280        33
24.290        40
24.300        73
24.310        27
24.320        53
24.330        47
24.340        40
24.350        27
24.360        27
24.370        27
24.380        20
24.390        33
24.400        27
24.410        53
24.420        73
24.430        27
24.440        33
24.450         7
24.460        27
24.470        53
24.480        40
24.490        27
24.500        40
24.510        27
24.520        33
24.530        40
24.540        20
24.550        13
24.560        33
24.570        53
24.580        20
24.590        33
24.600        40
24.610        47
24.620        40
24.630        67
24.640        60
24.650        33
24.660        20
24.670        27
24.680        33
24.690        27
24.700        33
24.710        47
24.720        40
24.730        27
24.740        13
24.750        53
24.760        20
24.770        40
24.780        33
24.790        47
24.800        27
24.810        40
24.820        53
24.830        47
24.840        27
24.850        20
24.860        33
24.870        27
24.880        40
24.890        13
24.900        40
24.910        47
24.920        27
24.930        47
24.940        47
24.950        27
24.960        33
24.970        27
24.980        27
24.990        40
25.000        40
25.010        20
25.020        40
25.030        13
25.040        33
25.050        53
25.060        73
25.070        33
25.080        20
25.090        53
25.100        40
25.110        13
25.120        20
25.130        27
25.140        40
25.150        47
25.160        40
25.170        20
25.180        33
25.190        33
25.200        47
25.210        47
25.220        27
25.230        47
25.240        40
25.250        40
25.260        40
25.270        47
25.280        67
25.290        13
25.300        33
25.310        73
25.320        20
25.330         7
25.340        40
25.350        40
25.360        27
25.370        33
25.380        33
25.390        47
25.400        13
25.410        60
25.420        20
25.430        33
25.440        40
25.450        33
25.460        47
25.470        80
25.480        67
25.490        33
25.500        67
25.510        40
25.520        40
25.530        40
25.540        73
25.550        87
25.560        93
25.570        73
25.580        87
25.590       100
25.600        80
25.610        53
25.620        87
25.630        60
25.640        67
25.650        73
25.660        47
25.670        67
25.680        33
25.690        27
25.700        33
25.710        20
25.720        27
25.730         7
25.740        27
25.750        47
25.760        27
25.770        53
25.780        33
25.790        27
25.800        40
25.810        33
25.820        73
25.830        33
25.840        27
25.850        27
25.860        27
25.870        27
25.880        20
25.890        33
25.900        40
25.910        27
25.920        40
25.930        67
25.940        53
25.950        53
25.960        27
25.970         0
25.980        33
25.990        47
26.000        53
26.010        20
26.020        40
26.030        13
26.040        60
26.050        67
26.060         7
26.070        60
26.080        20
26.090        40
26.100        47
26.110        47
26.120        33
26.130        40
26.140        27
26.150        40
26.160        27
26.170        67
26.180        13
26.190        53
26.200        20
26.210        53
26.220        73
26.230        33
26.240        40
26.250        47
26.260        27
26.270        20
26.280        33
26.290        60
26.300        53
26.310        33
26.320        40
26.330        33
26.340        67
26.350        47
26.360        53
26.370        60
26.380        47
26.390        47
26.400        20
26.410        27
26.420        27
26.430        40
26.440        20
26.450        60
26.460        27
26.470        40
26.480        33
26.490        67
26.500        13
26.510        53
26.520        13
26.530        47
26.540        40
26.550        53
26.560        33
26.570        40
26.580        33
26.590        73
26.600        20
26.610        67
26.620        27
26.630        40
26.640        33
26.650        33
26.660        33
26.670        53
26.680        27
26.690        27
26.700        40
26.710        20
26.720        20
26.730        27
26.740        27
26.750        40
26.760        40
26.770        33
26.780        33
26.790         0
26.800        33
26.810        67
26.820        20
26.830        60
26.840        53
26.850        13
26.860        27
26.870        27
26.880        33
26.890        27
26.900        33
26.910        27
26.920        47
26.930        33
26.940        40
26.950        60
26.960        27
26.970        33
26.980        40
26.990         7
27.000        40
27.010        53
27.020        33
27.030        20
27.040        20
27.050         7
27.060        33
27.070        47
27.080        33
27.090        60
27.100        27
27.110        53
27.120        27
27.130        40
27.140        20
27.150        40
27.160        13
27.170        33
27.180        27
27.190         7
27.200        13
27.210        33
27.220        53
27.230        40
27.240        33
27.250        53
27.260        20
27.270        33
27.280        33
27.290        73
27.300        33
27.310        27
27.320        13
27.330        27
27.340        27
27.350        20
27.360        20
27.370        33
27.380        53
27.390        20
27.400        27
27.410         7
27.420        33
27.430        47
27.440         7
27.450        20
27.460        40
27.470        40
27.480        40
27.490        20
27.500        27
27.510        20
27.520        53
27.530        27
27.540        47
27.550        20
27.560        73
27.570        13
27.580        33
27.590        33
27.600        33
27.610         7
27.620        67
27.630        33
27.640        47
27.650        47
27.660        20
27.670        27
27.680        20
27.690        40
27.700        47
27.710        40
27.720        20
27.730        27
27.740        33
27.750        27
27.760        13
27.770        40
27.780        33
27.790        33
27.800        33
27.810        47
27.820        40
27.830        40
27.840        20
27.850        20
27.860        20
27.870        20
27.880         0
27.890        33
27.900        27
27.910        13
27.920        27
27.930        60
27.940        40
27.950        27
27.960         7
27.970        33
27.980        40
27.990        20
28.000        13
28.010        13
28.020        33
28.030        40
28.040        33
28.050        40
28.060        40
28.070        20
28.080        27
28.090        20
28.100        60
28.110        33
28.120        20
28.130        27
28.140        27
28.150        27
28.160        33
28.170        33
28.180        27
28.190        53
28.200        33
28.210        13
28.220        53
28.230        27
28.240        27
28.250        20
28.260         7
28.270        47
28.280        33
28.290        27
28.300        20
28.310        40
28.320        27
28.330        67
28.340        20
28.350        20
28.360        27
28.370        60
28.380        47
28.390        20
28.400        33
28.410        20
28.420        33
28.430        33
28.440        27
28.450         0
28.460        20
28.470        20
28.480        27
28.490        27
28.500        40
28.510        33
28.520        40
28.530        60
28.540        33
28.550        27
28.560        27
28.570        40
28.580        40
28.590        20
28.600        40
28.610        47
28.620        27
28.630        33
28.640        40
28.650        33
28.660        40
28.670        27
28.680        53
28.690        27
28.700        53
28.710        27
28.720        33
28.730        20
28.740        20
28.750        40
28.760        40
28.770        27
28.780        60
28.790        13
28.800        47
28.810        20
28.820        40
28.830        33
28.840        13
28.850        40
28.860        33
28.870        47
28.880        27
28.890        20
28.900        40
28.910        33
28.920        33
28.930        40
28.940        13
28.950        40
28.960        27
28.970        47
28.980        53
28.990        20
29.000        33
29.010        20
29.020        40
29.030        40
29.040        47
29.050        73
29.060        27
29.070        67
29.080        40
29.090        20
29.100        27
29.110        27
29.120        33
29.130        47
29.140        20
29.150        13
29.160         7
29.170        13
29.180        53
29.190        27
29.200        33
29.210        27
29.220        40
29.230        53
29.240        27
29.250        67
29.260        60
29.270        40
29.280        47
29.290        20
29.300        33
29.310        53
29.320        20
29.330        33
29.340        27
29.350        27
29.360        40
29.370        53
29.380        20
29.390        27
29.400        13
29.410        20
29.420        27
29.430        20
29.440        53
29.450         7
29.460        33
29.470        40
29.480        13
29.490        20
29.500        20
29.510        67
29.520        13
29.530        67
29.540        27
29.550        27
29.560        20
29.570        47
29.580        20
29.590        27
29.600        40
29.610        53
29.620         7
29.630        27
29.640        13
29.650        40
29.660        40
29.670        60
29.680        40
29.690        20
29.700        60
29.710        40
29.720        20
29.730         7
29.740        60
29.750        33
29.760        33
29.770        20
29.780        33
29.790        40
29.800        13
29.810        20
29.820        20
29.830        53
29.840        13
29.850        53
29.860        47
29.870        27
29.880        40
29.890        47
29.900        33
29.910        47
29.920        13
29.930        13
29.940        33
29.950        27
29.960        13
29.970        73
29.980        33
29.990        27
30.000        47
30.010        20
30.020        27
30.030        33
30.040        27
30.050        47
30.060        20
30.070        20
30.080        27
30.090        27
30.100        27
30.110        27
30.120        27
30.130        33
30.140        40
30.150        40
30.160        27
30.170        40
30.180        27
30.190        20
30.200        20
30.210        27
30.220        40
30.230        33
30.240        47
30.250        13
30.260        27
30.270        27
30.280        27
30.290        27
30.300        40
30.310        47
30.320        13
30.330        13
30.340        40
30.350        40
30.360        47
30.370        13
30.380        33
30.390        27
30.400        33
30.410        33
30.420        20
30.430        20
30.440        20
30.450        40
30.460        33
30.470        47
30.480        40
30.490        27
30.500        27
30.510        40
30.520        47
30.530        27
30.540        13
30.550        33
30.560        27
30.570        53
30.580        20
30.590        20
30.600        20
30.610        53
30.620        33
30.630        27
30.640        67
30.650        47
30.660        27
30.670        13
30.680        40
30.690        27
30.700        27
30.710        33
30.720        27
30.730        40
30.740        33
30.750         0
30.760        53
30.770        33
30.780        53
30.790        33
30.800        60
30.810        47
30.820        33
30.830        27
30.840        20
30.850        13
30.860        67
30.870        53
30.880        53
30.890        47
30.900        67
30.910        60
30.920        60
30.930        53
30.940        13
30.950        53
30.960        40
30.970        40
30.980        80
30.990        60
31.000        73
31.010        87
31.020        40
31.030        47
31.040        27
31.050        60
31.060       107
31.070        80
31.080        73
31.090        33
31.100        33
31.110        60
31.120        33
31.130        67
31.140        33
31.150        53
31.160       100
31.170        87
31.180        47
31.190        67
31.200        20
31.210        53
31.220        27
31.230        67
31.240        33
31.250        47
31.260        53
31.270        53
31.280        33
31.290        67
31.300        27
31.310        60
31.320        47
31.330        60
31.340        33
31.350        33
31.360        33
31.370        47
31.380        20
31.390        60
31.400        33
31.410        20
31.420        33
31.430        20
31.440        27
31.450        33
31.460        40
31.470        53
31.480        47
31.490        60
31.500        27
31.510        40
31.520         7
31.530        47
31.540        13
31.550        13
31.560        33
31.570        20
31.580         7
31.590        20
31.600        27
31.610        27
31.620        47
31.630        27
31.640        47
31.650        60
31.660        47
31.670        47
31.680        40
31.690         0
31.700        33
31.710         7
31.720        40
31.730        47
31.740        27
31.750        13
31.760        13
31.770        27
31.780        40
31.790        27
31.800        47
31.810        27
31.820        27
31.830        20
31.840        27
31.850        13
31.860        27
31.870        13
31.880        53
31.890        13
31.900        33
31.910        13
31.920        47
31.930        27
31.940        13
31.950        20
31.960        73
31.970        40
31.980        33
31.990        13
32.000         7
32.010        33
32.020        20
32.030        27
32.040        20
32.050        20
32.060         7
32.070        33
32.080        27
32.090        27
32.100        20
32.110        33
32.120        27
32.130        47
32.140         0
32.150        33
32.160        13
32.170        13
32.180        13
32.190        27
32.200        20
32.210        20
32.220        33
32.230        27
32.240        20
32.250        40
32.260        47
32.270        40
32.280        33
32.290         7
32.300        20
32.310        40
32.320        40
32.330        13
32.340        67
32.350        53
32.360        33
32.370        33
32.380        33
32.390        27
32.400        27
32.410        20
32.420        27
32.430        33
32.440        27
32.450        20
32.460        53
32.470        27
32.480         7
32.490        20
32.500        33
32.510        33
32.520         7
32.530        20
32.540        40
32.550         7
32.560        47
32.570        33
32.580        33
32.590        40
32.600        13
32.610        13
32.620        33
32.630        47
32.640         7
32.650         7
32.660        13
32.670        33
32.680        47
32.690        40
32.700        20
32.710        20
32.720        27
32.730        20
32.740         7
32.750        13
32.760        27
32.770        13
32.780        20
32.790        27
32.800        20
32.810        40
32.820        47
32.830        13
32.840        53
32.850        33
32.860        27
32.870        33
32.880        20
32.890        20
32.900        20
32.910        20
32.920        53
32.930        27
32.940        40
32.950        13
32.960        27
32.970        13
32.980        13
32.990        13
33.000        53
33.010        13
33.020        33
33.030        27
33.040        13
33.050        53
33.060        27
33.070        27
33.080        27
33.090        47
33.100        40
33.110        20
33.120         7
33.130         7
33.140        20
33.150        40
33.160        47
33.170        53
33.180        27
33.190        13
33.200        27
33.210        13
33.220        33
33.230        27
33.240        13
33.250        47
33.260        67
33.270        20
33.280        13
33.290        27
33.300        20
33.310         7
33.320        20
33.330        33
33.340        13
33.350        20
33.360         0
33.370        20
33.380        27
33.390        13
33.400        13
33.410        27
33.420        20
33.430        47
33.440        20
33.450        20
33.460        47
33.470        13
33.480        40
33.490        13
33.500         7
33.510        27
33.520        40
33.530        40
33.540        13
33.550        13
33.560        27
33.570        33
33.580        40
33.590        60
33.600        20
33.610        27
33.620        20
33.630        53
33.640        13
33.650        33
33.660        13
33.670        13
33.680        33
33.690        40
33.700        40
33.710        40
33.720        13
33.730         0
33.740        20
33.750        33
33.760        13
33.770        40
33.780        20
33.790        20
33.800        27
33.810        27
33.820        20
33.830        33
33.840        20
33.850        53
33.860         7
33.870        20
33.880        20
33.890        33
33.900        33
33.910         7
33.920        40
33.930        20
33.940         7
33.950        27
33.960        27
33.970        20
33.980        27
33.990        27
34.000        20
34.010         0
34.020        27
34.030        20
34.040        20
34.050        27
34.060        53
34.070        47
34.080        27
34.090        20
34.100        33
34.110        33
34.120         0
34.130        20
34.140        33
34.150         7
34.160        40
34.170        27
34.180        13
34.190        27
34.200        20
34.210         0
34.220        53
34.230        20
34.240        33
34.250         0
34.260        20
34.270        13
34.280        13
34.290         7
34.300        33
34.310        13
34.320        20
34.330        40
34.340         7
34.350        27
34.360        20
34.370        27
34.380        20
34.390        13
34.400        40
34.410        20
34.420        27
34.430        27
34.440        40
34.450        33
34.460        20
34.470        20
34.480        20
34.490        40
34.500        27
34.510        20
34.520        20
34.530        20
34.540        20
34.550         7
34.560        67
34.570        47
34.580        33
34.590        27
34.600        40
34.610        27
34.620        20
34.630        20
34.640        20
34.650        40
34.660        20
34.670        20
34.680        33
34.690        47
34.700        27
34.710        20
34.720        40
34.730        27
34.740        40
34.750        13
34.760        40
34.770        13
34.780        33
34.790        40
34.800        47
34.810        33
34.820        20
34.830        33
34.840        20
34.850        20
34.860        40
34.870        13
34.880        33
34.890        27
34.900        27
34.910        27
34.920        47
34.930        40
34.940        67
34.950        40
34.960        40
34.970        60
34.980        47
34.990       100
35.000        73
35.010       107
35.020       147
35.030       100
35.040       140
35.050       113
35.060        60
35.070        87
35.080        87
35.090       153
35.100       100
35.110       120
35.120       127
35.130       193
35.140       260
35.150       200
35.160       233
35.170       287
35.180       207
35.190       113
35.200       133
35.210       127
35.220        93
35.230       120
35.240       200
35.250       113
35.260       120
35.270        93
35.280       160
35.290        73
35.300        47
35.310        53
35.320        27
35.330        20
35.340        53
35.350        13
35.360        20
35.370         7
35.380        40
35.390        13
35.400        13
35.410        53
35.420        53
35.430        27
35.440         7
35.450         7
35.460        13
35.470        53
35.480        20
35.490        27
35.500        27
35.510        13
35.520        27
35.530         7
35.540        33
35.550        13
35.560        47
35.570        13
35.580         7
35.590        13
35.600        53
35.610        13
35.620        33
35.630        20
35.640        33
35.650         7
35.660         7
35.670        20
35.680        40
35.690        33
35.700        20
35.710        20
35.720        40
35.730        20
35.740        13
35.750        20
35.760        27
35.770        27
35.780        53
35.790        33
35.800        20
35.810        27
35.820        53
35.830        27
35.840        20
35.850        33
35.860        73
35.870        20
35.880        13
35.890        27
35.900        13
35.910        20
35.920        13
35.930        40
35.940        13
35.950        20
35.960        13
35.970        53
35.980        27
35.990        20
36.000        27
36.010         0
36.020         7
36.030        33
36.040        13
36.050         7
36.060        47
36.070        47
36.080        53
36.090        20
36.100        27
36.110        13
36.120        27
36.130        33
36.140        27
36.150        27
36.160         0
36.170        27
36.180        27
36.190        47
36.200        27
36.210        47
36.220        33
36.230         7
36.240        33
36.250        20
36.260        27
36.270        20
36.280        53
36.290         7
36.300        13
36.310        20
36.320        13
36.330         7
36.340        27
36.350        27
36.360        47
36.370        40
36.380        47
36.390        27
36.400         7
36.410        27
36.420        20
36.430         7
36.440        20
36.450        33
36.460        20
36.470         0
36.480        40
36.490        27
36.500        27
36.510        20
36.520        47
36.530         0
36.540        33
36.550        40
36.560        53
36.570        40
36.580        33
36.590        27
36.600        33
36.610         7
36.620        13
36.630        20
36.640        40
36.650        13
36.660        33
36.670        47
36.680        40
36.690        33
36.700         7
36.710        20
36.720        33
36.730        20
36.740        27
36.750        33
36.760        47
36.770        27
36.780        20
36.790        13
36.800        20
36.810        53
36.820        27
36.830        53
36.840        33
36.850        27
36.860        27
36.870        47
36.880        20
36.890        13
36.900        27
36.910        20
36.920        27
36.930        27
36.940        33
36.950        27
36.960        47
36.970        33
36.980        27
36.990        47
37.000        13
37.010        27
37.020        40
37.030        40
37.040        27
37.050        47
37.060        47
37.070        33
37.080        20
37.090        27
37.100         7
37.110        27
37.120        27
37.130        47
37.140        27
37.150        20
37.160        20
37.170        33
37.180        67
37.190         7
37.200        40
37.210        13
37.220        33
37.230        13
37.240         0
37.250        27
37.260        13
37.270        60
37.280        27
37.290        20
37.300        33
37.310        13
37.320        27
37.330         7
37.340        13
37.350        20
37.360        40
37.370        20
37.380        40
37.390        33
37.400        33
37.410        13
37.420        20
37.430        27
37.440        33
37.450        27
37.460        13
37.470        33
37.480        33
37.490         7
37.500        40
37.510        33
37.520        40
37.530        27
37.540        13
37.550        33
37.560        53
37.570        47
37.580        47
37.590        20
37.600        47
37.610        33
37.620        33
37.630        40
37.640        13
37.650        47
37.660        33
37.670        40
37.680        80
37.690        80
37.700        60
37.710        67
37.720        53
37.730        80
37.740       140
37.750        53
37.760        60
37.770        60
37.780        80
37.790       100
37.800       107
37.810        80
37.820        93
37.830       100
37.840        73
37.850        73
37.860       120
37.870        60
37.880        73
37.890        80
37.900       100
37.910        60
37.920        73
37.930        80
37.940        67
37.950        60
37.960        53
37.970        33
37.980        27
37.990        13
38.000        33
38.010        47
38.020        80
38.030        73
38.040        33
38.050        67
38.060        33
38.070        40
38.080        20
38.090        13
38.100        47
38.110        47
38.120        80
38.130        67
38.140        40
38.150        73
38.160        47
38.170        53
38.180        47
38.190        40
38.200        93
38.210        73
38.220        87
38.230        87
38.240        60
38.250       120
38.260       107
38.270        93
38.280        93
38.290        87
38.300       133
38.310       193
38.320        73
38.330       133
38.340       140
38.350       133
38.360       180
38.370       153
38.380       167
38.390       173
38.400       193
38.410       140
38.420       213
38.430       260
38.440       147
38.450       247
38.460       233
38.470       160
38.480       147
38.490       173
38.500       180
38.510       193
38.520       180
38.530       160
38.540       213
38.550       140
38.560       120
38.570       173
38.580       107
38.590       147
38.600        87
38.610       167
38.620        93
38.630       127
38.640        73
38.650       100
38.660        73
38.670        60
38.680        53
38.690        73
38.700        67
38.710        67
38.720        53
38.730        67
38.740        67
38.750        40
38.760        27
38.770        33
38.780        20
38.790        40
38.800        53
38.810        33
38.820        47
38.830        40
38.840        13
38.850        47
38.860        20
38.870        47
38.880        53
38.890        60
38.900        73
38.910        40
38.920        33
38.930        20
38.940        20
38.950        73
38.960        20
38.970        27
38.980        27
38.990        60
39.000        33
39.010        67
39.020        20
39.030        33
39.040         7
39.050        27
39.060        27
39.070        40
39.080        20
39.090        47
39.100        20
39.110        20
39.120        33
39.130        27
39.140        73
39.150        20
39.160        33
39.170        40
39.180        33
39.190        13
39.200        53
39.210        40
39.220        27
39.230        20
39.240        33
39.250        40
39.260        27
39.270        27
39.280        20
39.290        20
39.300        20
39.310        27
39.320        27
39.330        47
39.340        53
39.350        13
39.360        53
39.370        33
39.380        27
39.390        33
39.400        20
39.410        33
39.420        20
39.430         7
39.440        33
39.450         7
39.460        40
39.470        40
39.480         7
39.490        20
39.500        47
39.510        13
39.520        33
39.530        27
39.540        60
39.550        13
39.560        20
39.570        27
39.580        27
39.590        20
39.600        27
39.610         7
39.620        27
39.630        40
39.640        27
39.650        60
39.660        13
39.670        33
39.680        27
39.690        33
39.700        33
39.710        33
39.720        40
39.730        27
39.740        33
39.750        27
39.760        27
39.770        33
39.780        33
39.790        13
39.800        33
39.810        27
39.820        33
39.830        40
39.840        13
39.850        27
39.860        47
39.870        53
39.880        27
39.890         7
39.900        13
39.910        33
39.920        40
39.930        60
39.940        20
39.950        27
39.960        20
39.970        40
39.980        13
39.990        33
40.000        27
40.010         7
40.020        33
40.030        13
40.040        33
40.050        13
40.060        13
40.070        27
40.080        33
40.090        27
40.100         7
40.110        27
40.120        13
40.130        13
40.140        27
40.150         7
40.160        20
40.170        13
40.180        40
40.190        40
40.200        40
40.210        13
40.220         0
40.230        20
40.240        27
40.250        13
40.260        47
40.270        20
40.280         7
40.290        13
40.300        40
40.310        27
40.320        33
40.330         7
40.340        33
40.350        20
40.360        33
40.370        33
40.380        33
40.390        33
40.400        47
40.410        20
40.420        40
40.430         7
40.440        27
40.450        20
40.460         7
40.470        47
40.480        20
40.490        20
40.500        20
40.510        13
40.520        33
40.530        40
40.540         7
40.550        13
40.560        33
40.570        27
40.580        33
40.590        33
40.600        20
40.610        33
40.620        47
40.630        27
40.640        13
40.650        27
40.660        27
40.670        20
40.680        60
40.690        33
40.700        13
40.710        27
40.720        33
40.730         7
40.740        33
40.750        13
40.760        13
40.770        27
40.780        20
40.790        13
40.800        20
40.810        27
40.820        67
40.830        20
40.840         7
40.850        27
40.860         0
40.870         0
40.880         7
40.890        33
40.900        40
40.910        13
40.920        27
40.930        20
40.940        13
40.950        47
40.960        33
40.970        33
40.980         7
40.990        47
41.000        20
41.010        40
41.020        47
41.030         0
41.040        47
41.050        27
41.060        40
41.070        13
41.080        27
41.090        13
41.100        13
41.110        40
41.120        27
41.130        13
41.140        13
41.150        13
41.160        33
41.170        27
41.180        33
41.190        20
41.200        47
41.210         7
41.220         7
41.230        33
41.240        27
41.250        33
41.260         7
41.270        40
41.280        40
41.290        13
41.300        20
41.310         7
41.320         7
41.330        53
41.340        13
41.350        13
41.360        20
41.370         0
41.380        13
41.390        33
41.400        13
41.410         7
41.420        20
41.430        33
41.440        20
41.450        47
41.460        20
41.470        47
41.480        40
41.490        20
41.500        60
41.510        27
41.520        27
41.530        27
41.540        20
41.550        47
41.560        47
41.570        47
41.580        60
41.590        47
41.600        73
41.610        60
41.620        27
41.630        67
41.640        67
41.650        73
41.660        60
41.670        53
41.680       100
41.690        80
41.700        53
41.710        73
41.720        40
41.730        53
41.740        53
41.750        67
41.760        47
41.770        53
41.780        33
41.790        53
41.800        87
41.810       107
41.820        20
41.830         7
41.840        33
41.850        27
41.860         0
41.870        33
41.880        33
41.890        40
41.900        20
41.910        40
41.920        33
41.930        27
41.940        40
41.950        40
41.960        40
41.970        27
41.980        40
41.990        27
42.000        13
42.010        27
42.020        20
42.030        53
42.040        27
42.050        13
42.060        53
42.070         7
42.080        33
42.090        27
42.100        33
42.110        20
42.120        27
42.130        33
42.140        13
42.150        40
42.160        33
42.170        33
42.180        20
42.190        13
42.200        13
42.210        20
42.220        13
42.230        27
42.240        40
42.250        20
42.260        13
42.270        20
42.280        60
42.290        40
42.300        47
42.310        33
42.320        20
42.330        20
42.340        33
42.350        13
42.360        27
42.370        47
42.380        20
42.390        47
42.400        47
42.410        33
42.420        13
42.430        47
42.440         7
42.450        20
42.460        27
42.470        67
42.480         0
42.490        27
42.500        47
42.510        33
42.520        20
42.530        13
42.540        33
42.550        33
42.560        20
42.570        27
42.580        53
42.590        27
42.600        53
42.610        40
42.620        13
42.630        53
42.640        27
42.650        13
42.660        33
42.670        60
42.680        20
42.690        27
42.700        47
42.710        47
42.720        33
42.730        40
42.740        73
42.750        53
42.760        13
42.770        20
42.780        33
42.790        13
42.800        33
42.810        33
42.820        33
42.830        60
42.840        20
42.850        60
42.860        40
42.870        47
42.880        60
42.890        73
42.900        53
42.910        40
42.920        40
42.930        27
42.940        40
42.950        67
42.960        33
42.970        33
42.980        53
42.990        33
43.000        20
43.010        60
43.020        73
43.030        20
43.040        27
43.050        47
43.060        67
43.070        47
43.080        67
43.090        47
43.100        13
43.110        73
43.120        53
43.130        33
43.140        60
43.150        73
43.160        33
43.170        33
43.180        73
43.190        80
43.200        27
43.210        67
43.220        40
43.230        80
43.240        73
43.250        33
43.260        60
43.270        87
43.280        93
43.290        93
43.300       153
43.310       133
43.320       153
43.330       180
43.340       220
43.350       240
43.360       227
43.370       253
43.380       187
43.390       247
43.400       247
43.410       273
43.420       240
43.430       193
43.440       140
43.450       240
43.460       140
43.470       193
43.480       173
43.490       207
43.500       213
43.510       127
43.520       120
43.530       193
43.540       107
43.550       120
43.560       107
43.570        67
43.580       107
43.590       100
43.600        67
43.610        67
43.620        93
43.630        80
43.640       120
43.650       107
43.660        93
43.670       107
43.680        67
43.690       133
43.700       167
43.710       107
43.720       140
43.730       107
43.740       107
43.750       193
43.760       160
43.770       120
43.780        53
43.790       113
43.800       200
43.810       160
43.820       153
43.830       153
43.840       107
43.850       220
43.860       147
43.870       147
43.880       193
43.890       167
43.900       213
43.910       207
43.920       193
43.930       200
43.940       240
43.950       193
43.960       193
43.970       187
43.980       307
43.990       213
44.000       307
44.010       227
44.020       220
44.030       307
44.040       300
44.050       373
44.060       320
44.070       340
44.080       240
44.090       227
44.100       400
44.110       373
44.120       367
44.130       307
44.140       420
44.150       373
44.160       287
44.170       367
44.180       433
44.190       387
44.200       500
44.210       400
44.220       393
44.230       433
44.240       420
44.250       393
44.260       446
44.270       586
44.280       387
44.290       453
44.300       440
44.310       413
44.320       373
44.330       373
44.340       520
44.350       400
44.360       373
44.370       420
44.380       400
44.390       407
44.400       327
44.410       367
44.420       400
44.430       413
44.440       307
44.450       313
44.460       293
44.470       340
44.480       227
44.490       253
44.500       260
44.510       213
44.520       300
44.530       187
44.540       187
44.550       200
44.560       167
44.570       213
44.580       240
44.590       180
44.600       247
44.610       187
44.620       133
44.630       133
44.640       193
44.650       127
44.660       213
44.670       153
44.680       107
44.690       107
44.700       133
44.710       113
44.720        87
44.730       100
44.740        87
44.750       120
44.760       127
44.770       140
44.780       107
44.790        93
44.800        53
44.810        80
44.820       133
44.830        60
44.840       140
44.850        27
44.860        73
44.870       127
44.880        73
44.890        67
44.900        67
44.910        47
44.920        53
44.930        73
44.940        67
44.950        73
44.960        60
44.970        60
44.980        73
44.990        47
45.000        73
45.010        40
45.020        27
45.030        60
45.040        67
45.050        53
45.060        67
45.070        60
45.080        60
45.090        73
45.100        73
45.110        60
45.120        87
45.130        40
45.140        40
45.150        73
45.160        67
45.170        67
45.180        80
45.190        33
45.200        20
45.210        67
45.220        27
45.230        40
45.240        53
45.250        87
45.260        73
45.270        33
45.280        33
45.290        47
45.300        40
45.310        67
45.320        80
45.330        87
45.340        20
45.350        27
45.360        40
45.370        47
45.380        20
45.390        40
45.400        53
45.410        13
45.420        40
45.430        40
45.440        40
45.450        47
45.460        87
45.470        40
45.480        80
45.490        60
45.500        53
45.510        47
45.520        40
45.530        53
45.540        67
45.550        27
45.560        27
45.570        87
45.580        47
45.590        40
45.600        33
45.610        27
45.620        13
45.630        47
45.640        13
45.650        33
45.660        47
45.670        47
45.680        53
45.690        60
45.700        60
45.710        47
45.720        53
45.730        47
45.740        27
45.750        80
45.760        67
45.770        13
45.780        27
45.790        47
45.800        73
45.810        27
45.820        33
45.830        27
45.840        80
45.850        47
45.860        53
45.870        53
45.880        20
45.890        27
45.900        47
45.910        33
45.920        40
45.930        53
45.940        13
45.950        53
45.960        73
45.970        47
45.980        47
45.990        47
46.000        20
46.010        47
46.020        13
46.030        53
46.040        60
46.050        27
46.060        80
46.070        20
46.080        13
46.090        53
46.100        73
46.110        33
46.120        27
46.130        13
46.140        53
46.150        67
46.160        53
46.170        20
46.180        47
46.190        40
46.200        53
46.210        27
46.220        40
46.230        40
46.240        13
46.250        20
46.260        47
46.270        33
46.280        47
46.290        27
46.300        27
46.310        47
46.320        27
46.330        33
46.340        53
46.350        27
46.360        60
46.370        13
46.380        20
46.390        27
46.400         7
46.410        40
46.420        33
46.430        27
46.440        33
46.450        20
46.460        53
46.470        20
46.480        13
46.490        60
46.500        27
46.510        60
46.520        53
46.530        40
46.540        27
46.550        33
46.560        53
46.570        27
46.580        33
46.590        20
46.600        40
46.610        47
46.620        47
46.630        20
46.640        40
46.650        40
46.660        20
46.670        33
46.680        20
46.690        13
46.700        40
46.710        60
46.720        13
46.730        27
46.740        40
46.750        40
46.760        67
46.770        40
46.780        27
46.790        33
46.800        27
46.810        27
46.820        20
46.830        27
46.840         7
46.850        33
46.860        33
46.870        27
46.880        27
46.890        33
46.900        20
46.910        13
46.920        33
46.930        27
46.940        13
46.950        27
46.960        47
46.970        13
46.980        60
46.990        27
47.000        47
47.010        20
47.020         7
47.030        40
47.040        40
47.050        13
47.060        47
47.070        27
47.080        33
47.090        20
47.100       100
47.110        27
47.120        40
47.130        27
47.140        33
47.150        27
47.160        33
47.170        13
47.180         7
47.190        20
47.200        33
47.210        33
47.220        67
47.230        33
47.240        40
47.250        20
47.260        20
47.270         7
47.280        40
47.290        40
47.300        20
47.310        20
47.320         0
47.330        27
47.340        27
47.350         7
47.360        33
47.370        33
47.380        27
47.390         7
47.400         7
47.410        27
47.420        27
47.430        53
47.440        20
47.450        13
47.460        27
47.470         7
47.480        27
47.490        13
47.500         7
47.510        27
47.520        13
47.530        20
47.540        27
47.550        47
47.560        20
47.570        33
47.580        20
47.590        27
47.600        53
47.610        13
47.620        27
47.630        33
47.640        33
47.650        13
47.660        60
47.670        20
47.680         7
47.690        27
47.700        20
47.710        33
47.720        27
47.730        33
47.740         7
47.750        13
47.760        13
47.770        13
47.780        33
47.790        20
47.800        20
47.810        27
47.820        27
47.830         7
47.840        40
47.850        47
47.860        13
47.870        13
47.880        13
47.890        13
47.900         7
47.910         0
47.920        13
47.930        47
47.940        13
47.950         7
47.960        20
47.970         7
47.980        33
47.990         7
48.000        47
48.010        27
48.020         7
48.030        33
48.040        20
48.050        47
48.060        13
48.070        27
48.080        13
48.090         0
48.100        13
48.110        27
48.120        13
48.130        20
48.140         7
48.150        27
48.160        27
48.170        20
48.180        27
48.190        33
48.200        13
48.210        20
48.220        20
48.230        27
48.240        27
48.250        27
48.260        40
48.270        13
48.280        27
48.290         7
48.300        20
48.310        33
48.320        27
48.330        20
48.340        27
48.350         7
48.360        40
48.370        20
48.380        47
48.390        40
48.400        33
48.410        13
48.420        20
48.430        27
48.440        27
48.450         7
48.460        13
48.470        13
48.480        13
48.490        40
48.500         7
48.510        27
48.520        13
48.530        20
48.540        27
48.550        27
48.560        13
48.570        27
48.580        33
48.590        13
48.600         7
48.610        20
48.620        27
48.630        13
48.640        13
48.650        27
48.660        33
48.670        13
48.680        33
48.690        27
48.700        20
48.710        27
48.720        33
48.730        33
48.740        27
48.750        13
48.760        33
48.770        33
48.780        40
48.790        27
48.800        27
48.810        40
48.820         7
48.830         0
48.840        20
48.850        27
48.860        33
48.870         0
48.880        20
48.890        13
48.900        27
48.910        40
48.920        27
48.930        20
48.940        40
48.950        13
48.960        33
48.970        20
48.980        20
48.990        20
49.000        27
49.010        27
49.020        27
49.030        13
49.040        27
49.050         7
49.060        53
49.070        13
49.080        27
49.090        20
49.100        13
49.110        27
49.120        20
49.130        13
49.140        20
49.150        13
49.160         7
49.170        13
49.180        33
49.190        33
49.200        20
49.210        33
49.220         7
49.230        13
49.240        27
49.250        20
49.260        20
49.270        27
49.280        27
49.290        20
49.300        20
49.310        27
49.320        20
49.330        13
49.340        33
49.350         7
49.360         7
49.370        27
49.380         7
49.390        33
49.400        33
49.410        40
49.420        13
49.430        13
49.440        33
49.450        27
49.460        13
49.470        20
49.480        13
49.490        53
49.500        40
49.510        13
49.520        20
49.530        20
49.540        47
49.550        33
49.560        53
49.570         7
49.580         0
49.590        20
49.600         0
49.610         0
49.620        27
49.630        33
49.640         7
49.650         7
49.660        20
49.670        27
49.680        27
49.690        27
49.700         7
49.710        27
49.720        33
49.730        27
49.740        27
49.750        33
49.760         7
49.770        20
49.780        13
49.790        40
49.800        27
49.810        53
49.820         7
49.830        27
49.840        13
49.850        20
49.860        27
49.870        13
49.880        13
49.890        13
49.900        33
49.910        13
49.920        20
49.930        27
49.940        40
49.950        40
49.960        33
49.970        33
49.980        27
49.990        13
50.000        20
50.010        27
50.020        20
50.030        47
50.040        27
50.050        13
50.060        20
50.070        13
50.080        13
50.090         0
50.100        27
50.110        53
50.120         7
50.130        27
50.140        40
50.150        20
50.160        33
50.170        33
50.180        20
50.190        27
50.200        20
50.210         7
50.220        40
50.230        47
50.240         0
50.250        20
50.260        20
50.270        20
50.280        13
50.290         0
50.300        13
50.310        20
50.320        20
50.330        33
50.340        20
50.350        33
50.360         7
50.370        40
50.380        20
50.390        20
50.400        40
50.410        20
50.420        27
50.430         7
50.440        53
50.450        27
50.460        20
50.470         7
50.480        20
50.490        33
50.500        20
50.510        67
50.520        13
50.530        27
50.540        33
50.550         0
50.560        13
50.570         7
50.580        27
50.590         7
50.600        20
50.610        33
50.620         7
50.630        13
50.640        20
50.650        40
50.660        13
50.670         7
50.680        40
50.690        27
50.700        20
50.710         7
50.720         0
50.730        20
50.740        27
50.750        27
50.760        20
50.770        20
50.780         0
50.790         0
50.800        20
50.810        20
50.820        13
50.830        20
50.840        20
50.850        20
50.860        27
50.870        13
50.880        20
50.890        20
50.900        27
50.910        13
50.920        20
50.930        20
50.940         0
50.950        20
50.960        27
50.970        20
50.980         0
50.990        27
51.000        13
51.010        27
51.020        20
51.030        13
51.040        13
51.050        20
51.060        27
51.070         7
51.080         0
51.090        13
51.100         0
51.110        27
51.120        13
51.130        27
51.140        13
51.150        27
51.160        20
51.170        13
51.180        40
51.190        13
51.200        13
51.210        27
51.220        20
51.230        20
51.240         7
51.250        27
51.260        33
51.270         0
51.280        20
51.290        27
51.300        20
51.310        33
51.320        20
51.330        20
51.340        27
51.350        27
51.360         0
51.370        27
51.380        33
51.390        27
51.400        13
51.410        27
51.420        27
51.430         7
51.440        20
51.450        13
51.460        20
51.470        27
51.480        33
51.490        20
51.500         7
51.510         0
51.520        27
51.530        33
51.540        20
51.550         7
51.560        20
51.570        27
51.580        13
51.590         7
51.600        13
51.610         0
51.620        27
51.630        33
51.640        40
51.650         7
51.660        33
51.670         7
51.680        27
51.690        20
51.700         7
51.710        33
51.720        33
51.730        20
51.740        13
51.750         7
51.760        13
51.770        13
51.780        33
51.790        20
51.800        20
51.810         0
51.820        27
51.830         0
51.840        20
51.850         7
51.860        13
51.870        33
51.880        27
51.890        20
51.900        13
51.910        13
51.920         7
51.930         7
51.940        13
51.950         7
51.960        27
51.970        27
51.980         7
51.990        13
52.000         0
52.010        13
52.020        20
52.030        27
52.040         7
52.050        53
52.060         0
52.070        13
52.080        20
52.090         7
52.100        40
52.110        20
52.120        20
52.130         0
52.140        20
52.150         7
52.160        27
52.170        40
52.180        20
52.190        33
52.200         7
52.210        13
52.220        13
52.230        40
52.240        20
52.250         7
52.260        20
52.270        27
52.280        20
52.290         7
52.300         7
52.310        13
52.320        27
52.330        20
52.340        13
52.350        20
52.360        27
52.370        13
52.380        33
52.390        33
52.400        40
52.410        40
52.420        47
52.430        40
52.440        13
52.450        33
52.460        67
52.470        93
52.480        73
52.490        73
52.500       173
52.510       133
52.520       113
52.530       107
52.540       133
52.550       140
52.560       127
52.570       133
52.580       180
52.590       140
52.600       187
52.610       133
52.620       107
52.630       127
52.640        40
52.650        80
52.660        67
52.670        60
52.680        53
52.690        53
52.700        60
52.710        73
52.720       107
52.730        93
52.740        87
52.750        67
52.760        27
52.770        47
52.780        27
52.790         7
52.800        20
52.810        13
52.820         7
52.830        27
52.840        33
52.850        40
52.860        13
52.870        27
52.880        27
52.890        13
52.900        40
52.910        33
52.920        20
52.930         7
52.940        40
52.950        47
52.960         7
52.970        13
52.980        27
52.990        13
53.000        20
53.010        13
53.020        13
53.030         7
53.040         7
53.050        40
53.060        13
53.070        13
53.080         0
53.090         7
53.100        13
53.110        20
53.120        20
53.130        40
53.140         0
53.150        13
53.160        20
53.170        13
53.180        13
53.190        20
53.200         7
53.210        13
53.220         7
53.230        20
53.240        13
53.250        20
53.260         7
53.270        27
53.280         7
53.290        40
53.300        20
53.310        27
53.320        33
53.330        20
53.340        13
53.350        27
53.360        20
53.370        33
53.380        13
53.390        20
53.400        33
53.410         7
53.420        20
53.430        20
53.440         7
53.450         7
53.460        13
53.470        27
53.480         7
53.490        33
53.500        20
53.510        13
53.520         7
53.530        27
53.540         7
53.550        13
53.560        13
53.570        20
53.580         0
53.590         7
53.600         0
53.610        27
53.620        27
53.630         7
53.640         0
53.650        27
53.660        13
53.670        40
53.680        13
53.690        13
53.700        27
53.710        13
53.720        20
53.730         7
53.740         7
53.750        13
53.760        13
53.770        13
53.780        13
53.790        33
53.800        27
53.810         0
53.820        20
53.830         7
53.840         7
53.850         7
53.860        33
53.870        20
53.880        27
53.890         7
53.900         0
53.910        13
53.920        20
53.930         0
53.940        20
53.950         0
53.960         7
53.970        27
53.980        20
53.990        33
54.000        20
54.010        20
54.020        27
54.030        13
54.040        20
54.050         7
54.060         0
54.070        20
54.080        47
54.090         7
54.100         7
54.110        13
54.120        20
54.130         7
54.140        33
54.150        27
54.160         0
54.170        13
54.180        33
54.190         7
54.200        33
54.210        13
54.220         7
54.230         7
54.240         7
54.250        13
54.260        33
54.270        33
54.280        27
54.290        20
54.300        13
54.310        13
54.320        20
54.330         7
54.340         0
54.350         0
54.360        27
54.370        27
54.380        13
54.390        20
54.400        20
54.410         0
54.420        27
54.430        20
54.440        27
54.450        20
54.460         0
54.470        27
54.480        13
54.490        27
54.500        20
54.510        27
54.520         0
54.530        13
54.540         7
54.550        27
54.560        13
54.570        27
54.580        13
54.590        13
54.600        13
54.610        13
54.620         7
54.630         7
54.640        27
54.650         7
54.660        40
54.670         7
54.680        27
54.690        27
54.700        47
54.710        13
54.720        20
54.730        40
54.740        27
54.750        27
54.760        40
54.770         0
54.780         7
54.790        13
54.800        27
54.810         7
54.820         7
54.830         7
54.840        20
54.850        40
54.860        33
54.870        27
54.880        13
54.890        33
54.900        47
54.910        20
54.920        20
54.930        20
54.940        27
54.950        13
54.960        33
54.970        20
54.980        27
54.990        27
55.000        20
55.010        40
55.020        33
55.030        40
55.040        33
55.050        13
55.060        27
55.070        60
55.080        40
55.090        33
55.100        20
55.110        27
55.120        40
55.130         7
55.140        20
55.150        60
55.160        13
55.170        40
55.180        53
55.190        47
55.200        27
55.210        27
55.220        40
55.230        53
55.240        20
55.250        40
55.260        47
55.270        33
55.280        13
55.290        40
55.300        47
55.310        53
55.320        40
55.330        27
55.340        40
55.350        53
55.360        53
55.370        80
55.380        13
55.390        33
55.400        53
55.410        33
55.420        27
55.430        53
55.440        40
55.450        47
55.460        60
55.470        33
55.480        33
55.490        40
55.500        60
55.510        33
55.520        53
55.530        53
55.540        40
55.550        47
55.560        60
55.570        33
55.580        33
55.590        33
55.600        33
55.610        53
55.620         7
55.630        20
55.640        53
55.650         7
55.660        33
55.670        33
55.680        13
55.690        40
55.700        13
55.710        33
55.720         7
55.730        53
55.740        27
55.750        20
55.760        20
55.770        27
55.780        13
55.790        53
55.800        20
55.810        33
55.820        13
55.830        33
55.840        20
55.850        33
55.860        33
55.870        20
55.880        13
55.890        13
55.900        40
55.910        27
55.920        13
55.930        33
55.940        13
55.950        20
55.960        20
55.970         7
55.980        20
55.990         0
56.000        40
56.010        27
56.020        20
56.030        20
56.040        13
56.050        20
56.060        20
56.070        13
56.080         0
56.090        20
56.100        20
56.110         7
56.120        20
56.130        13
56.140        40
56.150        20
56.160        13
56.170        33
56.180        20
56.190         7
56.200         7
56.210        13
56.220         7
56.230        13
56.240        20
56.250         7
56.260        33
56.270        13
56.280        33
56.290        33
56.300         0
56.310        13
56.320        33
56.330        13
56.340         7
56.350        27
56.360        53
56.370         7
56.380         7
56.390        13
56.400        27
56.410        13
56.420        27
56.430        20
56.440        20
56.450        13
56.460        20
56.470        13
56.480        27
56.490        13
56.500         7
56.510        20
56.520        13
56.530        13
56.540        47
56.550        13
56.560        13
56.570        13
56.580        13
56.590         7
56.600        40
56.610        13
56.620        13
56.630        20
56.640        20
56.650        20
56.660        27
56.670         7
56.680         7
56.690        13
56.700         7
56.710        27
56.720        20
56.730        20
56.740         7
56.750         7
56.760        20
56.770        13
56.780        33
56.790         7
56.800         7
56.810        13
56.820         7
56.830        27
56.840         7
56.850        13
56.860        13
56.870        13
56.880        20
56.890         7
56.900         7
56.910        20
56.920        13
56.930        13
56.940        40
56.950         7
56.960        53
56.970        13
56.980        33
56.990         7
57.000         7
57.010        33
57.020        20
57.030        40
57.040        27
57.050         7
57.060         7
57.070        27
57.080         7
57.090        40
57.100        27
57.110        13
57.120         7
57.130        13
57.140        33
57.150        20
57.160        13
57.170        27
57.180         0
57.190         7
57.200         7
57.210        40
57.220        27
57.230        20
57.240        13
57.250         7
57.260        27
57.270        20
57.280        13
57.290        40
57.300        20
57.310        27
57.320        20
57.330        20
57.340        53
57.350        20
57.360        53
57.370        33
57.380        40
57.390        47
57.400        27
57.410        40
57.420        47
57.430        13
57.440        53
57.450        93
57.460        73
57.470        93
57.480       113
57.490       227
57.500       207
57.510       180
57.520       193
57.530       227
57.540       173
57.550       187
57.560       120
57.570       127
57.580       153
57.590       113
57.600        67
57.610        47
57.620        93
57.630        93
57.640       107
57.650       107
57.660       147
57.670       147
57.680       107
57.690        93
57.700        80
57.710        80
57.720        87
57.730        67
57.740        47
57.750        60
57.760        60
57.770        40
57.780        60
57.790        67
57.800        20
57.810        53
57.820        33
57.830        33
57.840        13
57.850        20
57.860        20
57.870        27
57.880         7
57.890        20
57.900        20
57.910        13
57.920         7
57.930        27
57.940        20
57.950        13
57.960        27
57.970        20
57.980        27
57.990         0
58.000        20
58.010        20
58.020        33
58.030        20
58.040        40
58.050         0
58.060        20
58.070         7
58.080        13
58.090        20
58.100         7
58.110        13
58.120        13
58.130        27
58.140         7
58.150         7
58.160        13
58.170         7
58.180        13
58.190        13
58.200        13
58.210        13
58.220         7
58.230        13
58.240        27
58.250        13
58.260        13
58.270        13
58.280        13
58.290        13
58.300        20
58.310        13
58.320         0
58.330        27
58.340         7
58.350        20
58.360         7
58.370        27
58.380        13
58.390        13
58.400         7
58.410         7
58.420        13
58.430        13
58.440        13
58.450         0
58.460         0
58.470         7
58.480        13
58.490        20
58.500        47
58.510        13
58.520        13
58.530        13
58.540         7
58.550        13
58.560         0
58.570         7
58.580        33
58.590        20
58.600         7
58.610         0
58.620         7
58.630        13
58.640        27
58.650         7
58.660        20
58.670        20
58.680        13
58.690         7
58.700         7
58.710         7
58.720         0
58.730         7
58.740        13
58.750        13
58.760         0
58.770         7
58.780        27
58.790        33
58.800        13
58.810        13
58.820         7
58.830        13
58.840        20
58.850         7
58.860        20
58.870        20
58.880        13
58.890        13
58.900        13
58.910        20
58.920         7
58.930        33
58.940        13
58.950         7
58.960        20
58.970        20
58.980        20
58.990         7
59.000        13
59.010        13
59.020         7
59.030        13
59.040        47
59.050        13
59.060         7
59.070         0
59.080         7
59.090        27
59.100        20
59.110         7
59.120        20
59.130        20
59.140         7
59.150        27
59.160         7
59.170        27
59.180        20
59.190         0
59.200        20
59.210         7
59.220         0
59.230        27
59.240        20
59.250        33
59.260        13
59.270         7
59.280        20
59.290        33
59.300        27
59.310        13
59.320        13
59.330         7
59.340        20
59.350        27
59.360        13
59.370         7
59.380        20
59.390        13
59.400         7
59.410        13
59.420        13
59.430        27
59.440         0
59.450         0
59.460        13
59.470        13
59.480        20
59.490        20
59.500        40
59.510         7
59.520        13
59.530        13
59.540        27
59.550         7
59.560        27
59.570        13
59.580        20
59.590         7
59.600         0
59.610        13
59.620         0
59.630         7
59.640        20
59.650         7
59.660        20
59.670        13
59.680         7
59.690        13
59.700         7
59.710        13
59.720        20
59.730        47
59.740        13
59.750        27
59.760        27
59.770        33
59.780        13
59.790        20
59.800        20
59.810        40
59.820        27
59.830        13
59.840        33
59.850        27
59.860        13
59.870        27
59.880        20
59.890        20
59.900        27
59.910        27
59.920         7
59.930        20
59.940        20
59.950        33
59.960         7
59.970        20
59.980        20
59.990         7
60.000         7
