20.000       313
20.010       380
20.020       307
20.030       320
20.040       280
20.050       353
20.060       380
20.070       327
20.080       407
20.090       360
20.100       280
20.110       387
20.120       320
20.130       313
20.140       353
20.150       373
20.160       327
20.170       373
20.180       300
20.190       380
20.200       340
20.210       400
20.220       400
20.230       373
20.240       327
20.250       340
20.260       373
20.270       260
20.280       320
20.290       506
20.300       400
20.310       353
20.320       327
20.330       420
20.340       400
20.350       300
20.360       340
20.370       333
20.380       347
20.390       360
20.400       353
20.410       300
20.420       360
20.430       367
20.440       373
20.450       280
20.460       433
20.470       420
20.480       300
20.490       327
20.500       426
20.510       480
20.520       333
20.530       280
20.540       300
20.550       313
20.560       373
20.570       340
20.580       380
20.590       360
20.600       313
20.610       360
20.620       367
20.630       373
20.640       387
20.650       353
20.660       367
20.670       380
20.680       393
20.690       380
20.700       426
20.710       420
20.720       400
20.730       433
20.740       327
20.750       353
20.760       300
20.770       400
20.780       327
20.790       307
20.800       293
20.810       353
20.820       367
20.830       400
20.840       367
20.850       387
20.860       466
20.870       387
20.880       426
20.890       393
20.900       426
20.910       353
20.920       367
20.930       420
20.940       387
20.950       453
20.960       413
20.970       420
20.980       446
20.990       420
21.000       440
21.010       420
21.020       387
21.030       327
21.040       540
21.050       440
21.060       526
21.070       573
21.080       513
21.090       413
21.100       480
21.110       380
21.120       486
21.130       420
21.140       466
21.150       426
21.160       546
21.170       540
21.180       466
21.190       480
21.200       566
21.210       433
21.220       433
21.230       466
21.240       540
21.250       460
21.260       520
21.270       460
21.280       480
21.290       466
21.300       453
21.310       480
21.320       520
21.330       506
21.340       546
21.350       400
21.360       493
21.370       506
21.380       486
21.390       466
21.400       540
21.410       493
21.420       573
21.430       520
21.440       446
21.450       586
21.460       566
21.470       533
21.480       513
21.490       540
21.500       393
21.510       540
21.520       560
21.530       513
21.540       526
21.550       466
21.560       506
21.570       513
21.580       566
21.590       540
21.600       626
21.610       566
21.620       506
21.630       560
21.640       606
21.650       533
21.660       513
21.670       566
21.680       513
21.690       520
21.700       413
21.710       613
21.720       560
21.730       540
21.740       526
21.750       573
21.760       566
21.770       513
21.780       433
21.790       620
21.800       526
21.810       640
21.820       573
21.830       586
21.840       533
21.850       660
21.860       580
21.870       593
21.880       520
21.890       473
21.900       506
21.910       573
21.920       453
21.930       540
21.940       640
21.950       633
21.960       573
21.970       606
21.980       573
21.990       646
22.000       586
22.010       726
22.020       673
22.030       606
22.040       600
22.050       453
22.060       513
22.070       760
22.080       573
22.090       700
22.100       620
22.110       733
22.120       713
22.130       600
22.140       646
22.150       586
22.160       673
22.170       686
22.180       673
22.190       780
22.200       593
22.210       746
22.220       700
22.230       713
22.240       713
22.250       806
22.260       673
22.270       626
22.280       693
22.290       740
22.300       660
22.310       780
22.320       606
22.330       726
22.340       800
22.350       680
22.360       766
22.370       780
22.380       753
22.390       866
22.400       786
22.410       733
22.420       753
22.430       726
22.440       753
22.450       680
22.460       753
22.470       740
22.480       726
22.490       820
22.500       633
22.510       706
22.520       626
22.530       593
22.540       633
22.550       786
22.560       700
22.570       593
22.580       626
22.590       680
22.600       586
22.610       646
22.620       746
22.630       726
22.640       546
22.650       820
22.660       726
22.670       786
22.680       800
22.690       606
22.700       653
22.710       613
22.720       673
22.730       746
22.740       653
22.750       773
22.760       653
22.770       813
22.780       706
22.790       713
22.800       666
22.810       613
22.820       713
22.830       660
22.840       660
22.850       686
22.860       693
22.870       620
22.880       913
22.890       740
22.900       793
22.910       760
22.920       693
22.930       826
22.940       746
22.950       720
22.960       740
22.970       760
22.980       733
22.990       786
23.000       773
23.010       693
23.020       766
23.030       900
23.040       813
23.050       713
23.060       873
23.070       793
23.080       720
23.090       746
23.100       700
23.110       833
23.120       853
23.130       746
23.140       953
23.150       706
23.160       946
23.170       773
23.180       800
23.190       860
23.200       720
23.210       633
23.220       733
23.230       840
23.240       820
23.250       826
23.260       700
23.270       686
23.280       613
23.290       760
23.300       760
23.310       813
23.320       893
23.330       813
23.340       800
23.350       813
23.360       873
23.370       933
23.380       886
23.390       986
23.400       680
23.410       906
23.420       973
23.430       733
23.440       900
23.450       820
23.460       940
23.470       873
23.480       740
23.490       706
23.500       853
23.510       753
23.520       800
23.530       800
23.540       840
23.550       846
23.560       826
23.570      1020
23.580       820
23.590       826
23.600       900
23.610       820
23.620       813
23.630       886
23.640       840
23.650       880
23.660       860
23.670       826
23.680       833
23.690       860
23.700      1013
23.710       926
23.720       833
23.730       886
23.740       793
23.750       873
23.760       980
23.770       860
23.780       740
23.790       960
23.800       986
23.810       860
23.820       900
23.830       986
23.840       933
23.850       886
23.860       853
23.870       940
23.880       900
23.890      1146
23.900       926
23.910       893
23.920       906
23.930       980
23.940       973
23.950       986
23.960       860
23.970       993
23.980       906
23.990      1020
24.000       900
24.010       960
24.020      1033
24.030       966
24.040      1153
24.050      1013
24.060       933
24.070       920
24.080       980
24.090      1006
24.100       940
24.110       880
24.120       953
24.130       960
24.140       953
24.150      1066
24.160       893
24.170       873
24.180       886
24.190       933
24.200       833
24.210       946
24.220      1053
24.230      1106
24.240       993
24.250       893
24.260       926
24.270       906
24.280       953
24.290       933
24.300      1133
24.310       900
24.320      1086
24.330       946
24.340       846
24.350       900
24.360       973
24.370       940
24.380       920
24.390       840
24.400       966
24.410       966
24.420       960
24.430      1020
24.440      1006
24.450      1080
24.460      1020
24.470       953
24.480       946
24.490       886
24.500       960
24.510      1020
24.520      1033
24.530       920
24.540      1086
24.550       926
24.560       820
24.570       920
24.580       960
24.590       913
24.600       900
24.610      1040
24.620      1086
24.630       840
24.640       926
24.650      1000
24.660      1053
24.670       946
24.680       846
24.690       926
24.700      1046
24.710       980
24.720      1026
24.730      1013
24.740       880
24.750       866
24.760       913
24.770       973
24.780       880
24.790       933
24.800       953
24.810       980
24.820       886
24.830       953
24.840      1006
24.850       813
24.860       906
24.870       900
24.880       940
24.890       853
24.900       986
24.910      1040
24.920       940
24.930       966
24.940       880
24.950       906
24.960       953
24.970      1100
24.980       940
24.990      1073
25.000       973
25.010      1053
25.020       860
25.030      1053
25.040       986
25.050      1006
25.060       866
25.070       993
25.080       906
25.090       933
25.100       920
25.110       866
25.120       973
25.130       940
25.140       860
25.150       926
25.160       826
25.170       980
25.180      1000
25.190       913
25.200       980
25.210      1033
25.220       860
25.230       880
25.240       913
25.250       866
25.260       900
25.270       800
25.280      1080
25.290       886
25.300       986
25.310       873
25.320      1060
25.330      1000
25.340       826
25.350       853
25.360      1026
25.370      1013
25.380       986
25.390       973
25.400       946
25.410       913
25.420      1100
25.430      1153
25.440       946
25.450       840
25.460      1060
25.470      1000
25.480       846
25.490       973
25.500       960
25.510       833
25.520       973
25.530       946
25.540       906
25.550      1026
25.560      1046
25.570       973
25.580      1006
25.590       986
25.600       993
25.610       980
25.620       960
25.630       993
25.640      1013
25.650      1086
25.660       913
25.670      1066
25.680       893
25.690      1120
25.700       966
25.710      1040
25.720       966
25.730       913
25.740       906
25.750       953
25.760       946
25.770       833
25.780       940
25.790      1040
25.800       986
25.810       966
25.820       893
25.830      1000
25.840       940
25.850       886
25.860       693
25.870      1000
25.880       873
25.890       780
25.900       900
25.910       993
25.920       906
25.930       873
25.940       986
25.950       800
25.960      1126
25.970       893
25.980       946
25.990       946
26.000       880
26.010       920
26.020       840
26.030      1086
26.040       893
26.050       913
26.060       853
26.070       946
26.080       880
26.090       973
26.100      1040
26.110       860
26.120       860
26.130      1000
26.140       793
26.150       986
26.160       940
26.170       993
26.180       886
26.190       806
26.200       926
26.210       766
26.220       946
26.230      1033
26.240       860
26.250       953
26.260       940
26.270       946
26.280       946
26.290       913
26.300      1033
26.310       913
26.320       973
26.330       940
26.340       933
26.350       853
26.360       973
26.370      1073
26.380       953
26.390       780
26.400       986
26.410       993
26.420       940
26.430       933
26.440      1046
26.450       866
26.460       873
26.470       806
26.480       913
26.490      1053
26.500       913
26.510      1126
26.520       853
26.530       966
26.540      1066
26.550      1026
26.560       980
26.570       946
26.580       926
26.590       960
26.600       893
26.610       826
26.620       973
26.630       953
26.640       940
26.650      1000
26.660       953
26.670       973
26.680       820
26.690       873
26.700       893
26.710       933
26.720       846
26.730      1000
26.740       940
26.750       893
26.760       946
26.770      1013
26.780      1013
26.790       873
26.800       846
26.810       940
26.820      1193
26.830      1066
26.840       866
26.850      1020
26.860       733
26.870       933
26.880       900
26.890       900
26.900       920
26.910      1073
26.920       920
26.930       886
26.940       873
26.950       933
26.960      1020
26.970       820
26.980       840
26.990       720
27.000       920
27.010      1106
27.020       966
27.030      1026
27.040      1033
27.050      1166
27.060       900
27.070       926
27.080       860
27.090       893
27.100       846
27.110       940
27.120       880
27.130       860
27.140       973
27.150       953
27.160      1013
27.170       900
27.180       866
27.190       986
27.200       786
27.210       953
27.220      1006
27.230       886
27.240       980
27.250       926
27.260       840
27.270       993
27.280       980
27.290       866
27.300      1046
27.310       900
27.320       973
27.330       873
27.340       913
27.350      1106
27.360       913
27.370       920
27.380       946
27.390       866
27.400      1060
27.410       886
27.420       926
27.430       866
27.440       913
27.450       846
27.460       893
27.470       926
27.480       900
27.490       933
27.500       973
27.510       893
27.520       780
27.530       973
27.540       886
27.550       973
27.560       806
27.570       786
27.580       826
27.590      1073
27.600       720
27.610       940
27.620       926
27.630       920
27.640       840
27.650       873
27.660       913
27.670       806
27.680      1080
27.690       886
27.700       793
27.710      1040
27.720      1013
27.730       906
27.740       926
27.750       766
27.760       880
27.770       926
27.780       813
27.790      1100
27.800       786
27.810      1006
27.820       860
27.830       973
27.840       940
27.850       940
27.860       966
27.870       880
27.880       900
27.890       853
27.900       940
27.910       806
27.920       806
27.930       913
27.940       920
27.950       900
27.960      1033
27.970       933
27.980       986
27.990       866
28.000       826
28.010       833
28.020       993
28.030       826
28.040       900
28.050       840
28.060       966
28.070       840
28.080       906
28.090       846
28.100       846
28.110      1033
28.120       840
28.130       993
28.140       920
28.150       866
28.160       940
28.170      1146
28.180       940
28.190       966
28.200       966
28.210      1026
28.220       960
28.230       846
28.240       913
28.250       973
28.260       900
28.270       886
28.280       933
28.290       793
28.300       866
28.310       826
28.320       960
28.330       886
28.340       900
28.350       913
28.360      1006
28.370       893
28.380       820
28.390      1006
28.400       873
28.410      1006
28.420       913
28.430      1046
28.440       880
28.450       933
28.460       840
28.470       860
28.480       853
28.490       860
28.500       966
28.510       866
28.520       846
28.530       793
28.540       766
28.550       993
28.560       933
28.570       860
28.580       966
28.590       813
28.600       873
28.610       773
28.620       913
28.630       933
28.640       920
28.650       940
28.660       980
28.670       946
28.680       833
28.690       780
28.700       926
28.710       820
28.720       813
28.730       806
28.740       893
28.750       813
28.760       913
28.770       886
28.780       840
28.790       820
28.800       880
28.810       786
28.820       726
28.830       900
28.840       760
28.850       933
28.860       913
28.870       906
28.880       813
28.890      1033
28.900       746
28.910       826
28.920       926
28.930       846
28.940       733
28.950       933
28.960       820
28.970       953
28.980      1026
28.990       833
29.000       813
29.010       853
29.020       880
29.030       846
29.040       873
29.050       780
29.060       846
29.070       726
29.080       880
29.090       713
29.100       780
29.110       846
29.120       660
29.130       933
29.140       866
29.150       813
29.160       846
29.170       953
29.180       713
29.190       793
29.200       900
29.210       873
29.220       673
29.230       846
29.240       746
29.250       766
29.260       886
29.270       733
29.280       760
29.290       800
29.300       540
29.310       793
29.320       593
29.330       773
29.340       760
29.350       786
29.360       773
29.370       900
29.380       840
29.390       760
29.400       873
29.410       826
29.420       846
29.430       713
29.440       733
29.450       873
29.460       686
29.470       753
29.480       753
29.490       753
29.500       860
29.510       753
29.520       940
29.530       786
29.540       786
29.550       820
29.560       820
29.570       753
29.580       613
29.590       700
29.600       900
29.610       653
29.620       713
29.630       780
29.640       706
29.650       786
29.660       706
29.670       760
29.680       700
29.690       800
29.700       640
29.710       833
29.720       793
29.730       780
29.740       826
29.750       906
29.760       766
29.770       653
29.780       846
29.790       780
29.800       820
29.810       746
29.820       713
29.830       706
29.840       686
29.850       760
29.860       900
29.870       853
29.880       713
29.890       720
29.900       600
29.910       646
29.920       680
29.930       840
29.940       786
29.950       593
29.960       646
29.970       713
29.980       686
29.990       633
30.000       706
30.010       693
30.020       686
30.030       693
30.040       766
30.050       660
30.060       586
30.070       653
30.080       733
30.090       693
30.100       686
30.110       720
30.120       666
30.130       753
30.140       593
30.150       880
30.160       666
30.170       780
30.180       800
30.190       640
30.200       726
30.210       720
30.220       666
30.230       726
30.240       553
30.250       753
30.260       613
30.270       733
30.280       786
30.290       640
30.300       606
30.310       793
30.320       700
30.330       613
30.340       780
30.350       640
30.360       686
30.370       686
30.380       660
30.390       660
30.400       720
30.410       680
30.420       746
30.430       640
30.440       600
30.450       706
30.460       706
30.470       633
30.480       680
30.490       740
30.500       786
30.510       566
30.520       713
30.530       640
30.540       686
30.550       673
30.560       613
30.570       700
30.580       613
30.590       833
30.600       666
30.610       640
30.620       633
30.630       593
30.640       726
30.650       653
30.660       640
30.670       660
30.680       620
30.690       666
30.700       753
30.710       580
30.720       646
30.730       613
30.740       673
30.750       606
30.760       680
30.770       666
30.780       620
30.790       586
30.800       693
30.810       680
30.820       573
30.830       773
30.840       640
30.850       573
30.860       573
30.870       486
30.880       633
30.890       573
30.900       540
30.910       480
30.920       453
30.930       580
30.940       526
30.950       546
30.960       640
30.970       600
30.980       493
30.990       606
31.000       580
31.010       500
31.020       600
31.030       540
31.040       653
31.050       526
31.060       626
31.070       653
31.080       526
31.090       626
31.100       700
31.110       593
31.120       586
31.130       460
31.140       633
31.150       580
31.160       600
31.170       553
31.180       580
31.190       613
31.200       473
31.210       613
31.220       633
31.230       593
31.240       480
31.250       586
31.260       573
31.270       473
31.280       500
31.290       540
31.300       513
31.310       586
31.320       613
31.330       640
31.340       553
31.350       580
31.360       553
31.370       620
31.380       486
31.390       513
31.400       546
31.410       566
31.420       593
31.430       666
31.440       580
31.450       633
31.460       573
31.470       546
31.480       493
31.490       520
31.500       520
31.510       546
31.520       586
31.530       646
31.540       553
31.550       546
31.560       620
31.570       573
31.580       526
31.590       620
31.600       706
31.610       520
31.620       660
31.630       706
31.640       633
31.650       720
31.660       553
31.670       646
31.680       653
31.690       566
31.700       700
31.710       733
31.720       720
31.730       513
31.740       673
31.750       580
31.760       700
31.770       660
31.780       700
31.790       693
31.800       733
31.810       673
31.820       513
31.830       700
31.840       600
31.850       720
31.860       666
31.870       620
31.880       673
31.890       553
31.900       473
31.910       480
31.920       693
31.930       620
31.940       533
31.950       393
31.960       593
31.970       440
31.980       453
31.990       520
32.000       546
32.010       466
32.020       580
32.030       466
32.040       573
32.050       480
32.060       460
32.070       553
32.080       500
32.090       440
32.100       453
32.110       513
32.120       400
32.130       413
32.140       560
32.150       433
32.160       473
32.170       473
32.180       580
32.190       480
32.200       393
32.210       480
32.220       533
32.230       526
32.240       473
32.250       466
32.260       426
32.270       413
32.280       420
32.290       500
32.300       520
32.310       480
32.320       400
32.330       426
32.340       380
32.350       433
32.360       500
32.370       387
32.380       553
32.390       380
32.400       387
32.410       460
32.420       453
32.430       393
32.440       360
32.450       493
32.460       400
32.470       466
32.480       440
32.490       480
32.500       446
32.510       433
32.520       333
32.530       367
32.540       360
32.550       460
32.560       420
32.570       387
32.580       340
32.590       400
32.600       440
32.610       420
32.620       426
32.630       573
32.640       373
32.650       320
32.660       493
32.670       446
32.680       533
32.690       413
32.700       446
32.710       460
32.720       373
32.730       453
32.740       407
32.750       460
32.760       493
32.770       307
32.780       387
32.790       473
32.800       407
32.810       380
32.820       373
32.830       353
32.840       460
32.850       360
32.860       400
32.870       453
32.880       380
32.890       387
32.900       400
32.910       413
32.920       400
32.930       367
32.940       380
32.950       506
32.960       360
32.970       360
32.980       367
32.990       367
33.000       440
33.010       313
33.020       347
33.030       293
33.040       387
33.050       353
33.060       387
33.070       333
33.080       493
33.090       426
33.100       373
33.110       360
33.120       400
33.130       367
33.140       367
33.150       327
33.160       367
33.170       327
33.180       466
33.190       360
33.200       353
33.210       327
33.220       267
33.230       373
33.240       267
33.250       380
33.260       327
33.270       373
33.280       353
33.290       373
33.300       373
33.310       327
33.320       387
33.330       333
33.340       287
33.350       400
33.360       400
33.370       240
33.380       340
33.390       287
33.400       333
33.410       426
33.420       293
33.430       393
33.440       340
33.450       387
33.460       313
33.470       367
33.480       373
33.490       353
33.500       380
33.510       320
33.520       353
33.530       360
33.540       300
33.550       313
33.560       313
33.570       280
33.580       426
33.590       333
33.600       300
33.610       373
33.620       273
33.630       320
33.640       220
33.650       347
33.660       380
33.670       313
33.680       280
33.690       413
33.700       327
33.710       260
33.720       280
33.730       220
33.740       327
33.750       320
33.760       320
33.770       340
33.780       260
33.790       347
33.800       273
33.810       300
33.820       273
33.830       307
33.840       367
33.850       227
33.860       233
33.870       373
33.880       347
33.890       287
33.900       307
33.910       307
33.920       333
33.930       247
33.940       380
33.950       320
33.960       260
33.970       273
33.980       280
33.990       313
34.000       260
34.010       300
34.020       273
34.030       267
34.040       260
34.050       367
34.060       307
34.070       287
34.080       347
34.090       293
34.100       240
34.110       187
34.120       280
34.130       253
34.140       353
34.150       233
34.160       300
34.170       327
34.180       280
34.190       267
34.200       313
34.210       267
34.220       347
34.230       307
34.240       253
34.250       233
34.260       260
34.270       247
34.280       320
34.290       333
34.300       360
34.310       267
34.320       260
34.330       340
34.340       320
34.350       293
34.360       220
34.370       253
34.380       273
34.390       267
34.400       220
34.410       293
34.420       300
34.430       240
34.440       200
34.450       340
34.460       247
34.470       233
34.480       233
34.490       293
34.500       333
34.510       287
34.520       253
34.530       280
34.540       233
34.550       293
34.560       300
34.570       267
34.580       227
34.590       287
34.600       267
34.610       313
34.620       293
34.630       227
34.640       240
34.650       240
34.660       220
34.670       207
34.680       260
34.690       280
34.700       220
34.710       220
34.720       227
34.730       220
34.740       247
34.750       253
34.760       160
34.770       247
34.780       233
34.790       280
34.800       233
34.810       227
34.820       193
34.830       227
34.840       200
34.850       233
34.860       300
34.870       280
34.880       227
34.890       220
34.900       227
34.910       233
34.920       287
34.930       227
34.940       267
34.950       227
34.960       187
34.970       193
34.980       247
34.990       227
35.000       260
35.010       233
35.020       220
35.030       207
35.040       207
35.050       267
35.060       273
35.070       220
35.080       200
35.090       220
35.100       213
35.110       240
35.120       240
35.130       267
35.140       133
35.150       187
35.160       213
35.170       193
35.180       167
35.190       253
35.200       247
35.210       207
35.220       260
35.230       253
35.240       187
35.250       293
35.260       193
35.270       260
35.280       260
35.290       240
35.300       193
35.310       267
35.320       173
35.330       207
35.340       253
35.350       280
35.360       247
35.370       313
35.380       207
35.390       207
35.400       180
35.410       260
35.420       267
35.430       267
35.440       200
35.450       233
35.460       193
35.470       240
35.480       213
35.490       200
35.500       160
35.510       220
35.520       173
35.530       207
35.540       267
35.550       220
35.560       200
35.570       280
35.580       147
35.590       193
35.600       240
35.610       280
35.620       200
35.630       213
35.640       193
35.650       213
35.660       227
35.670       213
35.680       227
35.690       153
35.700       147
35.710       167
35.720       260
35.730       153
35.740       173
35.750       153
35.760       213
35.770       173
35.780       173
35.790       220
35.800       153
35.810       187
35.820       247
35.830       167
35.840       173
35.850       280
35.860       253
35.870       207
35.880       273
35.890       133
35.900       213
35.910       240
35.920       200
35.930       220
35.940       200
35.950       227
35.960       213
35.970       247
35.980       193
35.990       213
36.000       233
36.010       140
36.020       187
36.030       240
36.040       220
36.050       253
36.060       220
36.070       193
36.080       253
36.090       200
36.100       193
36.110       227
36.120       260
36.130       193
36.140       193
36.150       267
36.160       227
36.170       147
36.180       193
36.190       193
36.200       133
36.210       180
36.220       207
36.230       253
36.240       247
36.250       253
36.260       240
36.270       193
36.280       153
36.290       167
36.300       167
36.310       193
36.320       200
36.330       220
36.340       220
36.350       160
36.360       213
36.370       220
36.380       147
36.390       200
36.400       253
36.410       173
36.420       287
36.430       187
36.440       173
36.450       173
36.460       207
36.470       187
36.480       127
36.490       213
36.500       127
36.510       180
36.520       207
36.530       267
36.540       227
36.550       160
36.560       173
36.570       227
36.580       140
36.590       220
36.600       200
36.610       173
36.620       167
36.630       193
36.640       207
36.650       227
36.660       160
36.670       187
36.680       167
36.690       127
36.700       207
36.710       193
36.720       180
36.730       193
36.740       200
36.750       213
36.760       147
36.770       240
36.780       167
36.790       200
36.800       180
36.810       187
36.820       160
36.830       193
36.840       200
36.850       220
36.860       133
36.870       173
36.880       220
36.890       280
36.900       187
36.910       187
36.920       193
36.930       180
36.940       173
36.950       200
36.960       167
36.970       173
36.980       167
36.990       160
37.000       193
37.010       127
37.020       220
37.030       193
37.040       193
37.050       187
37.060       220
37.070       180
37.080       160
37.090       160
37.100       213
37.110       167
37.120       207
37.130       167
37.140       227
37.150       233
37.160       160
37.170       180
37.180       160
37.190       140
37.200       187
37.210       167
37.220       140
37.230       220
37.240       147
37.250       140
37.260       120
37.270       160
37.280       200
37.290       187
37.300       147
37.310       167
37.320       187
37.330       113
37.340       127
37.350       167
37.360       267
37.370       213
37.380       140
37.390       133
37.400       160
37.410       213
37.420       167
37.430       207
37.440       227
37.450       173
37.460       147
37.470       127
37.480       140
37.490       160
37.500       200
37.510       133
37.520       133
37.530       207
37.540       200
37.550       213
37.560       200
37.570       173
37.580       160
37.590       193
37.600       200
37.610       253
37.620       107
37.630       213
37.640       153
37.650       133
37.660       160
37.670       147
37.680       127
37.690       180
37.700       173
37.710       220
37.720       187
37.730       240
37.740       147
37.750       187
37.760       140
37.770       160
37.780        87
37.790       153
37.800       180
37.810       167
37.820       147
37.830       240
37.840       180
37.850       227
37.860       173
37.870       193
37.880       147
37.890       180
37.900       193
37.910       153
37.920       167
37.930       167
37.940       180
37.950       200
37.960       167
37.970       153
37.980       147
37.990       180
38.000       133
38.010       167
38.020       153
38.030       247
38.040       227
38.050       167
38.060       247
38.070       153
38.080       280
38.090       213
38.100       287
38.110       207
38.120       273
38.130       320
38.140       260
38.150       273
38.160       280
38.170       307
38.180       253
38.190       333
38.200       293
38.210       353
38.220       347
38.230       420
38.240       433
38.250       433
38.260       486
38.270       606
38.280       680
38.290       873
38.300       686
38.310       733
38.320       826
38.330       740
38.340       733
38.350       873
38.360       906
38.370       873
38.380      1006
38.390      1166
38.400      1080
38.410      1133
38.420      1133
38.430      1293
38.440      1166
38.450      1313
38.460      1399
38.470      1546
38.480      1586
38.490      1766
38.500      2033
38.510      2299
38.520      2599
38.530      3232
38.540      4365
38.550      6397
38.560      8816
38.570     12062
38.580     14887
38.590     16747
38.600     17999
38.610     18119
38.620     19066
38.630     16640
38.640     14341
38.650     10336
38.660      7510
38.670      5265
38.680      3672
38.690      2686
38.700      2279
38.710      1779
38.720      1759
38.730      1359
38.740      1146
38.750      1113
38.760      1193
38.770      1100
38.780      1133
38.790       993
38.800       940
38.810       920
38.820       806
38.830       846
38.840       920
38.850       726
38.860       653
38.870       613
38.880       726
38.890       680
38.900       740
38.910       593
38.920       620
38.930       686
38.940       673
38.950       673
38.960       660
38.970       660
38.980       626
38.990       573
39.000       666
39.010       566
39.020       633
39.030       573
39.040       546
39.050       660
39.060       620
39.070       580
39.080       660
39.090       633
39.100       733
39.110       653
39.120       540
39.130       680
39.140       646
39.150       500
39.160       713
39.170       546
39.180       613
39.190       533
39.200       660
39.210       626
39.220       593
39.230       533
39.240       553
39.250       600
39.260       620
39.270       533
39.280       533
39.290       486
39.300       533
39.310       520
39.320       500
39.330       453
39.340       407
39.350       513
39.360       440
39.370       360
39.380       373
39.390       373
39.400       387
39.410       407
39.420       433
39.430       340
39.440       327
39.450       267
39.460       400
39.470       313
39.480       293
39.490       347
39.500       360
39.510       407
39.520       347
39.530       327
39.540       353
39.550       340
39.560       260
39.570       393
39.580       373
39.590       313
39.600       260
39.610       367
39.620       327
39.630       347
39.640       293
39.650       300
39.660       300
39.670       347
39.680       333
39.690       313
39.700       353
39.710       440
39.720       320
39.730       353
39.740       327
39.750       313
39.760       213
39.770       400
39.780       307
39.790       400
39.800       293
39.810       313
39.820       280
39.830       333
39.840       333
39.850       293
39.860       293
39.870       327
39.880       327
39.890       273
39.900       307
39.910       320
39.920       313
39.930       387
39.940       253
39.950       273
39.960       267
39.970       293
39.980       347
39.990       367
40.000       247
40.010       373
40.020       313
40.030       360
40.040       287
40.050       247
40.060       240
40.070       373
40.080       340
40.090       307
40.100       307
40.110       287
40.120       267
40.130       313
40.140       247
40.150       307
40.160       267
40.170       273
40.180       247
40.190       260
40.200       380
40.210       273
40.220       280
40.230       393
40.240       340
40.250       293
40.260       273
40.270       340
40.280       307
40.290       320
40.300       193
40.310       247
40.320       260
40.330       207
40.340       407
40.350       280
40.360       327
40.370       353
40.380       280
40.390       280
40.400       373
40.410       207
40.420       313
40.430       367
40.440       367
40.450       333
40.460       200
40.470       227
40.480       320
40.490       373
40.500       253
40.510       247
40.520       260
40.530       313
40.540       260
40.550       233
40.560       247
40.570       180
40.580       307
40.590       253
40.600       307
40.610       253
40.620       267
40.630       240
40.640       240
40.650       267
40.660       253
40.670       233
40.680       220
40.690       313
40.700       340
40.710       227
40.720       300
40.730       313
40.740       267
40.750       267
40.760       347
40.770       293
40.780       367
40.790       240
40.800       280
40.810       267
40.820       320
40.830       320
40.840       220
40.850       240
40.860       380
40.870       313
40.880       273
40.890       227
40.900       227
40.910       267
40.920       260
40.930       293
40.940       360
40.950       293
40.960       320
40.970       320
40.980       340
40.990       347
41.000       253
41.010       333
41.020       300
41.030       307
41.040       280
41.050       267
41.060       260
41.070       347
41.080       327
41.090       340
41.100       300
41.110       313
41.120       333
41.130       360
41.140       307
41.150       407
41.160       327
41.170       380
41.180       407
41.190       420
41.200       513
41.210       533
41.220       393
41.230       626
41.240       633
41.250       573
41.260       660
41.270       686
41.280       553
41.290       626
41.300       846
41.310       786
41.320      1046
41.330      1093
41.340      1313
41.350      1819
41.360      2053
41.370      2566
41.380      3139
41.390      3445
41.400      3865
41.410      4725
41.420      4965
41.430      5464
41.440      5331
41.450      5118
41.460      5598
41.470      5298
41.480      5538
41.490      5631
41.500      5671
41.510      6098
41.520      5711
41.530      5751
41.540      5704
41.550      5871
41.560      5338
41.570      5658
41.580      5398
41.590      5764
41.600      5891
41.610      5584
41.620      5831
41.630      5611
41.640      5751
41.650      5871
41.660      5711
41.670      5538
41.680      5884
41.690      5904
41.700      5738
41.710      5671
41.720      5638
41.730      5738
41.740      5644
41.750      5764
41.760      5618
41.770      5771
41.780      5891
41.790      5878
41.800      5791
41.810      5911
41.820      5678
41.830      5998
41.840      6018
41.850      6384
41.860      5811
41.870      5964
41.880      6038
41.890      5584
41.900      5518
41.910      5591
41.920      5638
41.930      6118
41.940      6144
41.950      5871
41.960      5971
41.970      6224
41.980      5498
41.990      6224
42.000      6138
42.010      6311
42.020      6204
42.030      5944
42.040      6158
42.050      6204
42.060      6131
42.070      6364
42.080      6238
42.090      6271
42.100      6144
42.110      5998
42.120      6477
42.130      6344
42.140      6417
42.150      6044
42.160      6218
42.170      6497
42.180      6417
42.190      6424
42.200      6497
42.210      6511
42.220      6637
42.230      6871
42.240      6671
42.250      6877
42.260      6991
42.270      7044
42.280      6557
42.290      6771
42.300      7550
42.310      7117
42.320      7250
42.330      6904
42.340      7437
42.350      7277
42.360      7310
42.370      7644
42.380      7737
42.390      7957
42.400      8297
42.410      8630
42.420      7990
42.430      8623
42.440      8903
42.450      9036
42.460      9250
42.470      9576
42.480     10089
42.490     10702
42.500     10469
42.510     11462
42.520     11769
42.530     11975
42.540     12302
42.550     13381
42.560     14774
42.570     15354
42.580     16953
42.590     19186
42.600     20858
42.610     23870
42.620     27262
42.630     31847
42.640     37025
42.650     43956
42.660     51466
42.670     59370
42.680     67653
42.690     78275
42.700     85946
42.710     94922
42.720    104911
42.730    111182
42.740    116847
42.750    121418
42.760    127736
42.770    134006
42.780    140071
42.790    147388
42.800    157097
42.810    168493
42.820    185659
42.830    208423
42.840    238218
42.850    269852
42.860    295435
42.870    285246
42.880    260349
42.890    244289
42.900    231374
42.910    227642
42.920    221758
42.930    223251
42.940    235313
42.950    247114
42.960    268399
42.970    285146
42.980    292730
42.990    290490
43.000    281334
43.010    275323
43.020    271998
43.030    269392
43.040    271078
43.050    279895
43.060    292830
43.070    290584
43.080    263428
43.090    213088
43.100    160043
43.110    122444
43.120     95635
43.130     79621
43.140     66187
43.150     56931
43.160     49673
43.170     44102
43.180     39431
43.190     34746
43.200     32041
43.210     30195
43.220     26996
43.230     25990
43.240     23197
43.250     20885
43.260     21005
43.270     18772
43.280     17680
43.290     16473
43.300     16407
43.310     15507
43.320     14714
43.330     14328
43.340     13914
43.350     12462
43.360     12602
43.370     12555
43.380     11722
43.390     11709
43.400     11255
43.410     10816
43.420     10862
43.430     10529
43.440     10729
43.450     10429
43.460      9863
43.470      9716
43.480      9496
43.490      8776
43.500      8770
43.510      9070
43.520      8597
43.530      8510
43.540      7943
43.550      8303
43.560      8217
43.570      7770
43.580      7797
43.590      7904
43.600      8017
43.610      7457
43.620      6984
43.630      6871
43.640      6977
43.650      6911
43.660      6631
43.670      7224
43.680      6524
43.690      6757
43.700      6884
43.710      6651
43.720      6218
43.730      6191
43.740      6437
43.750      6071
43.760      5778
43.770      6164
43.780      5918
43.790      6031
43.800      5971
43.810      5424
43.820      5464
43.830      5731
43.840      5358
43.850      5824
43.860      5431
43.870      5258
43.880      5418
43.890      5424
43.900      5265
43.910      5418
43.920      5031
43.930      5258
43.940      5245
43.950      5125
43.960      5211
43.970      5191
43.980      4865
43.990      5251
44.000      4978
44.010      5225
44.020      4965
44.030      5211
44.040      4718
44.050      4965
44.060      4985
44.070      4891
44.080      4558
44.090      4778
44.100      4505
44.110      4811
44.120      4572
44.130      4398
44.140      4365
44.150      4278
44.160      4605
44.170      4385
44.180      4572
44.190      4272
44.200      4398
44.210      4405
44.220      4092
44.230      4545
44.240      4278
44.250      4598
44.260      4172
44.270      4425
44.280      4298
44.290      4132
44.300      4272
44.310      4358
44.320      4125
44.330      4158
44.340      4312
44.350      4152
44.360      4132
44.370      4205
44.380      4378
44.390      3965
44.400      3905
44.410      4298
44.420      4245
44.430      3898
44.440      4065
44.450      4218
44.460      4298
44.470      4125
44.480      4198
44.490      3805
44.500      3985
44.510      4045
44.520      4018
44.530      4285
44.540      3845
44.550      3952
44.560      3992
44.570      3739
44.580      3918
44.590      3925
44.600      3825
44.610      3479
44.620      3725
44.630      3885
44.640      3739
44.650      3605
44.660      3612
44.670      3645
44.680      3798
44.690      4018
44.700      3539
44.710      3632
44.720      3359
44.730      3352
44.740      3619
44.750      3519
44.760      3445
44.770      3592
44.780      3359
44.790      3379
44.800      3345
44.810      3279
44.820      3425
44.830      3379
44.840      3572
44.850      3565
44.860      3612
44.870      3705
44.880      3452
44.890      3419
44.900      3165
44.910      3525
44.920      3279
44.930      3319
44.940      3259
44.950      3705
44.960      3232
44.970      3279
44.980      3359
44.990      3112
45.000      3425
45.010      3132
45.020      3145
45.030      3305
45.040      3245
45.050      3285
45.060      3219
45.070      3259
45.080      3332
45.090      3145
45.100      3125
45.110      3052
45.120      3052
45.130      3345
45.140      3385
45.150      3392
45.160      2819
45.170      3132
45.180      3172
45.190      3239
45.200      3119
45.210      3159
45.220      3079
45.230      3239
45.240      3072
45.250      3072
45.260      3065
45.270      3039
45.280      3132
45.290      2866
45.300      3085
45.310      3205
45.320      2979
45.330      2899
45.340      3212
45.350      3325
45.360      3165
45.370      3379
45.380      2952
45.390      3259
45.400      3012
45.410      3339
45.420      3112
45.430      3232
45.440      2912
45.450      2899
45.460      3019
45.470      3199
45.480      3005
45.490      3125
45.500      2945
45.510      3005
45.520      3165
45.530      2925
45.540      2699
45.550      2925
45.560      3059
45.570      3099
45.580      2985
45.590      2999
45.600      3212
45.610      3085
45.620      2872
45.630      3145
45.640      3052
45.650      3145
45.660      3219
45.670      2906
45.680      2952
45.690      3112
45.700      3112
45.710      2792
45.720      2766
45.730      3165
45.740      3099
45.750      2832
45.760      2945
45.770      2752
45.780      2866
45.790      2819
45.800      2959
45.810      2679
45.820      2659
45.830      2779
45.840      2925
45.850      2772
45.860      2726
45.870      2446
45.880      2686
45.890      2886
45.900      2846
45.910      2792
45.920      2712
45.930      2792
45.940      2752
45.950      2759
45.960      2726
45.970      2446
45.980      2452
45.990      2766
46.000      2566
46.010      2392
46.020      2786
46.030      2719
46.040      2399
46.050      2486
46.060      2652
46.070      2459
46.080      2559
46.090      2539
46.100      2492
46.110      2699
46.120      2392
46.130      2699
46.140      2319
46.150      2359
46.160      2612
46.170      2479
46.180      2532
46.190      2706
46.200      2499
46.210      2392
46.220      2632
46.230      2446
46.240      2699
46.250      2412
46.260      2479
46.270      2346
46.280      2479
46.290      2579
46.300      2352
46.310      2512
46.320      2192
46.330      2339
46.340      2252
46.350      2459
46.360      2259
46.370      2439
46.380      2432
46.390      2379
46.400      2099
46.410      2206
46.420      2459
46.430      2366
46.440      2332
46.450      2432
46.460      2352
46.470      2312
46.480      2452
46.490      2419
46.500      2406
46.510      2119
46.520      2526
46.530      2179
46.540      2039
46.550      2439
46.560      2119
46.570      2372
46.580      2406
46.590      2166
46.600      2406
46.610      2232
46.620      2212
46.630      2112
46.640      2252
46.650      2226
46.660      2426
46.670      2386
46.680      2292
46.690      2139
46.700      2192
46.710      2299
46.720      2033
46.730      2172
46.740      2172
46.750      2092
46.760      2219
46.770      2279
46.780      2259
46.790      2066
46.800      2139
46.810      2326
46.820      2033
46.830      1986
46.840      2426
46.850      2366
46.860      2186
46.870      2192
46.880      2312
46.890      2219
46.900      2212
46.910      2392
46.920      2179
46.930      2013
46.940      2192
46.950      2226
46.960      2179
46.970      2226
46.980      2066
46.990      2019
47.000      2126
47.010      2132
47.020      2132
47.030      1999
47.040      1999
47.050      2086
47.060      2132
47.070      2092
47.080      2239
47.090      1726
47.100      2053
47.110      1979
47.120      2119
47.130      1999
47.140      1979
47.150      2099
47.160      1959
47.170      2079
47.180      2226
47.190      2126
47.200      2199
47.210      1946
47.220      2039
47.230      2299
47.240      2092
47.250      2086
47.260      1953
47.270      1979
47.280      1886
47.290      1939
47.300      2092
47.310      1973
47.320      1926
47.330      1799
47.340      2059
47.350      1973
47.360      1873
47.370      1699
47.380      2066
47.390      1879
47.400      1919
47.410      2099
47.420      1913
47.430      2073
47.440      1913
47.450      1959
47.460      1826
47.470      2286
47.480      1819
47.490      1846
47.500      1819
47.510      1753
47.520      1799
47.530      1973
47.540      2159
47.550      2079
47.560      1966
47.570      1779
47.580      1953
47.590      1773
47.600      1626
47.610      1786
47.620      1939
47.630      1939
47.640      1979
47.650      1999
47.660      1886
47.670      2013
47.680      1879
47.690      1719
47.700      1686
47.710      1926
47.720      1966
47.730      1926
47.740      1639
47.750      1813
47.760      1853
47.770      1939
47.780      1886
47.790      1719
47.800      1873
47.810      1879
47.820      1793
47.830      1633
47.840      1959
47.850      1706
47.860      1753
47.870      1773
47.880      1606
47.890      1766
47.900      1839
47.910      1773
47.920      1666
47.930      1639
47.940      1653
47.950      1746
47.960      1693
47.970      1686
47.980      1926
47.990      1946
48.000      1679
48.010      1799
48.020      1806
48.030      1753
48.040      1806
48.050      1753
48.060      1773
48.070      1593
48.080      1746
48.090      1606
48.100      1719
48.110      1686
48.120      1833
48.130      1533
48.140      1713
48.150      1819
48.160      1566
48.170      1846
48.180      1699
48.190      1606
48.200      1753
48.210      1653
48.220      1779
48.230      1739
48.240      1753
48.250      1886
48.260      1633
48.270      1699
48.280      1526
48.290      1626
48.300      1619
48.310      1666
48.320      1746
48.330      1713
48.340      1626
48.350      1579
48.360      1739
48.370      1646
48.380      1613
48.390      1686
48.400      1593
48.410      1559
48.420      1553
48.430      1506
48.440      1519
48.450      1639
48.460      1759
48.470      1573
48.480      1566
48.490      1639
48.500      1633
48.510      1699
48.520      1573
48.530      1546
48.540      1606
48.550      1679
48.560      1699
48.570      1719
48.580      1753
48.590      1666
48.600      1766
48.610      1446
48.620      1506
48.630      1573
48.640      1666
48.650      1606
48.660      1573
48.670      1499
48.680      1539
48.690      1533
48.700      1793
48.710      1506
48.720      1506
48.730      1426
48.740      1459
48.750      1453
48.760      1713
48.770      1679
48.780      1533
48.790      1613
48.800      1533
48.810      1433
48.820      1573
48.830      1553
48.840      1713
48.850      1599
48.860      1493
48.870      1346
48.880      1506
48.890      1359
48.900      1739
48.910      1513
48.920      1459
48.930      1613
48.940      1413
48.950      1626
48.960      1546
48.970      1473
48.980      1513
48.990      1766
49.000      1526
49.010      1353
49.020      1519
49.030      1419
49.040      1413
49.050      1379
49.060      1359
49.070      1446
49.080      1379
49.090      1526
49.100      1453
49.110      1319
49.120      1533
49.130      1573
49.140      1459
49.150      1386
49.160      1593
49.170      1373
49.180      1559
49.190      1559
49.200      1366
49.210      1446
49.220      1419
49.230      1433
49.240      1359
49.250      1559
49.260      1493
49.270      1406
49.280      1446
49.290      1346
49.300      1499
49.310      1606
49.320      1446
49.330      1526
49.340      1279
49.350      1453
49.360      1459
49.370      1439
49.380      1466
49.390      1453
49.400      1366
49.410      1526
49.420      1419
49.430      1446
49.440      1379
49.450      1386
49.460      1446
49.470      1539
49.480      1513
49.490      1339
49.500      1439
49.510      1240
49.520      1459
49.530      1359
49.540      1306
49.550      1473
49.560      1393
49.570      1546
49.580      1473
49.590      1393
49.600      1399
49.610      1193
49.620      1453
49.630      1446
49.640      1353
49.650      1393
49.660      1220
49.670      1286
49.680      1299
49.690      1220
49.700      1513
49.710      1446
49.720      1406
49.730      1186
49.740      1253
49.750      1426
49.760      1359
49.770      1513
49.780      1333
49.790      1240
49.800      1259
49.810      1433
49.820      1373
49.830      1279
49.840      1226
49.850      1353
49.860      1180
49.870      1160
49.880      1373
49.890      1153
49.900      1140
49.910      1253
49.920      1333
49.930      1080
49.940      1180
49.950      1346
49.960      1459
49.970      1120
49.980      1120
49.990      1213
50.000      1286
50.010      1240
50.020      1266
50.030      1319
50.040      1279
50.050      1100
50.060      1213
50.070      1193
50.080      1486
50.090      1126
50.100      1173
50.110      1213
50.120      1246
50.130      1160
50.140      1273
50.150      1379
50.160      1160
50.170      1273
50.180      1206
50.190      1266
50.200      1326
50.210      1286
50.220      1240
50.230      1319
50.240      1200
50.250      1339
50.260      1186
50.270      1226
50.280      1246
50.290      1026
50.300      1353
50.310       960
50.320      1359
50.330      1333
50.340      1080
50.350      1246
50.360      1146
50.370      1226
50.380      1373
50.390      1160
50.400      1080
50.410      1126
50.420      1246
50.430      1126
50.440      1226
50.450      1266
50.460      1220
50.470      1046
50.480      1233
50.490      1206
50.500       993
50.510      1279
50.520      1113
50.530      1160
50.540      1220
50.550      1086
50.560       993
50.570      1040
50.580       993
50.590      1100
50.600      1140
50.610      1173
50.620      1120
50.630      1299
50.640      1133
50.650      1093
50.660      1273
50.670      1073
50.680      1193
50.690      1200
50.700      1240
50.710      1113
50.720      1180
50.730      1040
50.740      1266
50.750      1166
50.760      1060
50.770      1086
50.780      1160
50.790      1160
50.800      1126
50.810      1233
50.820      1126
50.830      1040
50.840      1140
50.850      1193
50.860      1153
50.870      1053
50.880      1113
50.890      1120
50.900      1033
50.910      1293
50.920      1073
50.930      1193
50.940      1066
50.950      1066
50.960      1060
50.970      1186
50.980      1053
50.990      1073
51.000      1113
51.010      1053
51.020      1206
51.030      1073
51.040      1140
51.050      1126
51.060      1126
51.070      1006
51.080      1006
51.090       840
51.100      1193
51.110       906
51.120       993
51.130      1033
51.140      1013
51.150      1033
51.160      1046
51.170      1073
51.180      1113
51.190      1106
51.200       926
51.210      1093
51.220      1000
51.230       986
51.240       986
51.250      1126
51.260       966
51.270       886
51.280      1060
51.290      1020
51.300      1073
51.310      1006
51.320      1106
51.330       960
51.340      1013
51.350      1020
51.360      1180
51.370      1266
51.380      1040
51.390      1080
51.400      1173
51.410      1126
51.420       926
51.430       846
51.440      1013
51.450      1173
51.460      1033
51.470       893
51.480       973
51.490       993
51.500       993
51.510       986
51.520      1040
51.530       860
51.540      1046
51.550       926
51.560      1006
51.570       913
51.580      1000
51.590       946
51.600      1013
51.610      1080
51.620       906
51.630      1046
51.640      1080
51.650       986
51.660      1020
51.670       913
51.680       980
51.690       926
51.700       966
51.710       826
51.720       933
51.730       926
51.740       926
51.750      1040
51.760       980
51.770       886
51.780      1013
51.790       786
51.800       966
51.810       766
51.820       873
51.830       960
51.840      1166
51.850       786
51.860       993
51.870       926
51.880       966
51.890       720
51.900      1000
51.910       886
51.920       946
51.930       773
51.940       866
51.950      1026
51.960      1013
51.970       973
51.980       940
51.990       833
52.000       793
52.010      1146
52.020      1020
52.030       920
52.040       873
52.050      1013
52.060       913
52.070       953
52.080       880
52.090       786
52.100       980
52.110       900
52.120       940
52.130       833
52.140      1013
52.150       873
52.160       966
52.170       880
52.180      1120
52.190       933
52.200       853
52.210      1000
52.220      1000
52.230       886
52.240       873
52.250       886
52.260       880
52.270       753
52.280       993
52.290       953
52.300       940
52.310       960
52.320       813
52.330       820
52.340       806
52.350       833
52.360       820
52.370       860
52.380       866
52.390       900
52.400       900
52.410      1086
52.420       846
52.430       920
52.440       920
52.450       866
52.460       733
52.470       933
52.480       766
52.490       873
52.500       806
52.510       706
52.520       833
52.530       920
52.540       913
52.550       826
52.560       826
52.570       740
52.580       846
52.590       853
52.600       846
52.610       960
52.620       840
52.630       806
52.640       900
52.650       886
52.660       760
52.670       706
52.680       880
52.690       946
52.700       693
52.710       813
52.720       820
52.730       806
52.740       833
52.750       800
52.760       780
52.770       866
52.780       926
52.790       773
52.800       920
52.810       766
52.820       706
52.830       746
52.840       813
52.850       706
52.860       880
52.870       760
52.880       846
52.890       793
52.900       840
52.910       726
52.920       660
52.930       700
52.940       693
52.950       760
52.960       800
52.970       880
52.980       806
52.990       800
53.000       686
53.010       720
53.020       733
53.030       866
53.040       893
53.050       846
53.060       733
53.070       653
53.080       853
53.090       753
53.100       733
53.110       746
53.120       753
53.130       766
53.140       726
53.150       793
53.160       746
53.170       753
53.180       686
53.190       653
53.200       886
53.210       846
53.220       786
53.230       780
53.240       813
53.250       733
53.260       906
53.270       720
53.280       780
53.290       693
53.300       686
53.310       793
53.320       740
53.330       660
53.340       766
53.350       693
53.360       753
53.370       773
53.380       540
53.390       673
53.400       766
53.410       766
53.420       700
53.430       686
53.440       746
53.450       673
53.460       673
53.470       713
53.480       760
53.490       866
53.500       640
53.510       800
53.520       840
53.530       726
53.540       666
53.550       800
53.560       680
53.570       700
53.580       740
53.590       800
53.600       706
53.610       713
53.620       700
53.630       500
53.640       633
53.650       773
53.660       666
53.670       706
53.680       806
53.690       666
53.700       700
53.710       753
53.720       733
53.730       706
53.740       626
53.750       680
53.760       760
53.770       560
53.780       720
53.790       653
53.800       700
53.810       660
53.820       820
53.830       680
53.840       553
53.850       640
53.860       740
53.870       660
53.880       566
53.890       853
53.900       720
53.910       526
53.920       620
53.930       660
53.940       660
53.950       686
53.960       713
53.970       720
53.980       666
53.990       653
54.000       593
54.010       660
54.020       613
54.030       640
54.040       580
54.050       680
54.060       666
54.070       513
54.080       620
54.090       640
54.100       566
54.110       726
54.120       666
54.130       680
54.140       673
54.150       713
54.160       633
54.170       593
54.180       540
54.190       673
54.200       780
54.210       620
54.220       626
54.230       553
54.240       560
54.250       600
54.260       646
54.270       633
54.280       586
54.290       613
54.300       600
54.310       666
54.320       500
54.330       613
54.340       620
54.350       580
54.360       660
54.370       660
54.380       726
54.390       526
54.400       593
54.410       533
54.420       613
54.430       660
54.440       700
54.450       600
54.460       520
54.470       633
54.480       646
54.490       566
54.500       646
54.510       646
54.520       560
54.530       546
54.540       513
54.550       600
54.560       620
54.570       580
54.580       513
54.590       580
54.600       593
54.610       606
54.620       613
54.630       620
54.640       573
54.650       533
54.660       540
54.670       660
54.680       586
54.690       566
54.700       573
54.710       640
54.720       620
54.730       606
54.740       713
54.750       633
54.760       513
54.770       640
54.780       506
54.790       526
54.800       686
54.810       580
54.820       560
54.830       680
54.840       500
54.850       573
54.860       633
54.870       473
54.880       600
54.890       533
54.900       540
54.910       553
54.920       526
54.930       506
54.940       560
54.950       580
54.960       493
54.970       506
54.980       666
54.990       453
55.000       633
55.010       586
55.020       606
55.030       566
55.040       560
55.050       540
55.060       540
55.070       526
55.080       526
55.090       586
55.100       506
55.110       566
55.120       566
55.130       480
55.140       586
55.150       526
55.160       500
55.170       566
55.180       420
55.190       553
55.200       553
55.210       560
55.220       620
55.230       506
55.240       540
55.250       513
55.260       466
55.270       646
55.280       413
55.290       486
55.300       513
55.310       506
55.320       566
55.330       653
55.340       466
55.350       413
55.360       520
55.370       533
55.380       526
55.390       593
55.400       540
55.410       460
55.420       513
55.430       460
55.440       433
55.450       440
55.460       466
55.470       526
55.480       520
55.490       440
55.500       440
55.510       506
55.520       566
55.530       486
55.540       493
55.550       513
55.560       646
55.570       540
55.580       480
55.590       426
55.600       526
55.610       600
55.620       580
55.630       440
55.640       560
55.650       513
55.660       426
55.670       473
55.680       540
55.690       566
55.700       453
55.710       546
55.720       466
55.730       573
55.740       460
55.750       446
55.760       466
55.770       480
55.780       573
55.790       560
55.800       520
55.810       526
55.820       473
55.830       493
55.840       506
55.850       413
55.860       407
55.870       493
55.880       426
55.890       413
55.900       520
55.910       553
55.920       460
55.930       473
55.940       553
55.950       533
55.960       413
55.970       480
55.980       407
55.990       473
56.000       560
56.010       540
56.020       440
56.030       420
56.040       480
56.050       413
56.060       593
56.070       513
56.080       433
56.090       446
56.100       533
56.110       533
56.120       413
56.130       413
56.140       426
56.150       493
56.160       586
56.170       466
56.180       393
56.190       493
56.200       506
56.210       473
56.220       446
56.230       600
56.240       513
56.250       440
56.260       453
56.270       387
56.280       420
56.290       400
56.300       413
56.310       500
56.320       513
56.330       520
56.340       460
56.350       446
56.360       460
56.370       420
56.380       566
56.390       546
56.400       586
56.410       500
56.420       506
56.430       500
56.440       546
56.450       460
56.460       473
56.470       493
56.480       580
56.490       613
56.500       573
56.510       526
56.520       466
56.530       493
56.540       613
56.550       553
56.560       706
56.570       546
56.580       586
56.590       546
56.600       546
56.610       520
56.620       606
56.630       553
56.640       453
56.650       526
56.660       460
56.670       640
56.680       520
56.690       560
56.700       653
56.710       566
56.720       513
56.730       500
56.740       520
56.750       560
56.760       606
56.770       466
56.780       460
56.790       466
56.800       380
56.810       426
56.820       506
56.830       446
56.840       666
56.850       526
56.860       460
56.870       373
56.880       446
56.890       500
56.900       407
56.910       480
56.920       380
56.930       400
56.940       460
56.950       426
56.960       426
56.970       407
56.980       407
56.990       400
57.000       393
57.010       460
57.020       446
57.030       533
57.040       460
57.050       500
57.060       400
57.070       553
57.080       347
57.090       407
57.100       380
57.110       340
57.120       347
57.130       373
57.140       413
57.150       333
57.160       387
57.170       400
57.180       440
57.190       420
57.200       320
57.210       466
57.220       453
57.230       460
57.240       413
57.250       327
57.260       387
57.270       413
57.280       327
57.290       360
57.300       333
57.310       340
57.320       313
57.330       313
57.340       400
57.350       307
57.360       340
57.370       393
57.380       387
57.390       426
57.400       413
57.410       407
57.420       407
57.430       433
57.440       307
57.450       327
57.460       367
57.470       420
57.480       367
57.490       367
57.500       333
57.510       506
57.520       353
57.530       380
57.540       426
57.550       400
57.560       307
57.570       327
57.580       380
57.590       387
57.600       307
57.610       400
57.620       287
57.630       413
57.640       400
57.650       333
57.660       340
57.670       253
57.680       320
57.690       280
57.700       307
57.710       373
57.720       260
57.730       280
57.740       313
57.750       273
57.760       347
57.770       367
57.780       307
57.790       307
57.800       407
57.810       327
57.820       353
57.830       327
57.840       347
57.850       353
57.860       320
57.870       387
57.880       400
57.890       320
57.900       400
57.910       353
57.920       333
57.930       393
57.940       327
57.950       433
57.960       333
57.970       373
57.980       380
57.990       260
58.000       327
58.010       313
58.020       313
58.030       300
58.040       307
58.050       347
58.060       360
58.070       380
58.080       393
58.090       293
58.100       293
58.110       240
58.120       320
58.130       320
58.140       307
58.150       300
58.160       387
58.170       367
58.180       300
58.190       287
58.200       420
58.210       327
58.220       327
58.230       320
58.240       340
58.250       380
58.260       440
58.270       293
58.280       333
58.290       300
58.300       220
58.310       360
58.320       293
58.330       300
58.340       387
58.350       347
58.360       500
58.370       327
58.380       360
58.390       320
58.400       307
58.410       267
58.420       313
58.430       300
58.440       327
58.450       300
58.460       247
58.470       327
58.480       367
58.490       393
58.500       247
58.510       313
58.520       407
58.530       313
58.540       347
58.550       260
58.560       347
58.570       387
58.580       320
58.590       273
58.600       327
58.610       253
58.620       293
58.630       280
58.640       273
58.650       300
58.660       313
58.670       387
58.680       273
58.690       327
58.700       327
58.710       380
58.720       293
58.730       260
58.740       327
58.750       287
58.760       253
58.770       293
58.780       353
58.790       267
58.800       353
58.810       307
58.820       240
58.830       260
58.840       260
58.850       293
58.860       300
58.870       333
58.880       293
58.890       333
58.900       247
58.910       300
58.920       207
58.930       260
58.940       313
58.950       287
58.960       260
58.970       360
58.980       360
58.990       213
59.000       327
59.010       287
59.020       307
59.030       307
59.040       313
59.050       287
59.060       253
59.070       267
59.080       340
59.090       213
59.100       313
59.110       327
59.120       340
59.130       260
59.140       293
59.150       340
59.160       320
59.170       327
59.180       307
59.190       360
59.200       273
59.210       353
59.220       293
59.230       360
59.240       247
59.250       320
59.260       293
59.270       240
59.280       280
59.290       313
59.300       340
59.310       240
59.320       340
59.330       280
59.340       287
59.350       267
59.360       287
59.370       307
59.380       253
59.390       300
59.400       280
59.410       307
59.420       340
59.430       200
59.440       240
59.450       300
59.460       253
59.470       213
59.480       313
59.490       267
59.500       213
59.510       260
59.520       213
59.530       227
59.540       273
59.550       247
59.560       333
59.570       280
59.580       293
59.590       220
59.600       280
59.610       280
59.620       247
59.630       280
59.640       307
59.650       267
59.660       220
59.670       373
59.680       293
59.690       280
59.700       307
59.710       373
59.720       247
59.730       220
59.740       200
59.750       380
59.760       253
59.770       233
59.780       233
59.790       227
59.800       327
59.810       380
59.820       280
59.830       307
59.840       340
59.850       320
59.860       273
59.870       293
59.880       247
59.890       320
59.900       373
59.910       220
59.920       240
59.930       287
59.940       313
59.950       260
59.960       267
59.970       200
59.980       267
59.990       220
60.000       220
