20.000        87
20.010       107
20.020        67
20.030        27
20.040        53
20.050        93
20.060        73
20.070        87
20.080       107
20.090        80
20.100        93
20.110        80
20.120       100
20.130        73
20.140        47
20.150        33
20.160        87
20.170        53
20.180        60
20.190        93
20.200        87
20.210        87
20.220       113
20.230        53
20.240       133
20.250        93
20.260        20
20.270        20
20.280        87
20.290       107
20.300        53
20.310       113
20.320       133
20.330        73
20.340        53
20.350       107
20.360        67
20.370       107
20.380        53
20.390       100
20.400        40
20.410        87
20.420        93
20.430        93
20.440        73
20.450        87
20.460        87
20.470        73
20.480        60
20.490        73
20.500        67
20.510        67
20.520        60
20.530        93
20.540        53
20.550       120
20.560       113
20.570        53
20.580        87
20.590        87
20.600       113
20.610        60
20.620        73
20.630        93
20.640        53
20.650       100
20.660        73
20.670        67
20.680        47
20.690       100
20.700        67
20.710        80
20.720       127
20.730        53
20.740        73
20.750        53
20.760        53
20.770       100
20.780        87
20.790       127
20.800        60
20.810        80
20.820       160
20.830       107
20.840        80
20.850        67
20.860        73
20.870       100
20.880       113
20.890       167
20.900        47
20.910       100
20.920        80
20.930       120
20.940        60
20.950        93
20.960       113
20.970        93
20.980       127
20.990       127
21.000        80
21.010       100
21.020       107
21.030       100
21.040        40
21.050        93
21.060       100
21.070        67
21.080        87
21.090        80
21.100       113
21.110       127
21.120        60
21.130       147
21.140        80
21.150        67
21.160       113
21.170       160
21.180       120
21.190        73
21.200        87
21.210       167
21.220        53
21.230       167
21.240        53
21.250        93
21.260       100
21.270       107
21.280       133
21.290       120
21.300        93
21.310       113
21.320       160
21.330       120
21.340       160
21.350       107
21.360        93
21.370        87
21.380       153
21.390       167
21.400       107
21.410       100
21.420       147
21.430       153
21.440       107
21.450       153
21.460       133
21.470       147
21.480       133
21.490       127
21.500       167
21.510       113
21.520       120
21.530       147
21.540        87
21.550        73
21.560       140
21.570       133
21.580       100
21.590       127
21.600       120
21.610        80
21.620        80
21.630        87
21.640       153
21.650        87
21.660        60
21.670       133
21.680       153
21.690       113
21.700       133
21.710       133
21.720       120
21.730       133
21.740       133
21.750       113
21.760       133
21.770       180
21.780       167
21.790       180
21.800       127
21.810       133
21.820       160
21.830       107
21.840       160
21.850       147
21.860       107
21.870       120
21.880       120
21.890        73
21.900       173
21.910       120
21.920       140
21.930        93
21.940       100
21.950        73
21.960       173
21.970       120
21.980        93
21.990       207
22.000       127
22.010       100
22.020       153
22.030       160
22.040       107
22.050       160
22.060       180
22.070       127
22.080       147
22.090       153
22.100       160
22.110       133
22.120       173
22.130       127
22.140       140
22.150       140
22.160       127
22.170       127
22.180       160
22.190       133
22.200       193
22.210       127
22.220       147
22.230       140
22.240       180
22.250       180
22.260       127
22.270       173
22.280       167
22.290       140
22.300       167
22.310       193
22.320       153
22.330       120
22.340        80
22.350       180
22.360       167
22.370       193
22.380       207
22.390       153
22.400        87
22.410       140
22.420       160
22.430       127
22.440       120
22.450       120
22.460       153
22.470       173
22.480       140
22.490       133
22.500       227
22.510       120
22.520       153
22.530       153
22.540       147
22.550       120
22.560       193
22.570       140
22.580       180
22.590       140
22.600       147
22.610       187
22.620       147
22.630       193
22.640       107
22.650       167
22.660       133
22.670       160
22.680       127
22.690       267
22.700       133
22.710       153
22.720       173
22.730       160
22.740       173
22.750       193
22.760       127
22.770       200
22.780       160
22.790       227
22.800       160
22.810       187
22.820       220
22.830       233
22.840       227
22.850       200
22.860       193
22.870       213
22.880       193
22.890       253
22.900       167
22.910       187
22.920       227
22.930       240
22.940       213
22.950       260
22.960       200
22.970       233
22.980       227
22.990       233
23.000       313
23.010       280
23.020       347
23.030       367
23.040       593
23.050       780
23.060      1106
23.070      1293
23.080      1566
23.090      1279
23.100      1140
23.110      1080
23.120       873
23.130       686
23.140       393
23.150       367
23.160       300
23.170       313
23.180       313
23.190       320
23.200       393
23.210       287
23.220       253
23.230       327
23.240       240
23.250       193
23.260       260
23.270       153
23.280       233
23.290       213
23.300       280
23.310       207
23.320       260
23.330       207
23.340       293
23.350       247
23.360       120
23.370       187
23.380       233
23.390       160
23.400       233
23.410       207
23.420       213
23.430       187
23.440       260
23.450       187
23.460       227
23.470       220
23.480       160
23.490       180
23.500       147
23.510       247
23.520       193
23.530       220
23.540       253
23.550       247
23.560       193
23.570       267
23.580       213
23.590       200
23.600       220
23.610       247
23.620       180
23.630       280
23.640       220
23.650       187
23.660       240
23.670       287
23.680       253
23.690       267
23.700       213
23.710       293
23.720       167
23.730       180
23.740       260
23.750       207
23.760       240
23.770       167
23.780       273
23.790       233
23.800       247
23.810       220
23.820       200
23.830       227
23.840       200
23.850       287
23.860       273
23.870       220
23.880       167
23.890       287
23.900       180
23.910       240
23.920       173
23.930       180
23.940       240
23.950       207
23.960       180
23.970       180
23.980       293
23.990       233
24.000       227
24.010       220
24.020       220
24.030       260
24.040       240
24.050       207
24.060       187
24.070       220
24.080       233
24.090       240
24.100       240
24.110       247
24.120       193
24.130       213
24.140       180
24.150       227
24.160       247
24.170       293
24.180       267
24.190       207
24.200       220
24.210       260
24.220       200
24.230       227
24.240       293
24.250       220
24.260       200
24.270       240
24.280       293
24.290       247
24.300       213
24.310       213
24.320       200
24.330       240
24.340       240
24.350       253
24.360       167
24.370       260
24.380       220
24.390       233
24.400       213
24.410       267
24.420       187
24.430       187
24.440       247
24.450       273
24.460       253
24.470       207
24.480       293
24.490       240
24.500       213
24.510       233
24.520       207
24.530       280
24.540       220
24.550       200
24.560       307
24.570       207
24.580       240
24.590       200
24.600       280
24.610       327
24.620       267
24.630       260
24.640       280
24.650       240
24.660       253
24.670       340
24.680       433
24.690       360
24.700       466
24.710       513
24.720       700
24.730       613
24.740       720
24.750       773
24.760       593
24.770       793
24.780       733
24.790       773
24.800       633
24.810       720
24.820       686
24.830       860
24.840       886
24.850       793
24.860       846
24.870       740
24.880       806
24.890       986
24.900       840
24.910       760
24.920       613
24.930       686
24.940       706
24.950       786
24.960       753
24.970       633
24.980       726
24.990       740
25.000       700
25.010       686
25.020       593
25.030       680
25.040       773
25.050       706
25.060       726
25.070       706
25.080       733
25.090       866
25.100       806
25.110       833
25.120       606
25.130       646
25.140       726
25.150       773
25.160       853
25.170       840
25.180       733
25.190       820
25.200       800
25.210       860
25.220       706
25.230       726
25.240       866
25.250       833
25.260       953
25.270      1033
25.280       746
25.290       880
25.300       893
25.310       886
25.320      1000
25.330       960
25.340       966
25.350      1133
25.360      1066
25.370      1220
25.380      1246
25.390      1233
25.400      1719
25.410      1573
25.420      1886
25.430      2692
25.440      2879
25.450      3725
25.460      4238
25.470      5005
25.480      5604
25.490      6684
25.500      7224
25.510      8457
25.520     10716
25.530     17460
25.540     34699
25.550     64041
25.560     96448
25.570    123244
25.580    139264
25.590    144029
25.600    147541
25.610    144582
25.620    135113
25.630    119426
25.640    104385
25.650     94962
25.660     88631
25.670     84886
25.680     74510
25.690     57310
25.700     38698
25.710     24504
25.720     16307
25.730     11942
25.740     10876
25.750      9170
25.760      8390
25.770      7071
25.780      5931
25.790      5158
25.800      4138
25.810      3572
25.820      3459
25.830      2779
25.840      2286
25.850      1973
25.860      1573
25.870      1526
25.880      1226
25.890      1213
25.900      1226
25.910      1246
25.920      1000
25.930      1033
25.940      1060
25.950       973
25.960       873
25.970      1026
25.980       906
25.990       953
26.000       926
26.010       873
26.020       893
26.030       733
26.040       846
26.050       833
26.060       833
26.070       733
26.080       740
26.090       786
26.100       826
26.110      1006
26.120       866
26.130       666
26.140       680
26.150       733
26.160       813
26.170       720
26.180       686
26.190       726
26.200       680
26.210       680
26.220       813
26.230       740
26.240       586
26.250       580
26.260       613
26.270       653
26.280       640
26.290       773
26.300       700
26.310       506
26.320       646
26.330       686
26.340       746
26.350       760
26.360       693
26.370       713
26.380       493
26.390       633
26.400       766
26.410       600
26.420       713
26.430       573
26.440       680
26.450       620
26.460       680
26.470       606
26.480       726
26.490       506
26.500       593
26.510       526
26.520       500
26.530       606
26.540       653
26.550       633
26.560       533
26.570       553
26.580       700
26.590       660
26.600       566
26.610       653
26.620       646
26.630       646
26.640       646
26.650       533
26.660       600
26.670       533
26.680       713
26.690       693
26.700       580
26.710       600
26.720       506
26.730       553
26.740       640
26.750       686
26.760       526
26.770       540
26.780       653
26.790       473
26.800       526
26.810       540
26.820       586
26.830       493
26.840       700
26.850       540
26.860       646
26.870       573
26.880       580
26.890       520
26.900       506
26.910       606
26.920       520
26.930       546
26.940       560
26.950       700
26.960       480
26.970       500
26.980       573
26.990       553
27.000       480
27.010       486
27.020       666
27.030       560
27.040       493
27.050       440
27.060       580
27.070       473
27.080       620
27.090       586
27.100       606
27.110       593
27.120       593
27.130       520
27.140       440
27.150       486
27.160       526
27.170       520
27.180       600
27.190       500
27.200       640
27.210       600
27.220       560
27.230       613
27.240       513
27.250       573
27.260       513
27.270       593
27.280       480
27.290       620
27.300       473
27.310       486
27.320       593
27.330       526
27.340       500
27.350       513
27.360       546
27.370       500
27.380       453
27.390       580
27.400       400
27.410       373
27.420       486
27.430       480
27.440       393
27.450       413
27.460       433
27.470       586
27.480       540
27.490       553
27.500       533
27.510       420
27.520       560
27.530       407
27.540       360
27.550       553
27.560       413
27.570       460
27.580       460
27.590       360
27.600       500
27.610       526
27.620       420
27.630       460
27.640       440
27.650       446
27.660       460
27.670       373
27.680       526
27.690       460
27.700       533
27.710       466
27.720       493
27.730       513
27.740       493
27.750       600
27.760       407
27.770       353
27.780       426
27.790       446
27.800       400
27.810       453
27.820       407
27.830       466
27.840       566
27.850       500
27.860       526
27.870       486
27.880       520
27.890       546
27.900       520
27.910       440
27.920       433
27.930       440
27.940       420
27.950       367
27.960       446
27.970       360
27.980       486
27.990       493
28.000       420
28.010       407
28.020       347
28.030       387
28.040       486
28.050       413
28.060       486
28.070       466
28.080       347
28.090       513
28.100       367
28.110       393
28.120       553
28.130       393
28.140       300
28.150       440
28.160       460
28.170       393
28.180       426
28.190       400
28.200       433
28.210       460
28.220       400
28.230       573
28.240       460
28.250       446
28.260       407
28.270       340
28.280       526
28.290       400
28.300       446
28.310       480
28.320       400
28.330       466
28.340       360
28.350       486
28.360       426
28.370       420
28.380       460
28.390       407
28.400       367
28.410       480
28.420       453
28.430       333
28.440       453
28.450       387
28.460       407
28.470       546
28.480       466
28.490       440
28.500       393
28.510       327
28.520       340
28.530       340
28.540       420
28.550       453
28.560       373
28.570       473
28.580       313
28.590       413
28.600       400
28.610       446
28.620       426
28.630       407
28.640       480
28.650       373
28.660       500
28.670       380
28.680       400
28.690       387
28.700       486
28.710       420
28.720       367
28.730       387
28.740       407
28.750       433
28.760       393
28.770       373
28.780       347
28.790       400
28.800       373
28.810       360
28.820       373
28.830       360
28.840       453
28.850       407
28.860       353
28.870       387
28.880       387
28.890       480
28.900       446
28.910       373
28.920       347
28.930       353
28.940       446
28.950       387
28.960       380
28.970       327
28.980       380
28.990       353
29.000       407
29.010       320
29.020       400
29.030       300
29.040       347
29.050       353
29.060       407
29.070       400
29.080       387
29.090       333
29.100       267
29.110       373
29.120       393
29.130       387
29.140       360
29.150       426
29.160       453
29.170       313
29.180       393
29.190       333
29.200       413
29.210       380
29.220       400
29.230       353
29.240       453
29.250       373
29.260       440
29.270       420
29.280       440
29.290       440
29.300       480
29.310       420
29.320       446
29.330       460
29.340       420
29.350       400
29.360       493
29.370       540
29.380       460
29.390       526
29.400       560
29.410       613
29.420       660
29.430       486
29.440       440
29.450       433
29.460       440
29.470       400
29.480       440
29.490       426
29.500       440
29.510       320
29.520       400
29.530       373
29.540       420
29.550       327
29.560       453
29.570       373
29.580       446
29.590       360
29.600       300
29.610       360
29.620       440
29.630       433
29.640       333
29.650       353
29.660       407
29.670       367
29.680       400
29.690       367
29.700       313
29.710       380
29.720       313
29.730       367
29.740       247
29.750       380
29.760       433
29.770       347
29.780       387
29.790       393
29.800       293
29.810       273
29.820       387
29.830       200
29.840       287
29.850       287
29.860       353
29.870       327
29.880       307
29.890       420
29.900       213
29.910       347
29.920       440
29.930       280
29.940       360
29.950       267
29.960       393
29.970       380
29.980       353
29.990       307
30.000       380
30.010       347
30.020       420
30.030       393
30.040       320
30.050       213
30.060       300
30.070       320
30.080       387
30.090       253
30.100       340
30.110       313
30.120       333
30.130       367
30.140       347
30.150       387
30.160       353
30.170       293
30.180       240
30.190       347
30.200       333
30.210       287
30.220       247
30.230       333
30.240       367
30.250       280
30.260       373
30.270       320
30.280       247
30.290       307
30.300       287
30.310       333
30.320       353
30.330       333
30.340       287
30.350       253
30.360       307
30.370       307
30.380       307
30.390       407
30.400       247
30.410       333
30.420       260
30.430       300
30.440       293
30.450       253
30.460       353
30.470       293
30.480       280
30.490       240
30.500       287
30.510       367
30.520       267
30.530       420
30.540       320
30.550       353
30.560       373
30.570       360
30.580       313
30.590       233
30.600       367
30.610       227
30.620       240
30.630       347
30.640       353
30.650       247
30.660       247
30.670       333
30.680       213
30.690       287
30.700       260
30.710       273
30.720       320
30.730       293
30.740       260
30.750       360
30.760       407
30.770       160
30.780       260
30.790       293
30.800       200
30.810       333
30.820       233
30.830       307
30.840       227
30.850       340
30.860       207
30.870       247
30.880       293
30.890       300
30.900       353
30.910       260
30.920       253
30.930       193
30.940       260
30.950       327
30.960       313
30.970       353
30.980       313
30.990       347
31.000       293
31.010       273
31.020       227
31.030       327
31.040       260
31.050       240
31.060       253
31.070       327
31.080       213
31.090       313
31.100       313
31.110       240
31.120       300
31.130       327
31.140       307
31.150       307
31.160       293
31.170       280
31.180       267
31.190       280
31.200       240
31.210       233
31.220       253
31.230       260
31.240       273
31.250       293
31.260       207
31.270       233
31.280       327
31.290       267
31.300       220
31.310       253
31.320       267
31.330       220
31.340       253
31.350       233
31.360       193
31.370       180
31.380       373
31.390       267
31.400       260
31.410       180
31.420       253
31.430       220
31.440       253
31.450       267
31.460       327
31.470       240
31.480       180
31.490       193
31.500       193
31.510       260
31.520       207
31.530       220
31.540       247
31.550       227
31.560       193
31.570       293
31.580       307
31.590       333
31.600       253
31.610       267
31.620       213
31.630       227
31.640       287
31.650       253
31.660       233
31.670       280
31.680       227
31.690       213
31.700       300
31.710       193
31.720       207
31.730       273
31.740       260
31.750       253
31.760       227
31.770       280
31.780       227
31.790       280
31.800       213
31.810       247
31.820       260
31.830       327
31.840       207
31.850       287
31.860       300
31.870       267
31.880       253
31.890       273
31.900       280
31.910       273
31.920       280
31.930       247
31.940       280
31.950       280
31.960       273
31.970       260
31.980       253
31.990       247
32.000       233
32.010       253
32.020       260
32.030       193
32.040       240
32.050       200
32.060       180
32.070       280
32.080       220
32.090       233
32.100       153
32.110       220
32.120       100
32.130       287
32.140       173
32.150       273
32.160       220
32.170       287
32.180       220
32.190       213
32.200       193
32.210       207
32.220       187
32.230       240
32.240       173
32.250       147
32.260       227
32.270       287
32.280       193
32.290       247
32.300       140
32.310       180
32.320       220
32.330       200
32.340       213
32.350       213
32.360       267
32.370       240
32.380       273
32.390       200
32.400       180
32.410       227
32.420       227
32.430       227
32.440       180
32.450       287
32.460       280
32.470       207
32.480       193
32.490       287
32.500       227
32.510       207
32.520       253
32.530       193
32.540       213
32.550       213
32.560       160
32.570       207
32.580       180
32.590       160
32.600       240
32.610       193
32.620       180
32.630       300
32.640       233
32.650       200
32.660       227
32.670       173
32.680       207
32.690       167
32.700       267
32.710       200
32.720       167
32.730       213
32.740       167
32.750       200
32.760       227
32.770       207
32.780       160
32.790       173
32.800       187
32.810       253
32.820       140
32.830       233
32.840       187
32.850       147
32.860       233
32.870       167
32.880       187
32.890       240
32.900       147
32.910       240
32.920       140
32.930       253
32.940       167
32.950       153
32.960       187
32.970       160
32.980       193
32.990       173
33.000       147
33.010       213
33.020       200
33.030       173
33.040       213
33.050       187
33.060       267
33.070       180
33.080       227
33.090       167
33.100       273
33.110       187
33.120       193
33.130       160
33.140       213
33.150       187
33.160       180
33.170       173
33.180       140
33.190       160
33.200       180
33.210       133
33.220       127
33.230       160
33.240       200
33.250       187
33.260       180
33.270       207
33.280       193
33.290       173
33.300       180
33.310       133
33.320       193
33.330       200
33.340       200
33.350       140
33.360       167
33.370       153
33.380       173
33.390       200
33.400       167
33.410       180
33.420       140
33.430       253
33.440       127
33.450       180
33.460       167
33.470       147
33.480       140
33.490       187
33.500       233
33.510       140
33.520       193
33.530       200
33.540       133
33.550       160
33.560       147
33.570       173
33.580       207
33.590       173
33.600       153
33.610       167
33.620       153
33.630       167
33.640       147
33.650       107
33.660       140
33.670       100
33.680       147
33.690        73
33.700       133
33.710       160
33.720       213
33.730       113
33.740       167
33.750       173
33.760       153
33.770       113
33.780       187
33.790       173
33.800       173
33.810       160
33.820       140
33.830       193
33.840       173
33.850       113
33.860       153
33.870       187
33.880       160
33.890        93
33.900       127
33.910       133
33.920       127
33.930       153
33.940       100
33.950       127
33.960       140
33.970       140
33.980       187
33.990        87
34.000       153
34.010       167
34.020       140
34.030       127
34.040       107
34.050       120
34.060       167
34.070       153
34.080       200
34.090       153
34.100       173
34.110       173
34.120       187
34.130       140
34.140       120
34.150       160
34.160       167
34.170       140
34.180       127
34.190       140
34.200       140
34.210       153
34.220       233
34.230       153
34.240       233
34.250       227
34.260       133
34.270       147
34.280       160
34.290       173
34.300       187
34.310       193
34.320       167
34.330       140
34.340       207
34.350       153
34.360       160
34.370       180
34.380       153
34.390       113
34.400       120
34.410       120
34.420       160
34.430       107
34.440       153
34.450       133
34.460       160
34.470       193
34.480       167
34.490       120
34.500        80
34.510       100
34.520       187
34.530       160
34.540       120
34.550       173
34.560       127
34.570       153
34.580       160
34.590       133
34.600       127
34.610       147
34.620       187
34.630       160
34.640       140
34.650        73
34.660       240
34.670       167
34.680       193
34.690       113
34.700       180
34.710       113
34.720       180
34.730       147
34.740       160
34.750       160
34.760       153
34.770       153
34.780        87
34.790       140
34.800       100
34.810       187
34.820       173
34.830       113
34.840       127
34.850       153
34.860       140
34.870       147
34.880       153
34.890       127
34.900       187
34.910       127
34.920       120
34.930       160
34.940       113
34.950       120
34.960       120
34.970       133
34.980       140
34.990       120
35.000       160
35.010       127
35.020       133
35.030        73
35.040       200
35.050       107
35.060        93
35.070       113
35.080       107
35.090       140
35.100       180
35.110       160
35.120       107
35.130       127
35.140       140
35.150       133
35.160        73
35.170       107
35.180       140
35.190       107
35.200       133
35.210       127
35.220       140
35.230       140
35.240       160
35.250       120
35.260       120
35.270       133
35.280       140
35.290       120
35.300       173
35.310       100
35.320        87
35.330       147
35.340       147
35.350       153
35.360       113
35.370        93
35.380       147
35.390       120
35.400       113
35.410       160
35.420       113
35.430       107
35.440        80
35.450       120
35.460       127
35.470       120
35.480        60
35.490       127
35.500       140
35.510       173
35.520       107
35.530       147
35.540       153
35.550       127
35.560       100
35.570       167
35.580       100
35.590       147
35.600       160
35.610       100
35.620       127
35.630        87
35.640       160
35.650       107
35.660       113
35.670        87
35.680       160
35.690       133
35.700       113
35.710        73
35.720        93
35.730        73
35.740       127
35.750       120
35.760        60
35.770       120
35.780       167
35.790        93
35.800        87
35.810       153
35.820       120
35.830       147
35.840       100
35.850        80
35.860       173
35.870       160
35.880       107
35.890       140
35.900       153
35.910        67
35.920        73
35.930       180
35.940       193
35.950        87
35.960       160
35.970       100
35.980       147
35.990        87
36.000       113
36.010       113
36.020       127
36.030       187
36.040       167
36.050       173
36.060       107
36.070       113
36.080       113
36.090       100
36.100       140
36.110       120
36.120        60
36.130        93
36.140       107
36.150       107
36.160       147
36.170       120
36.180        87
36.190        73
36.200       100
36.210       147
36.220       153
36.230        93
36.240       100
36.250       147
36.260       160
36.270        93
36.280       100
36.290        93
36.300       113
36.310       107
36.320        93
36.330       140
36.340        87
36.350       147
36.360       113
36.370        87
36.380        93
36.390       107
36.400        93
36.410        73
36.420       127
36.430        87
36.440       160
36.450       107
36.460       120
36.470       140
36.480       127
36.490        87
36.500        93
36.510       113
36.520        80
36.530        73
36.540        93
36.550       107
36.560       120
36.570        80
36.580       147
36.590       127
36.600       127
36.610       100
36.620       113
36.630       120
36.640       107
36.650        73
36.660       127
36.670        87
36.680       100
36.690        93
36.700        80
36.710       107
36.720        93
36.730       120
36.740       107
36.750       107
36.760        93
36.770        80
36.780       100
36.790       100
36.800        67
36.810       100
36.820       133
36.830        67
36.840        73
36.850        53
36.860       147
36.870       100
36.880        73
36.890       120
36.900       113
36.910       113
36.920       120
36.930        73
36.940       120
36.950        87
36.960       107
36.970       107
36.980       120
36.990        87
37.000       120
37.010        60
37.020        93
37.030       100
37.040        60
37.050        80
37.060        73
37.070        87
37.080        93
37.090       120
37.100       140
37.110        93
37.120        80
37.130        93
37.140       113
37.150       113
37.160        93
37.170        93
37.180        67
37.190        80
37.200       113
37.210       113
37.220        67
37.230        93
37.240        87
37.250        87
37.260       113
37.270       133
37.280        80
37.290        87
37.300        80
37.310       120
37.320        73
37.330        73
37.340        87
37.350        73
37.360        93
37.370        73
37.380       127
37.390        80
37.400       133
37.410        87
37.420       140
37.430        93
37.440        80
37.450       120
37.460        53
37.470       133
37.480        87
37.490       113
37.500        67
37.510       100
37.520       127
37.530       120
37.540       127
37.550        80
37.560        73
37.570       113
37.580        67
37.590        67
37.600        67
37.610        87
37.620        87
37.630       100
37.640       113
37.650       107
37.660        80
37.670       100
37.680       140
37.690        87
37.700       107
37.710        80
37.720        60
37.730        80
37.740       107
37.750        67
37.760        80
37.770        73
37.780       100
37.790       113
37.800        73
37.810        87
37.820        80
37.830        53
37.840        60
37.850        67
37.860        87
37.870        60
37.880        60
37.890        87
37.900       127
37.910        73
37.920        80
37.930        87
37.940        93
37.950        93
37.960        93
37.970        67
37.980        93
37.990        93
38.000        93
38.010        93
38.020        60
38.030        53
38.040        67
38.050       107
38.060        67
38.070       107
38.080       100
38.090        80
38.100        80
38.110       113
38.120        60
38.130       127
38.140        87
38.150       107
38.160       107
38.170        53
38.180        87
38.190       127
38.200        67
38.210        53
38.220        53
38.230        53
38.240        67
38.250        73
38.260        93
38.270        93
38.280        73
38.290       100
38.300        60
38.310       133
38.320       100
38.330       107
38.340        67
38.350        87
38.360       107
38.370        47
38.380       120
38.390       127
38.400        53
38.410        93
38.420        87
38.430        93
38.440        60
38.450        60
38.460        40
38.470        80
38.480        93
38.490        93
38.500        67
38.510        87
38.520        73
38.530        60
38.540       107
38.550       100
38.560        87
38.570        87
38.580        67
38.590       100
38.600        87
38.610       100
38.620        80
38.630        67
38.640        87
38.650        93
38.660        93
38.670        60
38.680        53
38.690        60
38.700       120
38.710        80
38.720        67
38.730       100
38.740        80
38.750        33
38.760       100
38.770        60
38.780        60
38.790       100
38.800        80
38.810        73
38.820        73
38.830        93
38.840       100
38.850        47
38.860        93
38.870        87
38.880        60
38.890        93
38.900        53
38.910        60
38.920        87
38.930        67
38.940        40
38.950        67
38.960       107
38.970        73
38.980        80
38.990       100
39.000        73
39.010        67
39.020        80
39.030        53
39.040        27
39.050       120
39.060        67
39.070        47
39.080        80
39.090        73
39.100       113
39.110       120
39.120        80
39.130       120
39.140       107
39.150        93
39.160       107
39.170        87
39.180       160
39.190       140
39.200       113
39.210       133
39.220       153
39.230       107
39.240       127
39.250       113
39.260       173
39.270       100
39.280       140
39.290       193
39.300       107
39.310       140
39.320       147
39.330       140
39.340       100
39.350       153
39.360       113
39.370       153
39.380       100
39.390       107
39.400       107
39.410        93
39.420       160
39.430        80
39.440       113
39.450       147
39.460        93
39.470       100
39.480       107
39.490       107
39.500        93
39.510       107
39.520       107
39.530        87
39.540        73
39.550       100
39.560        93
39.570        47
39.580       100
39.590       100
39.600        53
39.610        60
39.620       100
39.630       120
39.640        73
39.650        93
39.660        53
39.670        53
39.680        20
39.690       133
39.700        60
39.710        60
39.720        40
39.730        60
39.740       100
39.750        73
39.760        93
39.770        60
39.780        93
39.790        93
39.800        60
39.810        53
39.820        93
39.830        73
39.840        93
39.850        87
39.860       107
39.870        60
39.880        47
39.890        87
39.900        80
39.910        67
39.920        80
39.930         7
39.940        53
39.950        60
39.960        53
39.970        53
39.980        93
39.990        93
40.000        87
40.010        87
40.020        27
40.030        73
40.040        53
40.050       107
40.060        73
40.070        60
40.080        67
40.090        40
40.100        73
40.110        33
40.120       107
40.130        67
40.140        53
40.150        47
40.160        73
40.170        93
40.180        60
40.190        60
40.200        93
40.210        80
40.220        67
40.230        80
40.240        93
40.250        80
40.260        53
40.270        27
40.280        60
40.290        47
40.300        53
40.310        40
40.320        53
40.330        60
40.340        40
40.350        73
40.360        80
40.370        73
40.380        93
40.390        80
40.400       107
40.410        67
40.420        80
40.430        47
40.440        87
40.450       100
40.460        93
40.470        53
40.480        73
40.490        47
40.500        67
40.510        67
40.520        80
40.530        73
40.540       100
40.550        47
40.560        60
40.570       100
40.580        40
40.590        47
40.600        47
40.610        47
40.620        93
40.630        60
40.640        80
40.650        53
40.660        80
40.670        33
40.680        47
40.690        87
40.700        67
40.710        87
40.720        53
40.730        73
40.740        33
40.750        47
40.760        53
40.770        40
40.780        73
40.790        67
40.800        40
40.810        60
40.820        40
40.830        73
40.840        87
40.850        73
40.860        80
40.870        80
40.880        73
40.890        60
40.900        40
40.910        93
40.920        33
40.930        53
40.940        53
40.950        73
40.960        53
40.970        33
40.980        20
40.990        40
41.000        27
41.010        67
41.020        80
41.030        60
41.040        53
41.050        87
41.060        93
41.070        47
41.080        67
41.090        60
41.100        33
41.110        80
41.120        93
41.130        53
41.140        40
41.150        53
41.160        47
41.170        87
41.180        73
41.190        33
41.200        27
41.210        67
41.220        87
41.230        13
41.240        40
41.250        87
41.260        87
41.270        53
41.280        60
41.290        80
41.300        53
41.310        67
41.320        67
41.330        67
41.340        60
41.350        53
41.360        47
41.370        47
41.380        87
41.390        93
41.400        67
41.410        53
41.420        87
41.430        60
41.440        60
41.450        87
41.460        53
41.470       107
41.480        67
41.490        60
41.500        27
41.510        47
41.520        80
41.530        53
41.540        47
41.550        87
41.560        33
41.570        27
41.580        40
41.590        67
41.600        60
41.610        67
41.620        73
41.630        33
41.640        53
41.650        47
41.660        40
41.670        80
41.680        53
41.690        47
41.700        47
41.710        40
41.720        27
41.730        73
41.740        67
41.750        93
41.760        33
41.770        20
41.780        33
41.790        47
41.800        47
41.810        60
41.820        27
41.830       107
41.840        53
41.850        80
41.860        47
41.870        40
41.880        27
41.890        60
41.900        33
41.910        60
41.920        53
41.930        53
41.940        73
41.950        47
41.960        80
41.970        27
41.980        33
41.990        60
42.000        47
42.010        27
42.020        73
42.030        33
42.040        40
42.050        47
42.060        53
42.070        47
42.080        80
42.090        67
42.100        33
42.110        33
42.120        53
42.130        93
42.140        60
42.150        40
42.160        33
42.170        33
42.180        53
42.190        87
42.200        67
42.210        13
42.220        53
42.230        33
42.240        47
42.250        53
42.260        47
42.270        53
42.280        80
42.290        53
42.300        27
42.310        33
42.320        47
42.330        40
42.340        73
42.350        53
42.360        60
42.370        47
42.380        40
42.390        53
42.400        93
42.410        53
42.420        60
42.430        60
42.440        87
42.450        53
42.460        67
42.470        47
42.480        87
42.490        53
42.500        80
42.510        47
42.520        47
42.530        60
42.540        67
42.550        40
42.560        33
42.570        53
42.580        47
42.590        73
42.600        53
42.610        40
42.620        53
42.630        47
42.640        40
42.650        27
42.660        53
42.670        60
42.680        80
42.690        47
42.700        80
42.710        60
42.720        53
42.730        40
42.740        47
42.750        87
42.760        53
42.770        40
42.780        47
42.790        40
42.800        73
42.810        20
42.820        40
42.830        40
42.840        47
42.850        33
42.860        67
42.870        53
42.880        80
42.890        27
42.900        53
42.910        73
42.920        33
42.930        60
42.940        47
42.950        40
42.960        53
42.970        60
42.980        53
42.990        87
43.000       120
43.010        53
43.020        73
43.030        73
43.040        47
43.050        80
43.060        67
43.070       107
43.080        53
43.090       100
43.100        73
43.110        67
43.120        80
43.130        93
43.140        73
43.150        67
43.160        53
43.170       100
43.180       113
43.190        47
43.200        73
43.210        60
43.220        73
43.230        80
43.240       100
43.250       100
43.260        80
43.270        47
43.280        60
43.290        53
43.300        67
43.310        60
43.320        73
43.330        53
43.340        60
43.350        53
43.360        87
43.370        40
43.380        73
43.390       107
43.400        47
43.410        67
43.420        73
43.430        80
43.440        27
43.450        40
43.460        20
43.470        40
43.480        53
43.490        67
43.500        47
43.510        87
43.520        73
43.530        80
43.540        80
43.550        73
43.560        27
43.570        60
43.580        67
43.590        73
43.600        80
43.610        20
43.620        33
43.630        60
43.640        53
43.650        47
43.660        47
43.670        47
43.680        53
43.690        67
43.700        47
43.710        53
43.720        27
43.730        47
43.740        53
43.750        20
43.760        53
43.770        33
43.780        40
43.790        47
43.800        47
43.810        40
43.820        80
43.830        47
43.840        40
43.850        67
43.860        53
43.870        53
43.880       100
43.890        53
43.900        53
43.910        67
43.920        47
43.930        60
43.940        73
43.950        33
43.960        53
43.970        40
43.980        60
43.990        27
44.000        33
44.010        47
44.020        60
44.030        53
44.040        27
44.050        60
44.060        40
44.070        27
44.080        33
44.090        47
44.100        60
44.110        60
44.120        73
44.130        60
44.140        60
44.150        40
44.160        67
44.170        67
44.180        67
44.190        40
44.200        13
44.210        33
44.220        27
44.230        33
44.240        33
44.250        47
44.260        53
44.270        27
44.280        27
44.290        33
44.300        60
44.310        47
44.320        73
44.330        53
44.340        53
44.350        20
44.360        27
44.370        47
44.380        40
44.390        33
44.400        80
44.410        40
44.420       107
44.430        27
44.440        47
44.450        13
44.460        40
44.470        73
44.480        47
44.490        60
44.500        67
44.510        20
44.520        20
44.530        60
44.540        53
44.550        40
44.560        40
44.570        53
44.580        40
44.590        80
44.600        73
44.610        47
44.620        40
44.630        27
44.640        47
44.650        67
44.660        40
44.670        40
44.680        33
44.690        40
44.700        47
44.710        40
44.720        47
44.730        47
44.740        67
44.750        80
44.760        27
44.770        53
44.780        27
44.790        53
44.800        73
44.810        67
44.820        60
44.830        33
44.840        40
44.850        60
44.860        67
44.870        27
44.880        27
44.890        87
44.900        33
44.910        60
44.920        60
44.930        60
44.940        27
44.950        53
44.960        47
44.970        60
44.980        67
44.990        47
45.000        47
45.010        47
45.020        40
45.030        20
45.040        53
45.050        53
45.060        53
45.070        47
45.080        47
45.090        40
45.100        33
45.110        27
45.120        40
45.130        47
45.140        27
45.150        47
45.160        80
45.170        60
45.180        47
45.190        53
45.200        47
45.210        47
45.220        33
45.230        73
45.240        60
45.250        53
45.260        47
45.270        20
45.280        67
45.290        40
45.300        47
45.310        40
45.320        33
45.330        27
45.340        53
45.350        40
45.360        47
45.370        40
45.380        33
45.390        53
45.400        60
45.410        47
45.420        67
45.430        67
45.440        67
45.450        67
45.460        33
45.470        40
45.480        67
45.490        47
45.500        33
45.510        60
45.520        20
45.530        80
45.540        27
45.550        60
45.560        33
45.570        73
45.580        40
45.590        47
45.600        40
45.610        80
45.620        47
45.630        27
45.640        47
45.650        47
45.660        73
45.670        40
45.680        47
45.690        53
45.700        27
45.710        80
45.720        53
45.730        60
45.740        60
45.750        33
45.760        53
45.770        60
45.780        60
45.790        53
45.800        53
45.810        33
45.820        40
45.830        60
45.840        67
45.850        60
45.860        67
45.870        67
45.880        60
45.890        67
45.900        40
45.910        40
45.920        87
45.930        53
45.940        33
45.950        47
45.960        60
45.970        47
45.980        27
45.990        40
46.000        67
46.010        40
46.020        53
46.030        33
46.040        40
46.050        13
46.060        33
46.070        40
46.080        40
46.090        53
46.100        13
46.110        53
46.120        60
46.130        40
46.140        33
46.150        40
46.160        60
46.170        20
46.180        53
46.190        33
46.200        27
46.210        47
46.220        27
46.230        40
46.240        27
46.250        33
46.260        47
46.270        67
46.280        87
46.290        33
46.300        33
46.310        20
46.320        40
46.330        40
46.340        27
46.350        53
46.360        80
46.370        13
46.380        47
46.390        33
46.400        33
46.410        33
46.420        67
46.430        67
46.440        67
46.450        67
46.460        33
46.470        33
46.480        47
46.490        53
46.500        33
46.510        27
46.520        40
46.530        53
46.540        67
46.550        33
46.560        53
46.570        33
46.580        80
46.590        87
46.600        67
46.610        67
46.620        67
46.630        60
46.640        40
46.650        40
46.660        33
46.670        60
46.680        47
46.690        27
46.700        73
46.710        40
46.720        53
46.730        60
46.740        53
46.750        27
46.760        73
46.770        60
46.780        67
46.790       120
46.800       113
46.810        93
46.820       173
46.830        67
46.840       100
46.850        80
46.860        80
46.870        93
46.880        93
46.890       107
46.900        93
46.910       133
46.920        87
46.930       120
46.940        87
46.950       107
46.960       120
46.970        87
46.980       113
46.990       147
47.000       133
47.010       133
47.020        67
47.030        73
47.040       133
47.050       193
47.060       147
47.070       200
47.080       147
47.090       153
47.100       160
47.110       267
47.120       360
47.130       347
47.140       593
47.150       746
47.160       873
47.170      1106
47.180      1333
47.190      1799
47.200      1699
47.210      1693
47.220      1519
47.230      1293
47.240      1126
47.250       893
47.260       693
47.270       526
47.280       420
47.290       267
47.300       327
47.310       220
47.320       207
47.330       180
47.340       213
47.350       153
47.360       127
47.370       160
47.380       140
47.390       160
47.400       127
47.410       133
47.420       127
47.430        80
47.440       140
47.450       133
47.460       160
47.470        87
47.480        93
47.490       133
47.500       207
47.510       120
47.520        87
47.530       133
47.540       120
47.550       113
47.560       160
47.570       147
47.580       120
47.590        47
47.600        80
47.610        93
47.620        80
47.630        40
47.640        80
47.650       113
47.660        80
47.670        87
47.680        87
47.690        93
47.700       113
47.710        93
47.720        80
47.730        40
47.740        60
47.750        73
47.760        87
47.770        80
47.780        73
47.790        73
47.800        73
47.810        73
47.820        47
47.830        73
47.840        87
47.850        80
47.860        60
47.870        53
47.880        47
47.890        40
47.900        33
47.910        73
47.920        67
47.930        73
47.940        33
47.950        67
47.960       127
47.970        67
47.980        93
47.990        33
48.000        40
48.010        73
48.020        47
48.030        67
48.040        60
48.050        53
48.060        60
48.070        60
48.080        47
48.090        40
48.100        33
48.110        53
48.120        27
48.130        60
48.140       113
48.150       107
48.160        87
48.170        80
48.180        73
48.190        67
48.200        47
48.210        60
48.220        73
48.230        60
48.240        60
48.250        87
48.260        73
48.270        73
48.280        33
48.290        73
48.300        60
48.310        67
48.320        80
48.330        73
48.340        73
48.350        20
48.360        60
48.370        27
48.380        73
48.390        60
48.400       140
48.410        87
48.420        80
48.430        73
48.440       113
48.450       120
48.460       113
48.470       113
48.480        87
48.490       133
48.500       127
48.510       100
48.520       147
48.530        93
48.540       153
48.550        93
48.560        87
48.570       113
48.580        93
48.590        47
48.600        73
48.610        47
48.620        93
48.630        93
48.640        93
48.650        93
48.660       107
48.670        53
48.680        47
48.690        87
48.700       133
48.710        47
48.720        60
48.730        60
48.740        47
48.750        87
48.760        53
48.770        53
48.780        53
48.790        80
48.800        27
48.810        73
48.820        27
48.830        67
48.840        60
48.850        47
48.860        20
48.870        67
48.880        20
48.890        67
48.900        60
48.910        47
48.920        73
48.930        47
48.940        60
48.950        67
48.960        27
48.970        60
48.980        33
48.990        40
49.000        47
49.010        60
49.020        27
49.030        53
49.040        27
49.050        33
49.060        53
49.070        53
49.080        60
49.090        93
49.100        13
49.110        47
49.120        60
49.130        87
49.140        67
49.150        60
49.160        53
49.170        47
49.180        47
49.190        40
49.200        47
49.210       107
49.220        47
49.230        40
49.240        93
49.250        53
49.260        47
49.270        27
49.280        67
49.290        60
49.300        27
49.310        27
49.320        67
49.330        80
49.340        40
49.350        87
49.360        47
49.370        60
49.380        80
49.390        47
49.400        53
49.410        47
49.420        87
49.430        40
49.440        47
49.450        80
49.460        67
49.470        40
49.480        40
49.490        40
49.500        40
49.510        53
49.520        40
49.530        33
49.540        53
49.550        33
49.560        60
49.570        33
49.580        60
49.590        47
49.600        80
49.610        33
49.620        47
49.630        33
49.640        27
49.650        53
49.660        40
49.670        27
49.680        40
49.690        80
49.700        47
49.710        27
49.720        53
49.730        60
49.740        73
49.750        67
49.760        73
49.770        60
49.780        53
49.790        47
49.800        67
49.810        93
49.820        93
49.830       107
49.840        53
49.850        80
49.860        47
49.870        53
49.880        40
49.890        33
49.900        80
49.910        73
49.920        53
49.930        33
49.940        33
49.950        47
49.960        87
49.970        40
49.980        33
49.990        27
50.000        53
50.010        27
50.020        53
50.030        40
50.040        33
50.050        67
50.060        40
50.070        53
50.080        93
50.090        60
50.100        73
50.110        40
50.120        53
50.130        87
50.140        27
50.150        67
50.160        47
50.170        60
50.180        60
50.190        40
50.200        40
50.210        33
50.220        47
50.230        47
50.240        87
50.250        53
50.260        33
50.270        40
50.280        67
50.290        33
50.300        60
50.310        60
50.320        47
50.330        53
50.340        20
50.350        27
50.360        67
50.370        40
50.380       113
50.390        53
50.400        60
50.410        60
50.420        40
50.430        60
50.440        67
50.450        20
50.460        80
50.470        60
50.480        33
50.490        67
50.500        47
50.510        47
50.520        33
50.530        33
50.540        80
50.550        73
50.560        67
50.570        47
50.580        53
50.590        33
50.600        93
50.610        73
50.620        93
50.630       120
50.640       127
50.650       127
50.660       173
50.670       200
50.680       253
50.690       300
50.700       400
50.710       373
50.720       420
50.730       327
50.740       360
50.750       393
50.760       413
50.770       446
50.780       473
50.790       446
50.800       380
50.810       460
50.820       367
50.830       426
50.840       466
50.850       347
50.860       373
50.870       473
50.880       426
50.890       433
50.900       513
50.910       453
50.920       453
50.930       327
50.940       466
50.950       426
50.960       367
50.970       333
50.980       440
50.990       500
51.000       420
51.010       413
51.020       393
51.030       500
51.040       413
51.050       440
51.060       440
51.070       440
51.080       493
51.090       327
51.100       440
51.110       373
51.120       426
51.130       513
51.140       400
51.150       300
51.160       480
51.170       340
51.180       353
51.190       347
51.200       500
51.210       400
51.220       413
51.230       360
51.240       433
51.250       426
51.260       367
51.270       453
51.280       420
51.290       513
51.300       360
51.310       393
51.320       466
51.330       486
51.340       393
51.350       420
51.360       407
51.370       513
51.380       513
51.390       426
51.400       426
51.410       353
51.420       367
51.430       440
51.440       446
51.450       373
51.460       367
51.470       466
51.480       380
51.490       480
51.500       413
51.510       313
51.520       380
51.530       426
51.540       480
51.550       387
51.560       426
51.570       413
51.580       433
51.590       533
51.600       493
51.610       493
51.620       407
51.630       473
51.640       533
51.650       486
51.660       360
51.670       506
51.680       393
51.690       506
51.700       520
51.710       466
51.720       413
51.730       540
51.740       420
51.750       506
51.760       413
51.770       553
51.780       453
51.790       586
51.800       407
51.810       526
51.820       460
51.830       553
51.840       586
51.850       580
51.860       486
51.870       633
51.880       533
51.890       433
51.900       673
51.910       520
51.920       500
51.930       493
51.940       586
51.950       393
51.960       520
51.970       526
51.980       500
51.990       540
52.000       633
52.010       666
52.020       540
52.030       673
52.040       620
52.050       486
52.060       626
52.070       653
52.080       593
52.090       633
52.100       706
52.110       593
52.120       640
52.130       713
52.140       733
52.150       820
52.160       773
52.170       813
52.180       780
52.190       980
52.200       913
52.210       893
52.220      1206
52.230       946
52.240      1020
52.250      1220
52.260      1206
52.270      1586
52.280      1706
52.290      1739
52.300      1853
52.310      2279
52.320      2479
52.330      2732
52.340      2752
52.350      3039
52.360      3185
52.370      3385
52.380      3752
52.390      3632
52.400      3965
52.410      4332
52.420      4598
52.430      5438
52.440      5778
52.450      7004
52.460      8490
52.470      9856
52.480     11255
52.490     13708
52.500     15747
52.510     18832
52.520     24590
52.530     33653
52.540     50327
52.550     75876
52.560    106564
52.570    134979
52.580    154685
52.590    164941
52.600    174137
52.610    173277
52.620    163768
52.630    138731
52.640    110442
52.650     80534
52.660     59163
52.670     48707
52.680     49753
52.690     57417
52.700     69792
52.710     84546
52.720     94709
52.730    102639
52.740    105438
52.750    102706
52.760     93643
52.770     78289
52.780     61036
52.790     43349
52.800     28808
52.810     19619
52.820     14994
52.830     11742
52.840     10323
52.850      8970
52.860      7963
52.870      7210
52.880      6757
52.890      5891
52.900      4865
52.910      4025
52.920      3192
52.930      2952
52.940      2526
52.950      2053
52.960      1933
52.970      1753
52.980      1559
52.990      1653
53.000      1619
53.010      1653
53.020      1293
53.030      1306
53.040      1293
53.050      1126
53.060      1093
53.070      1293
53.080      1060
53.090      1066
53.100      1000
53.110       940
53.120       906
53.130       853
53.140       940
53.150       786
53.160       786
53.170       813
53.180       880
53.190       773
53.200       753
53.210       646
53.220       833
53.230       693
53.240       780
53.250       726
53.260       540
53.270       693
53.280       546
53.290       533
53.300       706
53.310       633
53.320       546
53.330       520
53.340       586
53.350       640
53.360       560
53.370       626
53.380       493
53.390       526
53.400       613
53.410       573
53.420       613
53.430       500
53.440       586
53.450       540
53.460       606
53.470       553
53.480       506
53.490       446
53.500       580
53.510       473
53.520       466
53.530       493
53.540       533
53.550       420
53.560       460
53.570       560
53.580       546
53.590       526
53.600       426
53.610       480
53.620       513
53.630       380
53.640       327
53.650       313
53.660       387
53.670       373
53.680       426
53.690       393
53.700       413
53.710       460
53.720       400
53.730       327
53.740       413
53.750       446
53.760       426
53.770       373
53.780       327
53.790       420
53.800       446
53.810       407
53.820       413
53.830       400
53.840       367
53.850       440
53.860       393
53.870       440
53.880       320
53.890       340
53.900       373
53.910       327
53.920       327
53.930       426
53.940       353
53.950       293
53.960       220
53.970       420
53.980       466
53.990       280
54.000       387
54.010       367
54.020       373
54.030       327
54.040       387
54.050       367
54.060       433
54.070       320
54.080       347
54.090       340
54.100       327
54.110       327
54.120       247
54.130       333
54.140       380
54.150       400
54.160       387
54.170       340
54.180       353
54.190       380
54.200       347
54.210       307
54.220       400
54.230       360
54.240       347
54.250       280
54.260       367
54.270       333
54.280       293
54.290       247
54.300       333
54.310       333
54.320       340
54.330       267
54.340       247
54.350       400
54.360       373
54.370       293
54.380       407
54.390       353
54.400       353
54.410       307
54.420       267
54.430       213
54.440       333
54.450       260
54.460       233
54.470       307
54.480       180
54.490       313
54.500       280
54.510       307
54.520       333
54.530       273
54.540       307
54.550       267
54.560       333
54.570       287
54.580       260
54.590       380
54.600       247
54.610       340
54.620       353
54.630       293
54.640       273
54.650       333
54.660       220
54.670       313
54.680       233
54.690       267
54.700       327
54.710       273
54.720       327
54.730       300
54.740       260
54.750       247
54.760       207
54.770       313
54.780       287
54.790       253
54.800       253
54.810       313
54.820       313
54.830       293
54.840       320
54.850       233
54.860       313
54.870       253
54.880       333
54.890       300
54.900       280
54.910       220
54.920       287
54.930       340
54.940       293
54.950       273
54.960       200
54.970       207
54.980       253
54.990       213
55.000       300
55.010       280
55.020       260
55.030       287
55.040       333
55.050       260
55.060       253
55.070       267
55.080       293
55.090       287
55.100       267
55.110       260
55.120       273
55.130       267
55.140       340
55.150       313
55.160       260
55.170       253
55.180       313
55.190       187
55.200       227
55.210       307
55.220       300
55.230       307
55.240       193
55.250       200
55.260       300
55.270       207
55.280       253
55.290       247
55.300       233
55.310       253
55.320       227
55.330       247
55.340       340
55.350       227
55.360       260
55.370       253
55.380       253
55.390       360
55.400       233
55.410       213
55.420       273
55.430       173
55.440       233
55.450       247
55.460       213
55.470       140
55.480       167
55.490       247
55.500       280
55.510       273
55.520       260
55.530       247
55.540       200
55.550       213
55.560       267
55.570       200
55.580       253
55.590       253
55.600       253
55.610       280
55.620       260
55.630       367
55.640       273
55.650       213
55.660       213
55.670       247
55.680       240
55.690       240
55.700       227
55.710       253
55.720       167
55.730       233
55.740       327
55.750       220
55.760       280
55.770       173
55.780       240
55.790       207
55.800       287
55.810       227
55.820       133
55.830       273
55.840       160
55.850       207
55.860       213
55.870       233
55.880       220
55.890       307
55.900       240
55.910       267
55.920       220
55.930       267
55.940       307
55.950       273
55.960       227
55.970       180
55.980       293
55.990       187
56.000       253
56.010       220
56.020       273
56.030       220
56.040       260
56.050       273
56.060       233
56.070       227
56.080       180
56.090       300
56.100       173
56.110       187
56.120       213
56.130       240
56.140       180
56.150       267
56.160       240
56.170       260
56.180       240
56.190       213
56.200       273
56.210       200
56.220       233
56.230       180
56.240       193
56.250       227
56.260       280
56.270       313
56.280       220
56.290       213
56.300       247
56.310       200
56.320       140
56.330       240
56.340       233
56.350       213
56.360       247
56.370       180
56.380       273
56.390       227
56.400       233
56.410       233
56.420       240
56.430       200
56.440       220
56.450       233
56.460       140
56.470       273
56.480       220
56.490       233
56.500       207
56.510       247
56.520       220
56.530       173
56.540       253
56.550       280
56.560       213
56.570       267
56.580       280
56.590       320
56.600       360
56.610       253
56.620       267
56.630       327
56.640       327
56.650       280
56.660       327
56.670       353
56.680       267
56.690       313
56.700       273
56.710       280
56.720       307
56.730       213
56.740       367
56.750       307
56.760       320
56.770       333
56.780       247
56.790       307
56.800       253
56.810       353
56.820       327
56.830       333
56.840       347
56.850       247
56.860       307
56.870       300
56.880       293
56.890       147
56.900       220
56.910       247
56.920       240
56.930       307
56.940       193
56.950       273
56.960       207
56.970       247
56.980       187
56.990       267
57.000       213
57.010       220
57.020       227
57.030       133
57.040       187
57.050       207
57.060       213
57.070       213
57.080       220
57.090       213
57.100       227
57.110       213
57.120       220
57.130       213
57.140       173
57.150       240
57.160       233
57.170       213
57.180       180
57.190       233
57.200       227
57.210       227
57.220       173
57.230       180
57.240       200
57.250       253
57.260       187
57.270       147
57.280       220
57.290       120
57.300       167
57.310       107
57.320       173
57.330       300
57.340       180
57.350       133
57.360       207
57.370       187
57.380       253
57.390       193
57.400       227
57.410       153
57.420       213
57.430       200
57.440       187
57.450       140
57.460       200
57.470       207
57.480       193
57.490       180
57.500       133
57.510       167
57.520       153
57.530       187
57.540       240
57.550       180
57.560       233
57.570       160
57.580       167
57.590       120
57.600       140
57.610       200
57.620       233
57.630       233
57.640       200
57.650       127
57.660       187
57.670       233
57.680       193
57.690       147
57.700       167
57.710       167
57.720       240
57.730       107
57.740       127
57.750       240
57.760       200
57.770       187
57.780       160
57.790       213
57.800       240
57.810       153
57.820       180
57.830       173
57.840       140
57.850       207
57.860       153
57.870       167
57.880       187
57.890       153
57.900       193
57.910       133
57.920       180
57.930       153
57.940       193
57.950       200
57.960       173
57.970       153
57.980       193
57.990       207
58.000       140
58.010       173
58.020       193
58.030       200
58.040       147
58.050       133
58.060       160
58.070       153
58.080       253
58.090       167
58.100       193
58.110       140
58.120       160
58.130       213
58.140       167
58.150       227
58.160       153
58.170       227
58.180       113
58.190       140
58.200       133
58.210       167
58.220       113
58.230       160
58.240       207
58.250       220
58.260       153
58.270       193
58.280       147
58.290       187
58.300       173
58.310       167
58.320       127
58.330       180
58.340       160
58.350       133
58.360       187
58.370       173
58.380       173
58.390       173
58.400       160
58.410       200
58.420       147
58.430       120
58.440       120
58.450       207
58.460       213
58.470       180
58.480       213
58.490       147
58.500       200
58.510       133
58.520       147
58.530       133
58.540       147
58.550       113
58.560       107
58.570       153
58.580       147
58.590       160
58.600       167
58.610       147
58.620       173
58.630       140
58.640       127
58.650       167
58.660       113
58.670       180
58.680       160
58.690       193
58.700       113
58.710       147
58.720       167
58.730       133
58.740       133
58.750       160
58.760       187
58.770       160
58.780       167
58.790       107
58.800       127
58.810       200
58.820       160
58.830       140
58.840       127
58.850       187
58.860       153
58.870       173
58.880       173
58.890       180
58.900       187
58.910       100
58.920       127
58.930       113
58.940       173
58.950       167
58.960       167
58.970       147
58.980       187
58.990       187
59.000       140
59.010       140
59.020       113
59.030       180
59.040       160
59.050       133
59.060       147
59.070       153
59.080       140
59.090       213
59.100       153
59.110       113
59.120       173
59.130       167
59.140       107
59.150       160
59.160        93
59.170       140
59.180       120
59.190       173
59.200       107
59.210       127
59.220       173
59.230       200
59.240       127
59.250       187
59.260       127
59.270       187
59.280       140
59.290       187
59.300       193
59.310       180
59.320       127
59.330       193
59.340       207
59.350       120
59.360       147
59.370       127
59.380       140
59.390       140
59.400       153
59.410       153
59.420        80
59.430       207
59.440       113
59.450       207
59.460       127
59.470       153
59.480       160
59.490       113
59.500        87
59.510       180
59.520       140
59.530       120
59.540       120
59.550       207
59.560       153
59.570       173
59.580       127
59.590       200
59.600       153
59.610       180
59.620       147
59.630       140
59.640       100
59.650       160
59.660       167
59.670       133
59.680       153
59.690       167
59.700       113
59.710        80
59.720       113
59.730       153
59.740       147
59.750       173
59.760       133
59.770       127
59.780        87
59.790       180
59.800        80
59.810       100
59.820       140
59.830       113
59.840       147
59.850       153
59.860       213
59.870       167
59.880       107
59.890       147
59.900       147
59.910       147
59.920       140
59.930       173
59.940       120
59.950       113
59.960        80
59.970       180
59.980       193
59.990        73
60.000        73
