20.000        20
20.010        20
20.020        33
20.030        53
20.040        33
20.050        53
20.060        40
20.070        47
20.080        60
20.090        60
20.100        13
20.110        47
20.120        40
20.130        13
20.140        67
20.150        27
20.160        33
20.170        87
20.180        40
20.190        33
20.200        13
20.210        27
20.220        40
20.230        33
20.240        40
20.250        60
20.260        20
20.270        27
20.280        47
20.290        27
20.300        53
20.310        67
20.320        53
20.330        53
20.340        40
20.350        40
20.360        33
20.370        40
20.380        53
20.390        67
20.400        60
20.410        27
20.420        47
20.430        40
20.440        20
20.450        53
20.460        53
20.470        20
20.480        33
20.490        47
20.500        20
20.510        27
20.520        20
20.530        40
20.540        27
20.550        33
20.560        47
20.570        73
20.580        60
20.590        53
20.600        27
20.610        33
20.620        27
20.630        33
20.640        40
20.650        60
20.660        60
20.670        27
20.680        40
20.690        47
20.700        60
20.710        40
20.720         7
20.730        40
20.740        33
20.750        27
20.760        53
20.770        20
20.780        47
20.790        47
20.800        53
20.810        67
20.820        33
20.830        60
20.840        47
20.850        33
20.860        13
20.870        60
20.880        40
20.890        73
20.900        20
20.910        53
20.920        40
20.930        40
20.940        33
20.950        33
20.960        40
20.970        33
20.980        40
20.990        53
21.000        47
21.010        33
21.020        73
21.030        20
21.040        13
21.050        60
21.060        60
21.070        40
21.080        40
21.090        13
21.100        53
21.110        27
21.120        13
21.130        67
21.140        53
21.150        47
21.160        33
21.170        27
21.180        40
21.190        73
21.200        47
21.210        33
21.220        47
21.230        27
21.240        20
21.250        47
21.260        47
21.270        60
21.280        40
21.290        47
21.300        47
21.310        33
21.320        40
21.330        40
21.340         7
21.350        20
21.360        40
21.370        47
21.380        27
21.390        33
21.400        33
21.410        60
21.420        40
21.430        40
21.440        13
21.450        53
21.460        33
21.470        40
21.480        27
21.490        40
21.500        33
21.510        67
21.520        60
21.530        47
21.540        13
21.550        13
21.560        47
21.570        33
21.580        47
21.590        33
21.600        27
21.610        33
21.620        40
21.630        47
21.640        60
21.650        60
21.660        27
21.670        73
21.680        40
21.690        53
21.700        27
21.710        20
21.720        27
21.730        40
21.740        20
21.750        13
21.760        60
21.770        47
21.780        53
21.790        33
21.800        47
21.810        27
21.820        13
21.830        20
21.840        40
21.850        40
21.860         7
21.870        40
21.880        53
21.890        40
21.900        27
21.910        60
21.920        33
21.930        40
21.940        33
21.950        20
21.960        27
21.970        33
21.980        73
21.990        40
22.000        33
22.010        40
22.020        20
22.030        27
22.040        20
22.050        27
22.060        33
22.070        40
22.080        67
22.090        47
22.100        20
22.110        33
22.120        13
22.130        27
22.140        47
22.150        33
22.160        13
22.170        33
22.180        27
22.190        40
22.200        40
22.210        33
22.220        47
22.230        27
22.240        20
22.250        47
22.260        53
22.270        40
22.280        67
22.290        40
22.300        20
22.310        33
22.320        53
22.330        20
22.340        47
22.350        40
22.360        27
22.370        60
22.380        40
22.390        60
22.400        33
22.410        47
22.420        47
22.430        73
22.440        33
22.450        27
22.460        47
22.470        13
22.480        53
22.490        47
22.500        53
22.510        47
22.520        27
22.530        27
22.540        33
22.550        20
22.560        40
22.570        13
22.580        40
22.590        40
22.600        27
22.610        33
22.620        67
22.630        20
22.640        13
22.650        33
22.660        20
22.670        20
22.680        40
22.690        13
22.700        40
22.710        53
22.720        27
22.730        33
22.740        27
22.750        60
22.760         7
22.770        33
22.780        27
22.790        47
22.800        33
22.810        20
22.820        53
22.830        47
22.840        33
22.850        13
22.860        33
22.870        13
22.880        33
22.890        40
22.900        33
22.910        20
22.920        40
22.930        33
22.940        47
22.950        33
22.960        40
22.970        47
22.980        40
22.990        47
23.000        60
23.010        33
23.020        40
23.030        40
23.040        40
23.050        27
23.060        40
23.070        33
23.080        47
23.090        33
23.100        33
23.110        47
23.120        27
23.130        27
23.140        33
23.150        53
23.160        27
23.170        20
23.180        60
23.190         0
23.200        53
23.210        13
23.220        13
23.230        33
23.240         7
23.250        27
23.260        40
23.270        27
23.280        40
23.290        60
23.300        67
23.310        40
23.320        27
23.330        27
23.340        33
23.350        20
23.360        40
23.370        27
23.380        40
23.390        67
23.400        20
23.410        40
23.420        20
23.430         7
23.440        20
23.450        27
23.460        47
23.470        27
23.480        60
23.490        33
23.500        13
23.510        47
23.520        13
23.530        27
23.540        27
23.550         7
23.560        33
23.570         7
23.580        53
23.590        33
23.600        27
23.610        20
23.620        27
23.630        20
23.640        13
23.650        47
23.660        60
23.670        47
23.680        53
23.690        27
23.700        40
23.710        33
23.720        27
23.730        20
23.740        73
23.750        33
23.760        33
23.770        27
23.780         7
23.790        20
23.800        27
23.810        60
23.820        33
23.830        33
23.840        53
23.850        40
23.860        13
23.870        47
23.880        67
23.890        40
23.900        27
23.910        20
23.920        40
23.930        33
23.940        13
23.950        33
23.960        40
23.970        27
23.980        47
23.990        20
24.000        27
24.010        20
24.020        13
24.030        20
24.040        27
24.050        33
24.060        27
24.070        20
24.080        40
24.090        33
24.100        33
24.110        40
24.120        47
24.130        27
24.140        60
24.150         7
24.160        47
24.170        47
24.180        20
24.190        13
24.200        33
24.210        53
24.220        20
24.230        60
24.240        20
24.250        47
24.260        13
24.270        40
24.280        13
24.290        67
24.300         7
24.310        40
24.320        20
24.330        27
24.340        47
24.350        47
24.360        13
24.370        33
24.380        47
24.390        40
24.400        47
24.410        27
24.420        13
24.430        40
24.440        33
24.450        40
24.460        40
24.470        67
24.480        13
24.490        20
24.500        47
24.510         7
24.520        20
24.530        60
24.540         7
24.550        40
24.560        67
24.570        27
24.580        33
24.590        33
24.600        33
24.610        33
24.620        27
24.630        20
24.640        20
24.650        40
24.660        40
24.670        13
24.680        40
24.690        27
24.700        33
24.710        20
24.720        27
24.730         0
24.740        47
24.750        33
24.760        60
24.770         7
24.780        20
24.790        47
24.800        13
24.810        60
24.820        40
24.830        60
24.840        33
24.850        60
24.860        20
24.870        40
24.880        40
24.890        40
24.900        47
24.910        40
24.920        27
24.930        40
24.940        40
24.950        20
24.960        27
24.970        40
24.980        13
24.990        40
25.000        40
25.010        53
25.020        47
25.030        47
25.040        40
25.050        40
25.060        40
25.070        47
25.080        47
25.090        27
25.100        27
25.110        27
25.120        27
25.130        13
25.140        47
25.150        60
25.160        40
25.170        20
25.180        27
25.190        47
25.200        20
25.210        40
25.220        27
25.230         7
25.240        33
25.250        27
25.260        20
25.270        27
25.280        27
25.290        20
25.300        40
25.310        53
25.320        53
25.330        27
25.340        33
25.350        20
25.360        33
25.370        93
25.380        80
25.390        47
25.400        53
25.410        47
25.420        60
25.430        53
25.440        73
25.450        93
25.460       133
25.470       147
25.480       140
25.490       107
25.500       113
25.510       200
25.520       273
25.530       320
25.540       400
25.550       566
25.560       506
25.570       780
25.580       733
25.590       626
25.600       780
25.610       700
25.620       660
25.630       640
25.640       553
25.650       433
25.660       400
25.670       307
25.680       380
25.690       327
25.700       200
25.710       207
25.720       120
25.730       100
25.740       100
25.750        33
25.760       120
25.770        60
25.780        40
25.790        60
25.800        60
25.810        20
25.820        40
25.830        47
25.840        53
25.850        53
25.860        27
25.870        40
25.880        27
25.890        40
25.900        40
25.910        33
25.920        40
25.930        20
25.940        47
25.950        20
25.960        13
25.970        33
25.980        33
25.990        40
26.000        13
26.010        33
26.020        27
26.030        27
26.040        27
26.050        20
26.060        40
26.070        27
26.080        27
26.090        20
26.100        33
26.110        47
26.120        27
26.130        47
26.140        27
26.150        13
26.160        33
26.170        13
26.180         7
26.190        20
26.200         7
26.210        60
26.220        40
26.230        40
26.240        33
26.250        27
26.260        13
26.270        80
26.280        40
26.290        27
26.300        27
26.310        27
26.320        47
26.330        27
26.340        47
26.350        47
26.360        40
26.370        20
26.380        20
26.390        40
26.400        20
26.410         7
26.420        33
26.430        53
26.440        47
26.450        20
26.460        20
26.470        33
26.480        33
26.490        53
26.500        13
26.510        40
26.520        20
26.530        47
26.540        47
26.550        40
26.560        33
26.570        33
26.580        33
26.590        20
26.600        33
26.610        27
26.620        27
26.630        20
26.640        20
26.650        40
26.660        13
26.670         7
26.680        33
26.690        60
26.700        27
26.710        47
26.720        47
26.730        33
26.740        20
26.750        20
26.760        40
26.770        40
26.780        33
26.790        60
26.800        60
26.810        13
26.820        33
26.830        20
26.840        40
26.850        20
26.860        33
26.870         7
26.880        47
26.890        33
26.900        33
26.910        13
26.920        33
26.930         0
26.940        33
26.950        33
26.960        33
26.970        47
26.980        33
26.990         7
27.000        13
27.010        33
27.020        27
27.030        33
27.040        47
27.050        27
27.060        20
27.070        13
27.080        47
27.090        40
27.100        20
27.110        33
27.120        13
27.130        13
27.140        27
27.150        20
27.160        33
27.170        40
27.180        33
27.190        40
27.200        47
27.210        20
27.220        33
27.230        27
27.240        27
27.250        40
27.260        13
27.270        27
27.280        40
27.290        27
27.300        13
27.310         7
27.320        27
27.330         0
27.340        40
27.350        33
27.360        40
27.370        27
27.380        13
27.390        13
27.400        27
27.410        33
27.420        47
27.430        27
27.440        20
27.450        33
27.460        20
27.470        27
27.480        33
27.490        13
27.500        33
27.510        27
27.520        20
27.530        27
27.540         7
27.550        20
27.560        47
27.570        13
27.580        40
27.590        27
27.600        27
27.610        20
27.620        27
27.630        13
27.640        40
27.650        20
27.660        40
27.670        47
27.680        20
27.690        27
27.700        40
27.710         7
27.720         7
27.730        20
27.740        33
27.750        33
27.760        27
27.770        33
27.780         7
27.790        13
27.800        20
27.810        40
27.820        20
27.830        20
27.840        47
27.850        20
27.860        20
27.870        33
27.880        33
27.890        60
27.900        13
27.910        13
27.920        27
27.930        33
27.940        27
27.950         7
27.960         7
27.970        33
27.980        33
27.990        13
28.000        20
28.010        13
28.020        33
28.030        33
28.040        20
28.050        33
28.060        33
28.070        27
28.080        60
28.090        27
28.100        33
28.110        33
28.120        27
28.130        40
28.140        53
28.150        13
28.160        53
28.170        33
28.180        13
28.190        53
28.200        33
28.210        13
28.220         0
28.230         7
28.240        40
28.250        27
28.260        20
28.270        27
28.280        13
28.290        27
28.300        40
28.310        20
28.320        13
28.330        33
28.340        20
28.350        40
28.360        20
28.370        13
28.380        20
28.390        13
28.400        13
28.410        27
28.420        20
28.430        33
28.440        20
28.450         7
28.460        13
28.470        47
28.480        40
28.490        53
28.500        33
28.510        40
28.520        40
28.530         7
28.540        13
28.550         7
28.560        20
28.570        20
28.580        33
28.590        40
28.600        13
28.610        20
28.620        47
28.630        20
28.640        20
28.650         7
28.660         7
28.670         7
28.680         7
28.690        27
28.700        13
28.710        33
28.720        40
28.730        20
28.740        33
28.750        40
28.760        33
28.770        47
28.780        20
28.790         7
28.800        13
28.810        47
28.820        53
28.830        40
28.840        20
28.850        40
28.860        27
28.870        13
28.880        20
28.890        20
28.900        13
28.910         7
28.920        33
28.930        27
28.940        13
28.950        33
28.960         7
28.970        13
28.980        40
28.990        20
29.000        53
29.010        27
29.020        27
29.030        33
29.040        13
29.050        20
29.060        47
29.070        47
29.080        40
29.090        20
29.100        13
29.110        33
29.120        27
29.130        53
29.140        27
29.150        40
29.160        33
29.170        67
29.180        53
29.190        40
29.200        27
29.210        33
29.220        27
29.230        13
29.240        60
29.250        53
29.260        20
29.270        20
29.280        47
29.290        27
29.300        40
29.310        67
29.320        53
29.330        27
29.340        60
29.350        53
29.360        13
29.370        20
29.380        40
29.390        40
29.400        53
29.410        27
29.420        40
29.430        33
29.440        27
29.450        33
29.460        20
29.470        20
29.480         7
29.490        13
29.500         7
29.510        40
29.520        33
29.530        20
29.540        20
29.550        40
29.560        13
29.570        47
29.580         7
29.590        27
29.600        27
29.610        20
29.620        27
29.630        27
29.640        27
29.650        27
29.660        47
29.670        27
29.680        33
29.690        20
29.700        27
29.710        27
29.720        20
29.730        33
29.740        20
29.750        40
29.760        20
29.770        13
29.780        20
29.790        27
29.800        47
29.810        67
29.820        20
29.830        33
29.840        20
29.850        13
29.860        27
29.870        13
29.880        20
29.890        27
29.900        13
29.910        27
29.920        33
29.930        27
29.940        13
29.950        27
29.960        33
29.970        33
29.980        40
29.990        20
30.000        27
30.010        33
30.020        33
30.030        33
30.040        13
30.050        20
30.060        13
30.070        67
30.080        13
30.090        40
30.100        13
30.110         7
30.120        20
30.130        33
30.140        13
30.150        20
30.160         7
30.170        40
30.180        13
30.190        13
30.200        13
30.210        40
30.220         0
30.230        67
30.240        27
30.250        27
30.260        67
30.270        20
30.280        20
30.290        20
30.300        27
30.310        40
30.320        13
30.330        20
30.340        33
30.350         7
30.360        13
30.370        20
30.380        13
30.390        13
30.400        27
30.410        27
30.420        33
30.430        13
30.440        40
30.450        20
30.460        27
30.470        13
30.480         7
30.490        20
30.500         7
30.510        27
30.520        13
30.530        33
30.540        20
30.550        13
30.560        33
30.570         7
30.580        40
30.590        13
30.600        27
30.610        33
30.620        13
30.630        33
30.640        13
30.650        27
30.660        53
30.670        13
30.680         7
30.690        40
30.700        20
30.710        13
30.720        33
30.730        13
30.740        20
30.750        40
30.760        33
30.770        33
30.780        27
30.790        33
30.800         7
30.810        20
30.820        33
30.830        33
30.840         7
30.850         7
30.860        27
30.870        40
30.880        40
30.890        20
30.900        27
30.910        13
30.920        67
30.930        20
30.940        13
30.950         7
30.960        40
30.970        33
30.980        80
30.990        33
31.000        13
31.010        20
31.020        20
31.030        27
31.040        20
31.050        13
31.060        20
31.070        20
31.080        27
31.090        53
31.100        27
31.110        27
31.120        20
31.130         7
31.140        27
31.150        13
31.160        27
31.170        27
31.180        13
31.190        53
31.200        27
31.210        20
31.220        20
31.230        33
31.240        27
31.250         7
31.260        27
31.270        27
31.280        40
31.290        27
31.300        47
31.310        40
31.320        27
31.330        40
31.340        33
31.350        27
31.360        13
31.370        27
31.380         0
31.390        40
31.400        27
31.410        27
31.420         0
31.430         7
31.440         7
31.450        20
31.460         0
31.470        20
31.480        53
31.490        13
31.500        47
31.510        20
31.520        33
31.530        40
31.540        67
31.550        47
31.560        13
31.570        40
31.580        47
31.590        47
31.600        53
31.610        53
31.620        47
31.630        60
31.640        27
31.650        47
31.660        60
31.670        60
31.680       107
31.690        73
31.700        27
31.710        40
31.720        47
31.730        53
31.740        80
31.750        87
31.760        93
31.770       147
31.780        93
31.790        73
31.800        73
31.810       107
31.820       167
31.830        87
31.840       113
31.850       147
31.860       147
31.870       113
31.880       127
31.890       113
31.900       133
31.910       107
31.920       100
31.930        87
31.940       100
31.950       127
31.960       133
31.970       100
31.980        73
31.990        67
32.000        60
32.010        53
32.020        47
32.030        60
32.040        60
32.050        53
32.060        80
32.070        33
32.080        33
32.090        53
32.100        40
32.110        20
32.120        53
32.130        27
32.140        13
32.150        20
32.160        33
32.170         7
32.180        33
32.190        40
32.200        47
32.210         7
32.220        40
32.230        13
32.240        20
32.250        20
32.260        20
32.270        40
32.280        13
32.290        40
32.300        40
32.310        27
32.320        13
32.330        33
32.340        13
32.350        27
32.360        33
32.370        33
32.380         7
32.390        40
32.400        13
32.410        33
32.420         7
32.430        27
32.440         0
32.450        33
32.460        33
32.470        27
32.480         7
32.490        27
32.500        13
32.510        13
32.520        27
32.530         7
32.540        20
32.550        27
32.560         7
32.570         7
32.580        33
32.590        33
32.600        20
32.610         0
32.620        33
32.630        27
32.640        20
32.650        13
32.660        27
32.670        33
32.680        27
32.690        13
32.700        27
32.710        40
32.720        27
32.730        20
32.740         7
32.750        40
32.760        27
32.770        27
32.780        20
32.790        13
32.800        27
32.810        47
32.820        13
32.830        33
32.840        33
32.850        13
32.860        47
32.870        33
32.880        27
32.890        13
32.900         7
32.910        13
32.920         0
32.930        40
32.940         7
32.950        20
32.960        27
32.970         0
32.980        33
32.990        13
33.000        47
33.010        27
33.020        53
33.030        20
33.040         7
33.050        27
33.060        40
33.070        20
33.080        13
33.090        20
33.100        27
33.110        13
33.120        20
33.130         7
33.140        13
33.150        27
33.160        27
33.170        20
33.180        27
33.190         0
33.200         7
33.210         7
33.220        27
33.230        20
33.240        20
33.250        20
33.260         7
33.270        13
33.280        20
33.290        27
33.300        33
33.310        13
33.320         7
33.330        20
33.340        13
33.350        20
33.360        20
33.370         7
33.380        20
33.390        13
33.400        20
33.410        27
33.420        33
33.430         7
33.440        13
33.450        27
33.460        20
33.470        20
33.480        40
33.490        20
33.500        53
33.510        20
33.520        20
33.530        20
33.540        33
33.550        20
33.560        27
33.570        20
33.580        27
33.590        13
33.600        27
33.610        27
33.620        33
33.630        13
33.640        33
33.650        27
33.660        13
33.670        27
33.680        20
33.690        20
33.700        13
33.710        20
33.720         7
33.730        13
33.740         0
33.750         7
33.760        20
33.770        40
33.780         7
33.790        40
33.800        27
33.810         0
33.820        47
33.830        20
33.840        20
33.850        27
33.860         7
33.870         7
33.880        20
33.890         7
33.900        13
33.910        20
33.920        20
33.930        13
33.940        27
33.950        13
33.960        20
33.970         7
33.980        33
33.990        33
34.000        13
34.010        33
34.020        33
34.030        20
34.040        27
34.050        13
34.060         7
34.070        20
34.080        13
34.090        13
34.100        13
34.110        13
34.120        33
34.130        20
34.140         0
34.150        13
34.160        13
34.170         7
34.180         7
34.190        47
34.200        13
34.210        20
34.220         7
34.230        13
34.240        47
34.250        33
34.260        13
34.270        20
34.280        20
34.290        13
34.300        27
34.310        13
34.320        27
34.330        13
34.340        60
34.350        27
34.360        33
34.370        13
34.380        60
34.390        20
34.400        27
34.410        13
34.420        33
34.430        20
34.440        13
34.450        40
34.460        33
34.470        20
34.480        13
34.490         7
34.500         7
34.510        20
34.520        27
34.530         7
34.540        20
34.550        20
34.560         7
34.570        33
34.580        13
34.590        13
34.600        20
34.610        27
34.620        20
34.630        13
34.640        20
34.650        20
34.660         7
34.670        13
34.680        27
34.690        27
34.700         7
34.710        20
34.720        20
34.730        27
34.740        40
34.750        40
34.760         7
34.770         7
34.780         7
34.790         0
34.800        33
34.810        20
34.820         0
34.830         0
34.840         7
34.850        27
34.860        47
34.870         7
34.880        13
34.890        27
34.900        20
34.910        13
34.920        20
34.930        27
34.940        27
34.950        27
34.960         7
34.970        40
34.980        27
34.990         7
35.000        20
35.010        40
35.020        13
35.030        27
35.040        40
35.050        13
35.060        20
35.070         7
35.080         0
35.090        13
35.100         7
35.110        27
35.120        20
35.130        27
35.140         7
35.150         7
35.160        13
35.170        40
35.180        27
35.190         7
35.200        13
35.210        20
35.220        27
35.230        27
35.240        27
35.250        13
35.260        47
35.270         7
35.280         0
35.290        27
35.300        27
35.310        13
35.320        27
35.330        13
35.340        13
35.350        27
35.360         7
35.370        20
35.380        27
35.390         7
35.400        47
35.410        13
35.420        33
35.430        20
35.440        27
35.450         7
35.460        20
35.470         7
35.480        27
35.490        33
35.500        13
35.510        27
35.520        27
35.530         7
35.540        40
35.550        20
35.560        13
35.570        20
35.580         7
35.590        47
35.600         7
35.610        40
35.620         7
35.630        13
35.640        27
35.650        20
35.660         7
35.670        13
35.680        27
35.690        27
35.700        27
35.710        27
35.720        40
35.730        40
35.740        13
35.750        27
35.760        20
35.770        20
35.780        13
35.790        47
35.800        27
35.810        27
35.820         0
35.830        40
35.840        13
35.850        13
35.860        20
35.870        40
35.880        20
35.890        20
35.900         7
35.910        27
35.920        13
35.930        40
35.940        27
35.950        13
35.960        13
35.970        33
35.980        40
35.990        27
36.000        13
36.010        13
36.020        13
36.030         7
36.040         7
36.050        33
36.060        20
36.070        13
36.080        13
36.090        13
36.100        27
36.110         7
36.120        20
36.130         0
36.140         0
36.150        27
36.160        47
36.170        13
36.180        20
36.190        20
36.200        20
36.210        13
36.220        33
36.230         0
36.240        13
36.250         0
36.260         0
36.270        13
36.280         7
36.290         7
36.300        20
36.310        13
36.320        20
36.330         7
36.340        20
36.350        27
36.360        20
36.370        33
36.380        13
36.390        13
36.400        13
36.410        20
36.420         7
36.430        27
36.440        13
36.450        13
36.460        33
36.470        20
36.480        20
36.490        20
36.500        20
36.510        20
36.520        13
36.530        20
36.540        27
36.550        20
36.560        27
36.570         7
36.580         7
36.590        13
36.600         7
36.610        27
36.620        13
36.630        27
36.640        27
36.650         7
36.660        20
36.670        20
36.680        13
36.690         7
36.700        13
36.710        33
36.720        13
36.730         7
36.740        20
36.750        33
36.760        20
36.770        13
36.780        33
36.790        20
36.800        13
36.810        27
36.820        27
36.830         7
36.840        33
36.850         7
36.860        40
36.870        13
36.880        33
36.890         0
36.900        20
36.910        13
36.920        13
36.930        27
36.940         7
36.950        13
36.960        33
36.970        20
36.980         7
36.990        20
37.000        13
37.010        20
37.020        27
37.030        53
37.040        20
37.050        20
37.060        40
37.070        27
37.080        33
37.090        20
37.100         0
37.110         7
37.120        20
37.130         7
37.140        20
37.150        20
37.160        27
37.170        20
37.180         7
37.190         0
37.200         7
37.210        40
37.220         7
37.230        20
37.240        13
37.250        20
37.260        27
37.270         7
37.280        13
37.290        27
37.300         7
37.310        20
37.320         7
37.330        33
37.340        20
37.350         0
37.360         0
37.370        20
37.380        27
37.390        33
37.400        13
37.410         7
37.420        20
37.430        33
37.440        20
37.450        40
37.460         7
37.470         7
37.480        33
37.490        20
37.500         0
37.510         7
37.520        27
37.530         7
37.540        13
37.550        13
37.560         7
37.570        13
37.580        20
37.590        33
37.600        13
37.610         7
37.620        33
37.630        13
37.640        13
37.650        13
37.660        13
37.670        27
37.680         7
37.690         7
37.700        13
37.710        27
37.720        13
37.730        20
37.740        33
37.750        13
37.760        13
37.770        20
37.780         7
37.790        33
37.800         7
37.810        27
37.820        13
37.830         7
37.840         7
37.850        20
37.860        20
37.870        47
37.880        20
37.890         7
37.900        13
37.910        20
37.920         7
37.930        27
37.940         7
37.950        27
37.960        13
37.970        47
37.980         0
37.990        13
38.000        20
38.010         7
38.020        20
38.030        27
38.040        13
38.050         0
38.060         7
38.070        47
38.080        40
38.090         7
38.100        20
38.110         7
38.120        20
38.130        47
38.140        33
38.150         7
38.160         7
38.170        13
38.180        27
38.190        13
38.200         7
38.210        27
38.220        27
38.230        20
38.240         7
38.250        20
38.260         7
38.270        33
38.280        33
38.290         7
38.300        33
38.310        27
38.320         7
38.330         7
38.340         0
38.350        27
38.360        20
38.370         7
38.380        13
38.390        47
38.400        20
38.410         0
38.420        40
38.430        40
38.440        33
38.450        20
38.460        13
38.470        27
38.480         7
38.490        33
38.500        33
38.510        20
38.520        27
38.530         7
38.540         7
38.550         0
38.560        40
38.570        13
38.580        20
38.590        20
38.600        33
38.610        13
38.620        47
38.630        13
38.640         7
38.650        13
38.660         0
38.670        13
38.680        47
38.690        13
38.700        33
38.710        13
38.720         0
38.730        27
38.740         7
38.750         7
38.760        27
38.770        20
38.780        40
38.790         7
38.800        13
38.810        13
38.820        27
38.830        20
38.840        33
38.850        13
38.860        27
38.870        53
38.880        27
38.890        13
38.900        27
38.910        33
38.920        13
38.930        20
38.940        33
38.950        20
38.960        13
38.970         0
38.980        13
38.990        27
39.000        27
39.010         0
39.020        20
39.030        13
39.040         7
39.050        27
39.060        13
39.070        33
39.080        33
39.090        40
39.100        33
39.110        40
39.120        47
39.130        53
39.140        60
39.150        80
39.160        73
39.170        73
39.180        53
39.190       100
39.200        87
39.210       107
39.220       113
39.230       140
39.240       173
39.250       133
39.260        73
39.270        87
39.280        80
39.290       133
39.300       100
39.310        67
39.320        73
39.330       107
39.340        87
39.350        60
39.360        80
39.370        40
39.380        53
39.390        53
39.400        33
39.410        40
39.420        33
39.430        40
39.440        40
39.450        60
39.460        47
39.470        20
39.480        33
39.490        27
39.500        33
39.510        40
39.520        33
39.530        27
39.540         7
39.550         7
39.560         0
39.570         7
39.580        27
39.590        20
39.600         7
39.610        20
39.620         0
39.630        13
39.640        20
39.650        27
39.660         7
39.670        27
39.680        20
39.690         7
39.700         7
39.710        13
39.720        13
39.730        40
39.740        27
39.750        27
39.760        20
39.770        13
39.780        13
39.790        13
39.800        13
39.810         7
39.820        27
39.830        13
39.840        13
39.850         7
39.860        40
39.870         0
39.880        20
39.890        20
39.900        20
39.910        20
39.920        47
39.930        13
39.940        27
39.950        20
39.960        27
39.970        27
39.980        20
39.990         7
40.000         7
40.010         0
40.020         0
40.030        33
40.040        20
40.050        13
40.060         7
40.070         7
40.080        27
40.090         7
40.100         0
40.110        27
40.120        13
40.130        33
40.140         7
40.150         0
40.160        20
40.170        20
40.180         7
40.190         7
40.200        27
40.210         7
40.220        20
40.230         7
40.240        47
40.250        13
40.260        27
40.270        13
40.280         7
40.290         7
40.300        13
40.310        27
40.320        13
40.330        13
40.340        27
40.350        13
40.360        27
40.370        20
40.380        27
40.390         7
40.400        20
40.410        20
40.420        13
40.430        27
40.440        13
40.450        13
40.460        20
40.470         0
40.480        27
40.490        20
40.500        40
40.510        13
40.520        13
40.530        27
40.540        20
40.550        47
40.560         7
40.570        20
40.580        13
40.590        27
40.600        13
40.610        13
40.620        27
40.630        20
40.640        13
40.650        20
40.660        27
40.670        20
40.680        33
40.690        20
40.700        13
40.710         7
40.720        20
40.730         7
40.740        40
40.750        13
40.760        13
40.770        33
40.780        27
40.790         7
40.800         7
40.810         7
40.820        13
40.830         0
40.840        13
40.850        27
40.860        27
40.870        13
40.880        13
40.890         7
40.900         7
40.910         7
40.920        27
40.930        20
40.940        20
40.950         7
40.960        20
40.970        27
40.980        20
40.990        40
41.000        27
41.010        20
41.020        27
41.030         7
41.040         7
41.050         7
41.060        13
41.070        13
41.080        13
41.090         0
41.100        33
41.110        27
41.120         7
41.130        13
41.140        13
41.150         7
41.160         7
41.170         0
41.180        40
41.190        20
41.200         0
41.210        27
41.220         0
41.230        33
41.240         0
41.250         7
41.260         7
41.270        20
41.280        13
41.290         7
41.300         7
41.310        20
41.320        27
41.330         7
41.340         7
41.350        47
41.360         0
41.370        13
41.380        27
41.390        13
41.400        27
41.410        20
41.420        33
41.430        13
41.440        20
41.450        27
41.460         7
41.470        33
41.480        40
41.490        13
41.500        20
41.510        13
41.520         7
41.530         7
41.540        20
41.550         0
41.560        40
41.570         7
41.580        20
41.590         7
41.600         7
41.610        13
41.620        20
41.630        20
41.640        27
41.650        33
41.660        13
41.670        20
41.680        27
41.690        20
41.700        20
41.710         0
41.720        27
41.730        20
41.740        27
41.750        13
41.760        20
41.770        13
41.780        27
41.790         0
41.800         7
41.810        33
41.820        13
41.830        33
41.840         0
41.850        40
41.860        13
41.870         7
41.880        27
41.890        13
41.900        20
41.910        20
41.920         7
41.930         7
41.940        20
41.950        27
41.960         7
41.970        47
41.980         7
41.990        13
42.000         7
42.010        20
42.020        27
42.030        33
42.040         7
42.050        13
42.060        27
42.070        13
42.080         7
42.090         7
42.100        20
42.110        13
42.120         7
42.130         7
42.140        27
42.150         7
42.160         7
42.170        27
42.180         7
42.190        13
42.200        13
42.210        20
42.220         7
42.230        33
42.240         0
42.250         7
42.260         7
42.270         0
42.280         0
42.290        13
42.300        13
42.310         7
42.320         7
42.330        33
42.340        33
42.350        13
42.360        13
42.370        13
42.380        33
42.390        20
42.400        20
42.410         7
42.420         7
42.430         7
42.440         7
42.450         7
42.460         0
42.470        13
42.480        27
42.490        20
42.500        20
42.510        13
42.520        47
42.530         7
42.540        20
42.550        13
42.560        33
42.570        13
42.580        20
42.590        20
42.600        27
42.610        13
42.620         7
42.630        20
42.640        13
42.650        33
42.660         7
42.670        13
42.680        40
42.690        13
42.700         0
42.710         7
42.720        13
42.730         7
42.740        27
42.750        20
42.760        13
42.770        33
42.780        33
42.790         7
42.800         0
42.810         0
42.820         7
42.830        27
42.840        27
42.850         7
42.860        20
42.870        13
42.880        13
42.890        20
42.900         7
42.910        20
42.920        27
42.930        33
42.940         7
42.950        33
42.960        33
42.970         0
42.980        27
42.990        27
43.000        20
43.010        20
43.020        13
43.030         7
43.040        13
43.050        33
43.060        13
43.070         7
43.080        33
43.090        20
43.100        53
43.110         0
43.120        13
43.130        13
43.140         7
43.150        27
43.160         7
43.170       207
43.180         7
43.190        13
43.200         0
43.210        33
43.220        13
43.230         7
43.240        13
43.250        20
43.260        13
43.270        27
43.280        20
43.290        33
43.300        20
43.310        20
43.320         0
43.330        20
43.340        20
43.350        20
43.360         0
43.370        27
43.380        27
43.390        20
43.400         0
43.410         7
43.420        13
43.430         0
43.440        27
43.450         7
43.460        20
43.470         7
43.480        40
43.490         7
43.500        13
43.510        13
43.520         7
43.530         7
43.540         0
43.550         7
43.560         7
43.570        20
43.580         0
43.590        27
43.600         7
43.610        27
43.620         0
43.630         0
43.640        20
43.650        13
43.660        13
43.670        13
43.680        40
43.690         7
43.700         0
43.710        13
43.720        13
43.730        20
43.740        40
43.750        13
43.760        13
43.770        13
43.780        13
43.790        13
43.800        13
43.810        40
43.820        13
43.830         7
43.840        20
43.850        20
43.860        13
43.870        13
43.880        27
43.890        20
43.900        27
43.910        13
43.920        40
43.930        13
43.940        20
43.950         7
43.960         0
43.970        13
43.980        13
43.990        20
44.000        33
44.010         7
44.020        13
44.030        20
44.040         0
44.050         7
44.060        27
44.070        33
44.080         7
44.090        13
44.100        13
44.110         0
44.120        20
44.130        27
44.140        27
44.150        13
44.160        20
44.170        20
44.180         7
44.190        13
44.200        13
44.210        27
44.220        33
44.230        13
44.240        13
44.250        40
44.260         7
44.270        33
44.280        20
44.290         7
44.300         7
44.310        13
44.320        20
44.330        13
44.340        20
44.350         7
44.360        27
44.370        13
44.380         7
44.390         7
44.400        27
44.410         7
44.420        27
44.430        13
44.440         0
44.450        33
44.460        20
44.470        20
44.480        13
44.490        20
44.500         7
44.510        40
44.520        13
44.530         7
44.540         7
44.550         7
44.560        13
44.570         0
44.580        20
44.590         7
44.600         7
44.610        13
44.620        20
44.630        13
44.640        13
44.650        27
44.660        13
44.670        20
44.680        13
44.690         0
44.700        20
44.710        13
44.720         0
44.730        20
44.740        27
44.750        27
44.760         7
44.770        13
44.780         0
44.790        27
44.800         7
44.810        20
44.820        27
44.830        13
44.840        20
44.850         7
44.860        13
44.870        13
44.880         7
44.890        13
44.900        13
44.910        13
44.920        27
44.930        27
44.940         7
44.950        20
44.960        13
44.970         7
44.980        33
44.990        13
45.000        13
45.010        20
45.020         0
45.030        13
45.040         7
45.050        13
45.060         7
45.070        13
45.080        20
45.090         0
45.100        13
45.110        13
45.120        20
45.130        27
45.140        33
45.150        13
45.160        20
45.170         7
45.180        20
45.190        33
45.200         0
45.210        20
45.220         7
45.230        27
45.240        27
45.250        13
45.260        20
45.270        40
45.280        20
45.290        20
45.300        27
45.310        13
45.320        13
45.330        27
45.340         7
45.350        13
45.360        27
45.370         7
45.380        13
45.390        33
45.400        20
45.410        33
45.420        33
45.430        20
45.440        13
45.450         7
45.460        47
45.470        27
45.480        40
45.490        20
45.500        13
45.510        13
45.520        13
45.530        33
45.540        67
45.550        33
45.560        33
45.570        27
45.580         0
45.590        40
45.600        20
45.610        20
45.620         7
45.630         7
45.640        33
45.650        13
45.660        27
45.670         7
45.680        33
45.690        27
45.700        27
45.710        33
45.720        27
45.730        27
45.740         7
45.750        13
45.760        13
45.770        20
45.780        13
45.790        33
45.800        27
45.810        27
45.820        33
45.830        27
45.840        20
45.850        13
45.860         7
45.870         7
45.880         0
45.890        27
45.900        13
45.910        27
45.920        27
45.930        13
45.940        13
45.950        20
45.960        20
45.970        20
45.980        47
45.990         7
46.000        27
46.010        33
46.020        33
46.030        33
46.040        27
46.050         7
46.060        13
46.070        33
46.080        20
46.090        60
46.100        53
46.110        13
46.120        33
46.130        20
46.140        13
46.150         7
46.160         7
46.170         0
46.180        27
46.190        13
46.200        33
46.210        20
46.220        33
46.230        13
46.240        13
46.250         0
46.260        13
46.270        13
46.280         0
46.290         7
46.300        13
46.310         0
46.320        40
46.330        20
46.340         7
46.350        20
46.360        27
46.370        33
46.380        27
46.390        20
46.400        13
46.410        33
46.420        13
46.430        40
46.440        13
46.450        13
46.460        13
46.470        20
46.480        13
46.490        27
46.500        27
46.510        27
46.520        13
46.530        27
46.540        33
46.550        13
46.560        13
46.570        47
46.580        27
46.590        33
46.600         7
46.610         0
46.620         7
46.630         7
46.640        20
46.650         7
46.660        13
46.670        13
46.680         7
46.690         0
46.700        20
46.710        27
46.720        20
46.730         7
46.740        27
46.750        13
46.760        20
46.770        20
46.780        13
46.790        13
46.800        33
46.810        13
46.820        27
46.830        20
46.840        20
46.850         7
46.860         7
46.870        20
46.880         7
46.890        27
46.900        13
46.910        13
46.920         7
46.930        20
46.940        20
46.950        13
46.960         0
46.970        27
46.980        20
46.990        27
47.000        33
47.010        40
47.020        27
47.030        27
47.040        33
47.050        13
47.060        33
47.070        27
47.080         7
47.090        33
47.100        40
47.110        20
47.120        33
47.130        27
47.140        47
47.150        33
47.160        33
47.170        20
47.180        27
47.190        27
47.200        20
47.210        13
47.220        13
47.230        13
47.240        47
47.250        40
47.260         7
47.270        20
47.280        13
47.290        40
47.300         7
47.310        20
47.320         7
47.330        27
47.340        47
47.350        20
47.360        13
47.370        47
47.380        13
47.390        20
47.400        20
47.410        20
47.420        27
47.430        13
47.440        27
47.450         7
47.460        27
47.470         7
47.480        13
47.490        13
47.500        20
47.510        13
47.520        20
47.530        13
47.540         7
47.550        13
47.560         7
47.570        13
47.580        33
47.590        20
47.600         7
47.610        20
47.620        20
47.630        13
47.640        20
47.650        13
47.660        33
47.670        13
47.680        27
47.690         7
47.700         7
47.710        13
47.720        27
47.730         7
47.740        13
47.750        20
47.760        13
47.770        27
47.780         0
47.790         7
47.800        20
47.810        13
47.820         7
47.830        20
47.840        13
47.850        20
47.860        20
47.870        20
47.880         7
47.890        27
47.900        20
47.910        27
47.920        27
47.930        33
47.940         0
47.950        13
47.960        27
47.970        27
47.980         0
47.990        13
48.000        20
48.010        20
48.020        33
48.030         7
48.040        27
48.050        27
48.060         7
48.070        27
48.080        27
48.090        20
48.100        27
48.110         7
48.120         7
48.130        33
48.140         7
48.150         7
48.160         0
48.170        20
48.180        13
48.190        47
48.200         7
48.210        27
48.220        33
48.230        13
48.240         7
48.250        27
48.260        13
48.270        27
48.280         7
48.290        20
48.300         0
48.310         7
48.320        20
48.330         7
48.340        20
48.350        33
48.360        20
48.370        33
48.380        53
48.390        27
48.400        20
48.410        20
48.420        20
48.430         7
48.440        20
48.450        20
48.460        27
48.470        33
48.480         7
48.490        33
48.500        40
48.510        20
48.520        13
48.530        20
48.540        13
48.550        20
48.560        13
48.570        13
48.580        20
48.590        13
48.600        13
48.610         7
48.620        13
48.630         7
48.640        13
48.650         7
48.660        33
48.670         0
48.680        33
48.690         7
48.700        20
48.710         7
48.720         7
48.730        13
48.740         0
48.750        13
48.760        27
48.770         7
48.780        20
48.790         0
48.800        27
48.810        20
48.820         7
48.830        20
48.840        20
48.850        33
48.860        27
48.870         7
48.880        27
48.890        27
48.900         7
48.910         7
48.920         7
48.930        40
48.940         7
48.950        13
48.960         0
48.970         7
48.980        20
48.990         7
49.000         0
49.010        13
49.020        40
49.030         7
49.040         7
49.050        20
49.060        27
49.070         7
49.080        27
49.090        13
49.100        20
49.110        33
49.120        13
49.130        13
49.140        13
49.150         0
49.160        20
49.170        20
49.180         0
49.190        33
49.200         7
49.210         7
49.220         7
49.230        13
49.240        13
49.250         0
49.260        53
49.270        13
49.280         7
49.290        13
49.300         7
49.310        20
49.320        13
49.330        13
49.340        33
49.350         7
49.360        13
49.370        13
49.380         7
49.390        33
49.400         0
49.410        13
49.420         7
49.430        13
49.440        33
49.450         7
49.460        13
49.470         7
49.480         0
49.490         7
49.500         7
49.510         7
49.520         7
49.530        27
49.540        13
49.550        27
49.560        27
49.570        13
49.580        13
49.590        13
49.600        13
49.610         7
49.620        13
49.630        13
49.640         7
49.650         7
49.660        40
49.670         7
49.680         7
49.690        13
49.700         7
49.710        13
49.720        13
49.730        27
49.740        40
49.750        20
49.760        27
49.770        20
49.780        13
49.790        33
49.800        27
49.810         7
49.820         7
49.830        20
49.840        33
49.850        20
49.860        20
49.870        13
49.880        27
49.890        13
49.900        27
49.910        20
49.920        27
49.930        13
49.940        20
49.950         7
49.960         0
49.970        20
49.980        33
49.990        20
50.000         7
50.010        20
50.020         0
50.030        20
50.040         7
50.050        13
50.060        27
50.070         7
50.080        20
50.090         0
50.100        27
50.110         0
50.120        20
50.130        33
50.140        13
50.150        27
50.160        27
50.170         7
50.180        33
50.190        13
50.200        20
50.210        33
50.220        13
50.230        27
50.240         7
50.250         7
50.260        33
50.270        40
50.280        53
50.290        13
50.300        27
50.310        13
50.320        13
50.330         0
50.340        20
50.350        27
50.360         7
50.370        13
50.380        13
50.390        27
50.400        33
50.410        33
50.420        33
50.430         7
50.440        13
50.450         7
50.460        47
50.470        20
50.480        20
50.490        13
50.500        20
50.510        20
50.520        20
50.530        13
50.540        20
50.550        27
50.560        13
50.570        33
50.580        20
50.590        13
50.600         7
50.610        20
50.620        27
50.630        13
50.640        33
50.650        27
50.660        33
50.670        33
50.680        47
50.690        33
50.700        27
50.710         0
50.720        20
50.730        33
50.740        13
50.750        20
50.760         7
50.770        13
50.780         7
50.790        13
50.800        33
50.810        33
50.820        33
50.830        27
50.840        20
50.850        33
50.860        20
50.870        33
50.880        33
50.890         7
50.900        20
50.910        13
50.920        20
50.930        33
50.940        20
50.950        13
50.960        13
50.970        20
50.980        33
50.990        47
51.000        47
51.010        20
51.020        33
51.030        47
51.040        27
51.050         7
51.060        40
51.070        33
51.080        13
51.090        13
51.100        20
51.110        27
51.120        20
51.130        27
51.140        33
51.150        33
51.160        33
51.170        27
51.180        20
51.190        27
51.200        20
51.210         7
51.220        20
51.230        13
51.240        13
51.250        27
51.260        27
51.270        20
51.280        33
51.290         0
51.300        27
51.310        33
51.320        33
51.330        40
51.340        60
51.350        33
51.360        20
51.370        13
51.380        53
51.390        33
51.400        47
51.410        13
51.420        13
51.430        40
51.440        13
51.450        20
51.460        27
51.470        33
51.480        20
51.490        20
51.500        13
51.510        40
51.520        47
51.530        20
51.540        47
51.550        13
51.560         7
51.570        27
51.580        27
51.590         0
51.600        33
51.610        27
51.620        33
51.630        33
51.640        20
51.650        40
51.660         7
51.670        13
51.680        27
51.690        40
51.700        20
51.710        53
51.720        40
51.730        53
51.740        27
51.750        20
51.760        40
51.770        33
51.780        33
51.790        27
51.800        20
51.810        13
51.820        33
51.830        27
51.840        40
51.850        53
51.860        20
51.870        20
51.880        27
51.890        20
51.900        40
51.910        80
51.920        13
51.930        20
51.940        80
51.950        13
51.960        47
51.970         7
51.980        40
51.990        33
52.000        27
52.010        47
52.020        47
52.030        33
52.040        53
52.050        47
52.060        33
52.070        40
52.080        47
52.090        20
52.100        13
52.110        20
52.120        47
52.130        47
52.140        60
52.150        47
52.160        53
52.170        33
52.180        33
52.190        53
52.200        40
52.210        47
52.220        67
52.230        60
52.240        60
52.250        87
52.260       113
52.270        60
52.280       100
52.290        80
52.300        87
52.310        53
52.320        80
52.330        60
52.340       153
52.350        73
52.360       153
52.370       140
52.380        80
52.390       227
52.400       240
52.410       140
52.420       207
52.430       273
52.440       320
52.450       400
52.460       453
52.470       473
52.480       613
52.490       660
52.500       740
52.510       886
52.520      1220
52.530      1306
52.540      1153
52.550      1619
52.560      1293
52.570      1379
52.580      1193
52.590      1200
52.600      1106
52.610      1100
52.620       880
52.630       760
52.640       793
52.650       846
52.660       966
52.670      1000
52.680       920
52.690       833
52.700       773
52.710       586
52.720       720
52.730       626
52.740       473
52.750       460
52.760       506
52.770       320
52.780       340
52.790       320
52.800       233
52.810       273
52.820       173
52.830       220
52.840       100
52.850       160
52.860       133
52.870       160
52.880       100
52.890        80
52.900        53
52.910        73
52.920        73
52.930        67
52.940        27
52.950        93
52.960        40
52.970        47
52.980        27
52.990        47
53.000        40
53.010        33
53.020        40
53.030        53
53.040        33
53.050        53
53.060        33
53.070        80
53.080        53
53.090        27
53.100        67
53.110        33
53.120        33
53.130        73
53.140        20
53.150        27
53.160        27
53.170        13
53.180        60
53.190        27
53.200        13
53.210        33
53.220        53
53.230        13
53.240        27
53.250        33
53.260        47
53.270        47
53.280        53
53.290        27
53.300        47
53.310        33
53.320        13
53.330        40
53.340        40
53.350        20
53.360        47
53.370        53
53.380        27
53.390        20
53.400        47
53.410        40
53.420        47
53.430        27
53.440        33
53.450        27
53.460        20
53.470        40
53.480        20
53.490        33
53.500        20
53.510        20
53.520        60
53.530        40
53.540        53
53.550        40
53.560        40
53.570         0
53.580        27
53.590        20
53.600        47
53.610        47
53.620        27
53.630        27
53.640        13
53.650        33
53.660         0
53.670        33
53.680        20
53.690        13
53.700        20
53.710        20
53.720        13
53.730        13
53.740        33
53.750        27
53.760        33
53.770         7
53.780        40
53.790        27
53.800        40
53.810        20
53.820        20
53.830        20
53.840         7
53.850         7
53.860        13
53.870        27
53.880        13
53.890         7
53.900        33
53.910        13
53.920        33
53.930        27
53.940        13
53.950         7
53.960        13
53.970         7
53.980        13
53.990        40
54.000         7
54.010        20
54.020        60
54.030         0
54.040        40
54.050        33
54.060        13
54.070        27
54.080        20
54.090        20
54.100        20
54.110        13
54.120        40
54.130        13
54.140        20
54.150         7
54.160        27
54.170         7
54.180        13
54.190        20
54.200         7
54.210         0
54.220        20
54.230        13
54.240        27
54.250        40
54.260        20
54.270         7
54.280        33
54.290        47
54.300        60
54.310         7
54.320        20
54.330        13
54.340        13
54.350         7
54.360        13
54.370         7
54.380        27
54.390        20
54.400         7
54.410        47
54.420         7
54.430        33
54.440        13
54.450         7
54.460        33
54.470        13
54.480        20
54.490        20
54.500         7
54.510        13
54.520        20
54.530         7
54.540        13
54.550         7
54.560        20
54.570        33
54.580         7
54.590        40
54.600        20
54.610        33
54.620        20
54.630        40
54.640        20
54.650        13
54.660        13
54.670        33
54.680         7
54.690        13
54.700        27
54.710        40
54.720        20
54.730        20
54.740        13
54.750        33
54.760        40
54.770        13
54.780        40
54.790         7
54.800        40
54.810        20
54.820         7
54.830        40
54.840        33
54.850        47
54.860        13
54.870         0
54.880         7
54.890         7
54.900        27
54.910         7
54.920        20
54.930         7
54.940        13
54.950        20
54.960        13
54.970        27
54.980        40
54.990        20
55.000         7
55.010        20
55.020        20
55.030         7
55.040        27
55.050        20
55.060        20
55.070        27
55.080         0
55.090        20
55.100        27
55.110        27
55.120        13
55.130        13
55.140        13
55.150        27
55.160        33
55.170        13
55.180        60
55.190        27
55.200        13
55.210        20
55.220        20
55.230        20
55.240        13
55.250        20
55.260        20
55.270        13
55.280        33
55.290        20
55.300         7
55.310        13
55.320        13
55.330        13
55.340        33
55.350        20
55.360        33
55.370        20
55.380        20
55.390        20
55.400        20
55.410        33
55.420        33
55.430        33
55.440         7
55.450        33
55.460        20
55.470        13
55.480         0
55.490        33
55.500        33
55.510        13
55.520        40
55.530        20
55.540         7
55.550        27
55.560         7
55.570        13
55.580        13
55.590        20
55.600        20
55.610        33
55.620         7
55.630        13
55.640         7
55.650        33
55.660        47
55.670        20
55.680         7
55.690        27
55.700        33
55.710         7
55.720         0
55.730         7
55.740        13
55.750         7
55.760        20
55.770        20
55.780         0
55.790        13
55.800        13
55.810        20
55.820        20
55.830        27
55.840         7
55.850        33
55.860         7
55.870        20
55.880        20
55.890        20
55.900        13
55.910        20
55.920        53
55.930        27
55.940        27
55.950        13
55.960         7
55.970        27
55.980         0
55.990        20
56.000         7
56.010         7
56.020        27
56.030        13
56.040        20
56.050        27
56.060        33
56.070         7
56.080        20
56.090        27
56.100        13
56.110         7
56.120        20
56.130        20
56.140        13
56.150        27
56.160         7
56.170        13
56.180        53
56.190        13
56.200         0
56.210        27
56.220        33
56.230        20
56.240        20
56.250         0
56.260        47
56.270        20
56.280        33
56.290        20
56.300        27
56.310        13
56.320        33
56.330        33
56.340        20
56.350        20
56.360        13
56.370        47
56.380        40
56.390        33
56.400        40
56.410        27
56.420        27
56.430        40
56.440        93
56.450        73
56.460        33
56.470        47
56.480        73
56.490        33
56.500        47
56.510        40
56.520        80
56.530        40
56.540        73
56.550        80
56.560       127
56.570       173
56.580       160
56.590       120
56.600       160
56.610       140
56.620       207
56.630       160
56.640       187
56.650       167
56.660       167
56.670       200
56.680       153
56.690       180
56.700       200
56.710       180
56.720       140
56.730       207
56.740       173
56.750       200
56.760       220
56.770       173
56.780       107
56.790       187
56.800       127
56.810       113
56.820       160
56.830       167
56.840       120
56.850       160
56.860       187
56.870        80
56.880        87
56.890       120
56.900        93
56.910        87
56.920        73
56.930        27
56.940        33
56.950        67
56.960        80
56.970        40
56.980        67
56.990        53
57.000        33
57.010        40
57.020        13
57.030        13
57.040        40
57.050        27
57.060        20
57.070        53
57.080        20
57.090        53
57.100         7
57.110        47
57.120        40
57.130        20
57.140        27
57.150        27
57.160        40
57.170         7
57.180        13
57.190        13
57.200        27
57.210        60
57.220        20
57.230        53
57.240        27
57.250        20
57.260        20
57.270        33
57.280        27
57.290        40
57.300        33
57.310        27
57.320        33
57.330        13
57.340        27
57.350        20
57.360        20
57.370        13
57.380        27
57.390         7
57.400        27
57.410         7
57.420        20
57.430        20
57.440        27
57.450        20
57.460        40
57.470        20
57.480        13
57.490         7
57.500        33
57.510        13
57.520        13
57.530        20
57.540        20
57.550        13
57.560        27
57.570        13
57.580        40
57.590        13
57.600         7
57.610        27
57.620         7
57.630         7
57.640        20
57.650         7
57.660        20
57.670        20
57.680        33
57.690        27
57.700         7
57.710        20
57.720        13
57.730        53
57.740         0
57.750        20
57.760        27
57.770        13
57.780         0
57.790         7
57.800        13
57.810        20
57.820        13
57.830        27
57.840         7
57.850        40
57.860        20
57.870         7
57.880        13
57.890        27
57.900        27
57.910        27
57.920        20
57.930         0
57.940        20
57.950        27
57.960        20
57.970         0
57.980        40
57.990         7
58.000        13
58.010         0
58.020        13
58.030         7
58.040        33
58.050        13
58.060         0
58.070        27
58.080        20
58.090        27
58.100        13
58.110        27
58.120        40
58.130         7
58.140        13
58.150        33
58.160         7
58.170        33
58.180         7
58.190        20
58.200         7
58.210        20
58.220        40
58.230         0
58.240        33
58.250        20
58.260        20
58.270        13
58.280        13
58.290        27
58.300         7
58.310        33
58.320        20
58.330        33
58.340         0
58.350        13
58.360        20
58.370         7
58.380        27
58.390        20
58.400         0
58.410        20
58.420         0
58.430        27
58.440        20
58.450        13
58.460        13
58.470        20
58.480        13
58.490        13
58.500        13
58.510        13
58.520         0
58.530        13
58.540         7
58.550         7
58.560        13
58.570        13
58.580        20
58.590         7
58.600        33
58.610         7
58.620         0
58.630        20
58.640        20
58.650        27
58.660        27
58.670        27
58.680        33
58.690        13
58.700        27
58.710        13
58.720         7
58.730        13
58.740        13
58.750        13
58.760         7
58.770        20
58.780        13
58.790         0
58.800        13
58.810        20
58.820        13
58.830        13
58.840         0
58.850        13
58.860        20
58.870         0
58.880         7
58.890         7
58.900        13
58.910         7
58.920        20
58.930        53
58.940         7
58.950         0
58.960         7
58.970        33
58.980        13
58.990        13
59.000        20
59.010        27
59.020        33
59.030         7
59.040        27
59.050        20
59.060        33
59.070        27
59.080        33
59.090        13
59.100        20
59.110         7
59.120        13
59.130         0
59.140         0
59.150        40
59.160        27
59.170        27
59.180        13
59.190        13
59.200         0
59.210        27
59.220        20
59.230        13
59.240         7
59.250         7
59.260        20
59.270         7
59.280        13
59.290         7
59.300        27
59.310        20
59.320        33
59.330        33
59.340        13
59.350        13
59.360        40
59.370        27
59.380        13
59.390         7
59.400        20
59.410        20
59.420        33
59.430         7
59.440        20
59.450        40
59.460         0
59.470        13
59.480        13
59.490        13
59.500         7
59.510        27
59.520         0
59.530        13
59.540         7
59.550        20
59.560         0
59.570        13
59.580        33
59.590        27
59.600        20
59.610         7
59.620         7
59.630         0
59.640         0
59.650        20
59.660        20
59.670        13
59.680         7
59.690        13
59.700         7
59.710         7
59.720         0
59.730        27
59.740         0
59.750         7
59.760         0
59.770        27
59.780        33
59.790         7
59.800        20
59.810        13
59.820         0
59.830        20
59.840        13
59.850        20
59.860        20
59.870         0
59.880        27
59.890        33
59.900        33
59.910        33
59.920         7
59.930         7
59.940        13
59.950         0
59.960        27
59.970        20
59.980        20
59.990        13
60.000        27
