20.000        47
20.010        47
20.020        47
20.030        40
20.040        73
20.050        27
20.060        47
20.070        27
20.080        40
20.090        60
20.100        47
20.110        40
20.120        60
20.130        20
20.140        27
20.150        13
20.160        80
20.170        53
20.180        33
20.190        67
20.200        33
20.210        53
20.220        47
20.230        20
20.240        40
20.250        53
20.260        47
20.270        53
20.280        40
20.290        47
20.300        27
20.310        40
20.320        27
20.330        47
20.340        33
20.350        47
20.360        33
20.370        27
20.380        40
20.390        53
20.400        47
20.410        53
20.420        47
20.430        40
20.440        27
20.450        67
20.460        20
20.470        27
20.480        60
20.490        87
20.500        20
20.510        40
20.520        33
20.530        53
20.540        33
20.550        33
20.560        27
20.570        40
20.580        40
20.590        47
20.600        20
20.610        47
20.620        53
20.630        73
20.640        20
20.650        53
20.660        40
20.670        27
20.680        33
20.690        60
20.700         7
20.710        33
20.720        40
20.730        53
20.740        40
20.750        40
20.760        73
20.770        33
20.780        67
20.790        47
20.800        53
20.810        40
20.820        47
20.830        60
20.840        20
20.850        33
20.860        33
20.870        33
20.880        67
20.890        33
20.900        40
20.910        40
20.920        67
20.930        47
20.940        47
20.950        27
20.960        47
20.970        47
20.980        27
20.990        33
21.000        33
21.010        40
21.020        87
21.030        40
21.040        53
21.050        47
21.060        80
21.070        53
21.080        33
21.090        73
21.100        53
21.110        33
21.120        20
21.130        40
21.140        27
21.150         7
21.160        60
21.170        80
21.180        20
21.190        60
21.200        33
21.210        53
21.220        47
21.230        33
21.240        53
21.250        53
21.260        53
21.270        47
21.280        67
21.290        80
21.300        20
21.310        33
21.320        40
21.330        27
21.340        60
21.350        47
21.360        87
21.370        20
21.380        80
21.390        40
21.400        27
21.410        47
21.420        40
21.430        27
21.440        40
21.450        47
21.460        53
21.470        67
21.480        40
21.490        40
21.500        40
21.510        27
21.520        40
21.530         7
21.540        33
21.550        33
21.560        60
21.570        13
21.580        60
21.590        27
21.600        53
21.610        13
21.620        33
21.630        40
21.640        53
21.650        13
21.660        20
21.670        33
21.680        40
21.690        40
21.700        40
21.710        27
21.720        40
21.730        47
21.740        27
21.750        20
21.760        33
21.770        33
21.780        13
21.790        40
21.800        27
21.810        20
21.820        53
21.830        47
21.840        27
21.850        27
21.860        47
21.870        20
21.880        67
21.890        27
21.900        33
21.910        60
21.920        40
21.930        40
21.940        60
21.950        40
21.960        60
21.970        13
21.980        27
21.990        33
22.000        20
22.010        40
22.020        40
22.030        20
22.040        33
22.050        20
22.060        47
22.070        60
22.080        40
22.090        27
22.100        40
22.110        20
22.120        40
22.130        60
22.140        67
22.150        47
22.160        60
22.170        27
22.180        33
22.190        53
22.200        27
22.210        67
22.220        60
22.230        40
22.240        67
22.250        53
22.260        60
22.270        40
22.280        53
22.290        40
22.300        60
22.310        60
22.320        40
22.330        80
22.340        40
22.350        53
22.360        80
22.370        73
22.380        47
22.390        33
22.400        80
22.410        67
22.420        67
22.430        67
22.440        73
22.450        87
22.460        93
22.470        87
22.480       100
22.490        80
22.500        53
22.510        80
22.520       120
22.530       107
22.540       113
22.550        53
22.560        60
22.570        47
22.580        40
22.590        27
22.600        40
22.610        40
22.620        73
22.630        47
22.640        20
22.650        40
22.660        33
22.670        47
22.680        40
22.690        53
22.700        27
22.710        47
22.720        47
22.730        67
22.740        27
22.750        40
22.760        27
22.770        47
22.780        47
22.790        47
22.800        20
22.810        60
22.820        67
22.830        40
22.840        13
22.850        20
22.860        47
22.870        47
22.880        53
22.890        40
22.900        20
22.910        27
22.920        33
22.930        47
22.940        40
22.950        33
22.960        67
22.970        67
22.980        47
22.990        33
23.000        27
23.010        13
23.020        20
23.030        47
23.040        47
23.050        27
23.060        40
23.070        53
23.080        27
23.090        27
23.100        33
23.110        33
23.120        40
23.130        20
23.140        33
23.150        13
23.160        60
23.170        40
23.180        40
23.190        40
23.200        27
23.210         7
23.220        20
23.230        53
23.240        27
23.250        53
23.260        27
23.270        13
23.280        33
23.290        47
23.300        47
23.310        27
23.320        40
23.330        20
23.340        13
23.350        27
23.360        20
23.370        40
23.380        33
23.390        73
23.400        20
23.410        20
23.420        47
23.430        47
23.440        60
23.450        20
23.460        40
23.470        40
23.480        40
23.490        20
23.500        73
23.510        27
23.520        67
23.530        33
23.540        33
23.550        40
23.560        40
23.570        40
23.580        27
23.590        47
23.600        47
23.610         7
23.620        40
23.630        47
23.640        47
23.650        27
23.660        47
23.670        47
23.680        33
23.690        20
23.700        33
23.710        47
23.720        27
23.730        27
23.740        27
23.750        53
23.760        53
23.770        73
23.780        53
23.790        40
23.800        60
23.810        53
23.820         7
23.830        40
23.840        40
23.850        27
23.860        27
23.870        53
23.880        20
23.890        33
23.900        47
23.910        33
23.920        20
23.930        40
23.940        47
23.950        27
23.960        40
23.970        33
23.980        13
23.990        53
24.000         0
24.010        53
24.020        27
24.030        40
24.040        33
24.050        40
24.060        27
24.070        53
24.080        53
24.090        27
24.100        40
24.110        27
24.120        60
24.130        40
24.140        33
24.150        33
24.160        33
24.170        40
24.180        53
24.190         7
24.200        27
24.210        20
24.220        53
24.230         7
24.240        40
24.250        33
24.260        60
24.270        33
24.280        53
24.290        60
24.300        53
24.310        13
24.320        27
24.330        27
24.340        33
24.350        40
24.360        53
24.370        20
24.380        27
24.390        40
24.400        27
24.410        13
24.420        33
24.430        33
24.440        20
24.450        47
24.460        13
24.470         7
24.480        33
24.490        40
24.500        33
24.510        20
24.520        13
24.530        33
24.540        27
24.550        47
24.560        73
24.570        27
24.580        20
24.590        27
24.600        53
24.610        40
24.620        20
24.630        27
24.640        47
24.650        47
24.660        20
24.670        20
24.680        53
24.690        33
24.700        40
24.710        47
24.720        13
24.730        20
24.740        27
24.750        73
24.760        40
24.770        27
24.780        40
24.790        40
24.800        27
24.810        60
24.820        40
24.830        27
24.840        53
24.850        47
24.860        53
24.870        27
24.880        47
24.890        40
24.900        13
24.910        27
24.920        13
24.930        27
24.940        53
24.950        27
24.960        47
24.970        33
24.980        40
24.990        27
25.000        27
25.010        40
25.020        27
25.030        47
25.040        33
25.050         7
25.060        47
25.070        47
25.080        33
25.090        13
25.100        33
25.110        47
25.120        53
25.130        40
25.140        27
25.150        47
25.160        20
25.170        27
25.180        47
25.190        27
25.200        53
25.210        40
25.220        27
25.230        33
25.240        33
25.250        20
25.260        40
25.270         7
25.280        27
25.290        80
25.300        13
25.310        27
25.320        27
25.330        53
25.340        27
25.350        53
25.360        40
25.370        67
25.380        87
25.390        67
25.400        67
25.410        67
25.420        93
25.430        47
25.440        67
25.450        87
25.460        53
25.470        47
25.480        40
25.490        60
25.500        53
25.510        73
25.520        40
25.530       100
25.540       100
25.550       100
25.560       140
25.570        67
25.580       120
25.590       153
25.600       153
25.610       107
25.620        47
25.630        73
25.640        60
25.650        53
25.660        60
25.670        27
25.680        27
25.690        27
25.700        40
25.710        60
25.720        27
25.730         0
25.740        27
25.750        13
25.760        33
25.770        27
25.780        20
25.790        13
25.800        20
25.810         7
25.820        13
25.830        20
25.840        13
25.850        27
25.860        13
25.870        60
25.880         7
25.890        33
25.900        40
25.910        33
25.920        20
25.930        40
25.940        40
25.950        40
25.960        53
25.970        53
25.980        13
25.990        27
26.000        27
26.010        27
26.020        33
26.030        27
26.040         0
26.050        27
26.060        13
26.070        27
26.080        27
26.090        27
26.100        27
26.110        20
26.120        20
26.130        40
26.140        13
26.150         7
26.160        20
26.170        13
26.180        40
26.190        13
26.200         7
26.210        33
26.220        13
26.230        27
26.240        33
26.250         7
26.260        13
26.270        60
26.280        53
26.290        40
26.300        33
26.310        13
26.320        27
26.330        27
26.340        33
26.350         7
26.360        33
26.370        40
26.380        27
26.390        20
26.400        47
26.410        27
26.420        40
26.430        13
26.440        33
26.450        40
26.460        27
26.470        33
26.480        20
26.490         7
26.500        33
26.510        27
26.520        33
26.530        20
26.540        40
26.550        13
26.560        53
26.570        40
26.580        27
26.590        27
26.600         7
26.610        47
26.620        40
26.630        13
26.640        20
26.650        27
26.660        13
26.670        33
26.680        33
26.690        53
26.700        47
26.710        33
26.720        20
26.730        33
26.740        20
26.750        13
26.760        20
26.770        40
26.780         7
26.790        27
26.800        40
26.810        13
26.820        33
26.830        33
26.840        20
26.850        33
26.860        33
26.870        20
26.880         7
26.890         7
26.900        13
26.910        40
26.920        13
26.930        13
26.940        27
26.950        40
26.960        13
26.970         0
26.980        33
26.990        20
27.000        13
27.010        20
27.020        60
27.030        40
27.040        47
27.050        47
27.060        27
27.070        40
27.080        13
27.090        33
27.100        40
27.110        20
27.120        33
27.130        40
27.140        20
27.150        40
27.160        20
27.170        20
27.180        13
27.190        40
27.200         7
27.210        20
27.220        33
27.230        13
27.240        47
27.250        27
27.260        27
27.270        47
27.280        33
27.290        13
27.300        33
27.310         0
27.320        33
27.330        13
27.340        20
27.350        53
27.360        40
27.370        20
27.380        20
27.390        13
27.400        47
27.410        27
27.420        20
27.430        47
27.440        27
27.450        33
27.460        20
27.470        13
27.480        27
27.490        13
27.500        27
27.510        13
27.520        20
27.530        40
27.540        13
27.550        27
27.560        33
27.570        47
27.580        27
27.590        20
27.600        20
27.610        13
27.620        20
27.630        47
27.640        33
27.650        27
27.660        20
27.670        13
27.680        53
27.690        27
27.700        60
27.710        13
27.720        53
27.730        33
27.740         0
27.750        33
27.760        27
27.770        20
27.780        20
27.790        40
27.800        20
27.810        33
27.820        40
27.830        40
27.840        33
27.850        20
27.860        33
27.870        27
27.880        33
27.890        13
27.900        27
27.910        27
27.920        53
27.930        20
27.940         7
27.950        33
27.960        20
27.970        33
27.980         7
27.990        47
28.000        40
28.010         7
28.020        33
28.030        60
28.040         7
28.050        13
28.060        20
28.070        33
28.080        33
28.090        40
28.100        33
28.110        13
28.120        40
28.130        20
28.140        20
28.150        13
28.160         7
28.170        20
28.180        20
28.190         7
28.200        53
28.210        33
28.220        13
28.230        27
28.240        13
28.250        33
28.260        27
28.270        47
28.280        40
28.290        20
28.300        27
28.310        47
28.320        60
28.330        13
28.340        20
28.350        27
28.360         7
28.370        33
28.380        47
28.390        33
28.400        33
28.410        27
28.420        27
28.430        20
28.440        27
28.450        47
28.460        27
28.470         0
28.480        40
28.490         7
28.500        20
28.510        27
28.520        27
28.530         7
28.540        13
28.550        27
28.560        20
28.570        27
28.580        13
28.590        40
28.600        47
28.610        13
28.620        40
28.630        13
28.640        27
28.650        27
28.660        47
28.670        53
28.680        33
28.690         7
28.700        13
28.710        33
28.720        13
28.730        20
28.740        60
28.750        47
28.760        20
28.770        27
28.780        27
28.790        33
28.800        53
28.810        27
28.820        27
28.830        20
28.840        40
28.850        67
28.860        13
28.870        47
28.880        13
28.890        33
28.900        20
28.910        13
28.920        33
28.930        33
28.940        20
28.950        33
28.960        27
28.970        27
28.980        47
28.990        13
29.000        33
29.010        40
29.020        27
29.030        40
29.040        20
29.050         7
29.060        20
29.070        13
29.080         0
29.090        27
29.100        27
29.110        47
29.120        13
29.130        40
29.140        13
29.150        53
29.160        47
29.170        27
29.180        20
29.190        33
29.200        33
29.210        27
29.220        40
29.230        27
29.240        53
29.250        33
29.260        27
29.270        33
29.280        20
29.290        20
29.300        47
29.310        53
29.320        13
29.330        20
29.340        20
29.350        27
29.360        20
29.370        40
29.380        40
29.390        47
29.400         7
29.410        40
29.420        33
29.430        33
29.440        33
29.450        27
29.460        13
29.470        20
29.480        27
29.490        27
29.500        33
29.510        33
29.520        13
29.530        20
29.540        13
29.550        33
29.560        40
29.570        20
29.580        33
29.590        40
29.600        33
29.610        27
29.620        27
29.630        27
29.640        47
29.650        33
29.660         7
29.670         7
29.680        20
29.690        20
29.700        33
29.710        13
29.720        13
29.730        27
29.740        33
29.750        27
29.760         7
29.770        20
29.780        20
29.790        20
29.800        27
29.810        20
29.820         7
29.830        20
29.840        13
29.850        27
29.860        27
29.870        13
29.880        27
29.890        40
29.900        33
29.910        33
29.920        20
29.930        20
29.940        13
29.950         7
29.960         0
29.970        33
29.980        47
29.990        13
30.000        40
30.010        33
30.020         7
30.030        33
30.040        13
30.050        33
30.060        40
30.070        20
30.080        33
30.090        53
30.100        13
30.110        13
30.120        13
30.130        13
30.140        20
30.150        20
30.160        20
30.170        53
30.180        33
30.190        13
30.200        27
30.210        13
30.220        20
30.230        53
30.240        20
30.250        27
30.260        33
30.270        13
30.280        33
30.290        20
30.300        33
30.310        20
30.320        20
30.330         7
30.340        20
30.350        40
30.360        20
30.370         7
30.380        20
30.390         0
30.400        20
30.410        20
30.420        13
30.430         7
30.440        27
30.450        40
30.460        33
30.470        33
30.480        27
30.490        33
30.500         7
30.510        27
30.520         0
30.530        20
30.540        40
30.550        27
30.560        27
30.570        33
30.580        33
30.590        27
30.600        20
30.610        20
30.620        13
30.630        27
30.640        13
30.650         7
30.660        20
30.670        20
30.680        20
30.690        40
30.700        20
30.710        20
30.720        40
30.730        13
30.740        13
30.750         7
30.760         0
30.770        53
30.780        40
30.790        13
30.800        13
30.810        53
30.820         7
30.830        40
30.840         0
30.850        33
30.860        13
30.870        13
30.880        40
30.890        47
30.900        33
30.910        27
30.920        20
30.930        40
30.940        27
30.950        27
30.960        20
30.970        40
30.980        20
30.990        20
31.000        20
31.010        27
31.020        27
31.030        53
31.040        13
31.050        13
31.060        27
31.070        33
31.080        20
31.090        20
31.100        53
31.110         7
31.120        40
31.130        27
31.140        27
31.150        27
31.160        27
31.170        13
31.180        40
31.190        27
31.200        20
31.210        20
31.220        13
31.230        20
31.240        27
31.250        67
31.260        60
31.270        27
31.280        33
31.290        47
31.300        47
31.310        60
31.320        33
31.330        40
31.340        27
31.350        33
31.360        27
31.370        20
31.380        47
31.390        27
31.400        20
31.410        60
31.420        20
31.430        13
31.440         7
31.450        33
31.460        40
31.470        27
31.480        20
31.490        33
31.500         7
31.510         0
31.520        20
31.530        13
31.540        33
31.550        20
31.560        27
31.570        33
31.580        33
31.590        47
31.600        20
31.610        33
31.620        47
31.630        27
31.640        33
31.650        33
31.660        67
31.670        27
31.680        60
31.690        27
31.700        47
31.710        47
31.720        47
31.730        93
31.740        53
31.750        53
31.760        67
31.770        87
31.780       127
31.790        60
31.800       127
31.810        93
31.820       153
31.830       133
31.840       167
31.850       133
31.860       180
31.870       233
31.880       193
31.890       160
31.900       233
31.910       180
31.920       140
31.930       140
31.940       233
31.950       193
31.960       240
31.970       187
31.980       173
31.990       133
32.000       107
32.010       127
32.020       107
32.030       160
32.040       100
32.050       153
32.060        80
32.070       113
32.080        87
32.090        60
32.100        53
32.110        40
32.120        67
32.130        40
32.140        33
32.150        47
32.160        60
32.170        53
32.180        47
32.190        40
32.200        27
32.210        20
32.220        33
32.230        33
32.240        47
32.250        53
32.260        33
32.270        33
32.280        27
32.290        27
32.300         7
32.310         7
32.320        13
32.330        27
32.340        27
32.350        60
32.360        27
32.370        33
32.380        27
32.390        13
32.400        13
32.410        33
32.420         7
32.430        40
32.440        40
32.450        33
32.460        33
32.470         7
32.480        40
32.490        33
32.500        53
32.510        13
32.520        53
32.530        13
32.540        33
32.550        20
32.560        20
32.570        13
32.580        20
32.590        33
32.600        13
32.610        20
32.620        27
32.630        27
32.640        27
32.650        20
32.660        27
32.670         0
32.680        47
32.690        20
32.700        27
32.710        20
32.720        20
32.730        20
32.740        20
32.750        20
32.760        33
32.770        20
32.780        47
32.790        13
32.800        20
32.810        20
32.820        27
32.830        13
32.840        33
32.850        20
32.860        13
32.870        13
32.880        20
32.890         7
32.900        33
32.910        33
32.920        13
32.930        13
32.940        20
32.950        40
32.960        13
32.970        20
32.980        27
32.990        20
33.000        33
33.010        47
33.020        20
33.030        20
33.040        13
33.050        13
33.060        53
33.070        33
33.080        40
33.090         7
33.100        13
33.110        27
33.120        13
33.130        13
33.140        33
33.150        27
33.160        20
33.170        27
33.180         7
33.190        47
33.200        20
33.210         7
33.220        13
33.230        20
33.240         7
33.250         7
33.260        47
33.270        20
33.280        13
33.290         0
33.300        20
33.310        13
33.320        33
33.330        20
33.340        20
33.350        13
33.360        53
33.370        20
33.380        27
33.390        13
33.400        40
33.410        27
33.420        13
33.430         7
33.440        13
33.450        33
33.460        20
33.470         7
33.480        20
33.490        27
33.500         7
33.510         7
33.520        27
33.530        33
33.540        33
33.550        20
33.560        33
33.570         0
33.580        13
33.590         7
33.600        20
33.610        20
33.620        40
33.630        20
33.640        20
33.650        27
33.660        40
33.670         7
33.680        20
33.690        13
33.700        33
33.710        33
33.720        13
33.730        33
33.740        20
33.750         7
33.760        27
33.770        20
33.780        20
33.790        20
33.800         7
33.810        33
33.820         7
33.830         7
33.840        20
33.850        33
33.860        33
33.870        13
33.880        13
33.890        13
33.900        27
33.910        40
33.920         7
33.930        27
33.940        20
33.950         7
33.960        20
33.970        33
33.980        13
33.990        20
34.000        20
34.010        13
34.020        20
34.030        27
34.040        20
34.050        33
34.060        40
34.070        47
34.080        27
34.090        33
34.100        33
34.110        20
34.120        40
34.130        27
34.140        27
34.150        13
34.160        13
34.170        27
34.180        27
34.190        33
34.200        20
34.210        27
34.220        13
34.230        40
34.240        27
34.250         7
34.260        20
34.270        20
34.280        27
34.290        47
34.300        20
34.310        20
34.320        20
34.330        20
34.340        33
34.350        40
34.360        20
34.370        47
34.380        13
34.390         7
34.400        33
34.410        33
34.420        20
34.430        20
34.440        27
34.450        13
34.460        33
34.470        13
34.480        33
34.490         0
34.500        27
34.510        13
34.520        20
34.530        33
34.540         0
34.550        33
34.560        33
34.570        27
34.580         7
34.590         7
34.600        13
34.610        20
34.620        27
34.630        47
34.640         7
34.650        20
34.660        20
34.670        13
34.680        20
34.690        13
34.700        13
34.710        27
34.720         0
34.730        13
34.740        33
34.750        33
34.760         0
34.770        27
34.780        40
34.790        20
34.800        33
34.810        13
34.820        47
34.830         7
34.840        20
34.850        13
34.860        20
34.870        27
34.880        40
34.890         7
34.900        33
34.910        20
34.920        13
34.930        27
34.940        20
34.950        33
34.960        27
34.970        40
34.980        20
34.990        53
35.000        60
35.010        27
35.020        67
35.030       107
35.040       100
35.050        93
35.060        93
35.070        60
35.080        27
35.090       127
35.100       120
35.110       167
35.120       133
35.130       207
35.140       213
35.150       287
35.160       193
35.170       247
35.180       187
35.190       213
35.200       233
35.210       127
35.220       180
35.230       147
35.240        93
35.250       100
35.260        93
35.270       107
35.280       133
35.290        93
35.300        67
35.310        33
35.320        47
35.330        80
35.340        40
35.350        47
35.360        33
35.370        40
35.380        13
35.390        27
35.400        27
35.410        13
35.420        33
35.430         7
35.440        13
35.450        27
35.460        47
35.470        40
35.480        20
35.490        40
35.500        40
35.510         0
35.520        13
35.530        20
35.540        27
35.550        40
35.560         7
35.570        20
35.580        13
35.590        13
35.600        33
35.610         0
35.620        20
35.630        40
35.640        20
35.650        60
35.660        33
35.670        33
35.680        33
35.690        13
35.700         7
35.710        33
35.720        47
35.730         7
35.740        27
35.750        40
35.760        27
35.770        27
35.780        60
35.790        33
35.800        20
35.810        33
35.820        13
35.830         7
35.840        13
35.850        13
35.860        40
35.870         7
35.880         7
35.890         7
35.900        20
35.910        13
35.920        40
35.930        20
35.940        13
35.950        27
35.960        27
35.970        20
35.980        27
35.990        13
36.000        27
36.010        40
36.020        20
36.030        20
36.040        13
36.050         7
36.060        13
36.070        13
36.080         7
36.090         7
36.100        13
36.110        13
36.120        27
36.130        13
36.140        27
36.150        40
36.160        27
36.170        60
36.180        13
36.190        33
36.200        33
36.210        20
36.220        20
36.230        33
36.240        33
36.250         0
36.260        20
36.270         7
36.280        20
36.290         0
36.300        33
36.310        13
36.320        20
36.330        20
36.340         7
36.350        33
36.360        13
36.370        33
36.380        33
36.390        27
36.400        27
36.410        20
36.420        33
36.430        33
36.440        20
36.450        27
36.460        20
36.470        27
36.480        13
36.490        40
36.500         7
36.510        13
36.520         7
36.530        40
36.540        40
36.550        13
36.560        13
36.570        53
36.580         7
36.590        47
36.600        40
36.610        40
36.620        33
36.630        27
36.640        13
36.650        13
36.660         0
36.670        20
36.680        13
36.690         7
36.700        27
36.710        20
36.720        20
36.730         7
36.740        20
36.750        33
36.760        33
36.770        13
36.780         7
36.790         7
36.800        13
36.810        20
36.820        33
36.830        27
36.840        40
36.850        33
36.860        47
36.870        40
36.880         7
36.890        27
36.900        33
36.910        13
36.920        33
36.930        20
36.940        27
36.950        40
36.960        20
36.970         7
36.980        20
36.990        40
37.000        20
37.010        27
37.020        40
37.030         7
37.040        40
37.050        13
37.060         7
37.070         7
37.080        27
37.090        13
37.100        40
37.110         7
37.120         7
37.130        27
37.140        13
37.150        13
37.160        13
37.170        20
37.180        27
37.190        33
37.200        13
37.210        27
37.220        13
37.230        33
37.240        40
37.250        33
37.260        40
37.270         0
37.280         7
37.290         7
37.300         7
37.310         0
37.320         7
37.330        67
37.340        13
37.350        20
37.360        13
37.370        13
37.380        20
37.390        27
37.400        53
37.410        20
37.420        33
37.430        13
37.440        67
37.450        33
37.460        20
37.470         7
37.480         7
37.490        20
37.500        47
37.510         7
37.520        13
37.530        13
37.540        20
37.550        27
37.560        20
37.570        33
37.580        33
37.590        13
37.600        20
37.610        33
37.620        20
37.630        13
37.640        27
37.650        27
37.660        13
37.670        20
37.680        27
37.690        53
37.700        53
37.710        20
37.720        13
37.730        33
37.740        40
37.750         7
37.760        33
37.770        47
37.780         7
37.790        27
37.800        53
37.810        53
37.820        60
37.830        33
37.840        33
37.850        20
37.860        67
37.870        33
37.880        20
37.890        33
37.900        27
37.910         0
37.920        27
37.930        33
37.940         7
37.950        53
37.960        20
37.970        13
37.980        13
37.990        20
38.000        13
38.010        20
38.020        27
38.030        27
38.040        13
38.050        13
38.060        20
38.070        27
38.080        20
38.090        40
38.100        13
38.110        13
38.120        20
38.130        47
38.140        27
38.150        13
38.160        53
38.170        20
38.180        13
38.190         7
38.200        20
38.210        13
38.220        33
38.230        33
38.240        40
38.250         7
38.260        33
38.270        27
38.280        33
38.290        20
38.300        13
38.310         7
38.320        20
38.330        13
38.340        13
38.350        13
38.360        27
38.370        13
38.380        13
38.390         7
38.400        27
38.410        20
38.420         7
38.430        20
38.440         7
38.450        27
38.460         7
38.470        27
38.480         7
38.490        20
38.500        40
38.510        27
38.520        20
38.530         7
38.540         7
38.550        27
38.560         0
38.570        20
38.580        20
38.590        40
38.600        33
38.610        33
38.620        20
38.630        20
38.640        20
38.650         7
38.660         7
38.670        20
38.680        13
38.690        20
38.700        40
38.710        20
38.720        13
38.730        53
38.740        40
38.750        47
38.760        33
38.770        20
38.780        20
38.790        13
38.800        33
38.810         7
38.820         7
38.830        53
38.840        13
38.850        40
38.860        13
38.870        20
38.880        20
38.890        13
38.900        20
38.910        13
38.920        47
38.930        20
38.940        40
38.950         7
38.960        20
38.970         0
38.980        13
38.990        27
39.000        27
39.010         7
39.020        27
39.030        13
39.040        20
39.050        20
39.060        20
39.070        13
39.080        20
39.090        33
39.100        33
39.110        27
39.120        13
39.130        27
39.140         7
39.150        13
39.160        27
39.170         0
39.180        33
39.190        40
39.200        27
39.210        13
39.220        20
39.230        33
39.240        33
39.250        40
39.260        47
39.270        53
39.280        47
39.290        53
39.300        40
39.310        47
39.320        20
39.330        13
39.340        67
39.350        40
39.360        33
39.370        27
39.380        47
39.390        53
39.400        67
39.410        67
39.420        40
39.430        67
39.440        53
39.450        73
39.460        53
39.470        47
39.480        73
39.490        93
39.500        80
39.510        67
39.520        60
39.530        53
39.540        47
39.550        53
39.560        47
39.570        47
39.580        20
39.590        33
39.600        47
39.610        13
39.620        20
39.630        27
39.640        40
39.650        40
39.660        20
39.670        33
39.680        27
39.690        13
39.700         7
39.710        20
39.720         0
39.730        13
39.740        20
39.750        20
39.760        47
39.770        27
39.780        33
39.790         7
39.800        20
39.810        20
39.820         7
39.830         7
39.840        20
39.850        40
39.860         0
39.870        27
39.880        40
39.890        20
39.900        20
39.910        20
39.920        13
39.930        20
39.940        13
39.950        27
39.960        13
39.970        13
39.980         7
39.990        47
40.000         7
40.010        13
40.020         0
40.030         0
40.040        13
40.050         7
40.060        20
40.070        27
40.080         7
40.090        27
40.100        13
40.110        13
40.120        27
40.130        33
40.140        33
40.150        20
40.160        20
40.170        13
40.180        20
40.190        20
40.200        33
40.210        20
40.220        20
40.230         7
40.240        27
40.250        27
40.260        13
40.270        13
40.280        13
40.290        13
40.300         7
40.310        27
40.320         7
40.330        47
40.340        13
40.350         7
40.360        20
40.370         7
40.380        20
40.390        27
40.400         0
40.410         7
40.420         7
40.430        13
40.440         7
40.450        27
40.460        20
40.470        27
40.480        13
40.490         0
40.500        13
40.510        33
40.520         7
40.530        20
40.540        20
40.550         7
40.560        27
40.570        20
40.580        27
40.590        33
40.600        33
40.610        33
40.620        20
40.630         7
40.640        33
40.650         7
40.660        27
40.670        20
40.680         7
40.690        27
40.700        33
40.710         7
40.720         7
40.730        27
40.740        13
40.750        27
40.760        20
40.770        20
40.780        13
40.790        13
40.800         0
40.810        27
40.820        27
40.830        27
40.840        33
40.850        13
40.860        20
40.870        27
40.880        20
40.890        53
40.900        27
40.910        27
40.920        33
40.930         7
40.940        27
40.950        33
40.960         0
40.970        27
40.980        33
40.990        27
41.000        33
41.010        20
41.020        27
41.030        20
41.040        20
41.050         7
41.060        27
41.070        13
41.080        13
41.090        13
41.100        13
41.110         7
41.120        20
41.130        27
41.140        20
41.150        20
41.160         7
41.170        33
41.180        27
41.190        27
41.200         0
41.210        27
41.220         7
41.230        13
41.240        13
41.250        13
41.260        13
41.270        40
41.280        27
41.290        47
41.300        20
41.310         0
41.320        13
41.330        13
41.340         7
41.350        20
41.360        13
41.370        20
41.380        20
41.390        33
41.400        20
41.410        33
41.420        13
41.430         7
41.440        33
41.450        27
41.460        13
41.470         7
41.480        20
41.490         7
41.500        27
41.510        20
41.520        27
41.530        47
41.540        33
41.550         0
41.560        27
41.570        60
41.580        20
41.590        47
41.600        33
41.610        27
41.620        80
41.630        40
41.640        60
41.650       113
41.660        87
41.670        87
41.680       107
41.690        93
41.700        80
41.710        93
41.720        73
41.730        47
41.740        40
41.750        60
41.760        53
41.770        33
41.780        40
41.790        73
41.800        40
41.810        60
41.820        33
41.830        47
41.840        40
41.850        13
41.860        13
41.870        27
41.880        20
41.890        33
41.900        20
41.910         7
41.920        27
41.930        13
41.940        27
41.950        27
41.960        47
41.970        33
41.980        33
41.990        20
42.000        13
42.010        13
42.020        27
42.030         7
42.040        20
42.050        13
42.060        20
42.070         7
42.080        13
42.090        33
42.100         7
42.110        20
42.120        33
42.130        20
42.140        20
42.150        20
42.160        20
42.170        13
42.180        20
42.190        27
42.200        20
42.210         7
42.220         7
42.230        20
42.240        40
42.250         7
42.260        13
42.270        20
42.280        33
42.290        27
42.300        13
42.310        27
42.320         7
42.330         7
42.340        13
42.350        40
42.360        20
42.370        27
42.380        33
42.390        27
42.400        20
42.410         7
42.420        13
42.430        33
42.440         7
42.450         7
42.460        27
42.470         7
42.480         7
42.490        13
42.500        27
42.510        27
42.520        20
42.530        13
42.540        33
42.550        33
42.560        20
42.570         7
42.580        13
42.590        13
42.600        13
42.610         7
42.620        20
42.630        33
42.640        13
42.650        13
42.660        20
42.670         7
42.680        13
42.690        13
42.700        13
42.710        20
42.720        27
42.730         7
42.740        27
42.750        33
42.760        33
42.770        13
42.780        20
42.790        20
42.800        27
42.810        13
42.820         0
42.830        20
42.840         7
42.850        20
42.860        20
42.870        13
42.880        27
42.890        27
42.900        33
42.910        13
42.920        53
42.930         7
42.940         0
42.950         0
42.960        20
42.970        20
42.980        13
42.990        13
43.000        20
43.010        27
43.020        27
43.030        33
43.040        27
43.050        20
43.060        13
43.070         7
43.080        13
43.090        33
43.100        33
43.110        33
43.120        47
43.130        13
43.140        27
43.150        60
43.160        20
43.170        53
43.180        27
43.190        40
43.200        27
43.210        27
43.220        33
43.230        40
43.240         7
43.250        60
43.260        60
43.270        67
43.280        40
43.290        47
43.300        60
43.310        80
43.320       107
43.330       147
43.340       220
43.350       260
43.360       407
43.370       293
43.380       293
43.390       340
43.400       207
43.410       167
43.420       133
43.430        80
43.440        87
43.450       127
43.460       133
43.470       173
43.480        93
43.490       167
43.500       160
43.510       120
43.520        93
43.530       100
43.540        60
43.550        47
43.560        47
43.570        33
43.580        13
43.590        33
43.600        13
43.610        13
43.620        53
43.630        27
43.640        27
43.650        20
43.660         7
43.670        27
43.680        13
43.690        13
43.700        20
43.710        27
43.720        20
43.730        27
43.740        20
43.750         7
43.760        20
43.770         7
43.780         7
43.790         7
43.800         7
43.810        20
43.820        27
43.830        40
43.840         7
43.850        13
43.860        13
43.870        27
43.880        33
43.890         7
43.900        33
43.910        27
43.920        27
43.930         7
43.940        13
43.950        20
43.960        13
43.970         7
43.980         0
43.990        13
44.000        20
44.010         7
44.020        27
44.030        13
44.040        13
44.050        13
44.060        13
44.070        20
44.080        13
44.090        33
44.100        27
44.110        27
44.120         7
44.130        33
44.140         7
44.150        33
44.160         7
44.170        20
44.180        27
44.190        13
44.200        27
44.210        20
44.220        13
44.230        27
44.240         0
44.250        33
44.260         7
44.270        13
44.280        20
44.290        20
44.300        13
44.310        20
44.320        60
44.330        13
44.340        20
44.350        13
44.360        33
44.370         7
44.380         0
44.390        33
44.400        20
44.410         7
44.420        33
44.430         7
44.440        13
44.450        27
44.460         7
44.470         7
44.480        13
44.490        33
44.500        20
44.510        13
44.520         7
44.530        27
44.540        13
44.550        13
44.560        13
44.570        40
44.580        20
44.590        20
44.600        20
44.610        13
44.620        27
44.630        33
44.640         7
44.650         7
44.660        27
44.670        27
44.680        27
44.690        20
44.700         7
44.710        33
44.720        33
44.730         0
44.740         7
44.750        27
44.760        20
44.770        13
44.780        20
44.790        27
44.800        20
44.810        13
44.820        33
44.830         7
44.840        33
44.850         7
44.860        27
44.870        27
44.880         7
44.890        20
44.900        27
44.910        20
44.920        13
44.930        47
44.940        33
44.950        40
44.960        40
44.970        27
44.980        27
44.990        53
45.000        47
45.010        20
45.020        13
45.030        20
45.040        20
45.050        20
45.060        20
45.070        40
45.080         7
45.090        33
45.100        20
45.110         7
45.120        20
45.130        27
45.140         7
45.150        20
45.160        20
45.170        20
45.180         7
45.190        13
45.200         7
45.210        20
45.220        60
45.230        13
45.240        13
45.250        27
45.260        33
45.270         7
45.280        13
45.290        47
45.300         7
45.310        20
45.320        27
45.330        40
45.340        27
45.350        27
45.360        20
45.370         7
45.380        27
45.390        20
45.400        33
45.410        47
45.420        40
45.430        27
45.440        20
45.450        33
45.460         0
45.470        33
45.480        20
45.490        33
45.500        13
45.510        33
45.520        13
45.530        53
45.540        53
45.550        40
45.560        40
45.570        40
45.580        73
45.590        87
45.600        13
45.610        47
45.620        80
45.630        60
45.640        33
45.650        87
45.660        27
45.670        87
45.680        87
45.690       187
45.700       140
45.710       120
45.720       113
45.730       160
45.740       133
45.750       133
45.760        93
45.770       160
45.780       193
45.790       153
45.800        93
45.810       153
45.820       187
45.830       180
45.840       127
45.850       133
45.860       160
45.870       153
45.880       207
45.890       127
45.900       180
45.910       133
45.920       107
45.930       133
45.940        93
45.950        80
45.960       113
45.970        93
45.980        67
45.990        80
46.000        87
46.010        53
46.020        40
46.030        60
46.040        53
46.050        53
46.060        47
46.070        60
46.080        40
46.090        53
46.100        33
46.110        33
46.120        47
46.130        47
46.140        27
46.150        40
46.160        40
46.170        20
46.180         7
46.190        20
46.200        20
46.210        27
46.220        40
46.230        60
46.240        13
46.250        27
46.260        13
46.270        20
46.280        33
46.290        27
46.300        33
46.310        47
46.320        13
46.330         7
46.340        13
46.350        20
46.360        13
46.370        40
46.380        13
46.390        20
46.400        20
46.410        80
46.420         7
46.430        20
46.440        33
46.450         0
46.460         7
46.470        40
46.480        47
46.490         0
46.500        47
46.510        27
46.520        13
46.530        27
46.540        27
46.550        13
46.560        27
46.570        33
46.580        13
46.590        60
46.600         7
46.610        13
46.620        27
46.630         7
46.640        33
46.650         0
46.660        27
46.670        27
46.680         7
46.690        33
46.700        13
46.710        33
46.720        13
46.730         7
46.740        40
46.750        40
46.760        33
46.770        13
46.780         0
46.790         0
46.800        20
46.810        27
46.820        13
46.830        20
46.840        13
46.850         7
46.860        20
46.870        33
46.880        20
46.890        13
46.900        33
46.910        13
46.920         0
46.930        13
46.940        20
46.950         7
46.960         7
46.970         7
46.980        20
46.990        20
47.000        20
47.010        20
47.020        20
47.030         0
47.040        27
47.050         0
47.060        13
47.070        53
47.080         7
47.090        20
47.100         0
47.110         7
47.120        33
47.130        20
47.140         7
47.150        20
47.160         7
47.170        33
47.180         7
47.190         7
47.200        13
47.210        13
47.220        20
47.230        13
47.240        13
47.250        27
47.260        20
47.270        20
47.280        27
47.290        33
47.300        40
47.310        27
47.320        27
47.330        13
47.340        20
47.350        13
47.360         7
47.370        20
47.380        20
47.390        13
47.400        20
47.410        13
47.420         0
47.430         0
47.440        20
47.450        33
47.460        13
47.470        13
47.480        20
47.490        40
47.500        20
47.510        20
47.520        13
47.530        47
47.540        13
47.550        20
47.560        27
47.570        13
47.580        13
47.590        20
47.600        20
47.610        47
47.620        27
47.630        13
47.640        13
47.650         0
47.660         7
47.670        20
47.680        27
47.690         0
47.700        47
47.710        13
47.720        13
47.730        20
47.740        13
47.750         7
47.760        13
47.770        20
47.780        20
47.790         7
47.800        27
47.810        20
47.820         0
47.830        40
47.840         7
47.850        20
47.860        13
47.870        20
47.880        13
47.890        20
47.900        13
47.910         7
47.920        27
47.930        27
47.940        27
47.950        20
47.960         7
47.970        40
47.980        13
47.990        13
48.000        13
48.010         7
48.020        27
48.030        13
48.040        20
48.050        27
48.060         7
48.070        20
48.080         7
48.090        13
48.100        13
48.110        13
48.120        13
48.130        27
48.140        27
48.150        13
48.160        13
48.170        20
48.180        53
48.190         0
48.200        20
48.210         7
48.220        27
48.230         0
48.240        20
48.250         0
48.260        27
48.270        13
48.280        20
48.290         7
48.300         7
48.310         7
48.320        27
48.330         7
48.340        27
48.350         7
48.360         0
48.370        27
48.380        27
48.390        13
48.400        13
48.410        20
48.420        20
48.430        20
48.440         7
48.450        20
48.460        47
48.470        20
48.480        13
48.490        20
48.500         0
48.510        20
48.520        13
48.530        27
48.540        27
48.550         7
48.560        27
48.570        13
48.580        13
48.590        20
48.600        20
48.610        27
48.620        20
48.630        13
48.640         0
48.650        20
48.660        20
48.670        27
48.680        13
48.690        13
48.700         0
48.710        27
48.720        13
48.730        13
48.740        20
48.750        20
48.760         7
48.770        20
48.780        20
48.790         7
48.800        20
48.810         7
48.820        13
48.830        13
48.840        60
48.850         0
48.860        47
48.870        13
48.880        13
48.890         0
48.900        13
48.910        27
48.920        20
48.930        13
48.940        13
48.950         7
48.960        13
48.970        20
48.980        13
48.990        33
49.000        27
49.010         7
49.020         7
49.030        20
49.040        13
49.050        20
49.060        20
49.070        27
49.080        13
49.090        33
49.100        27
49.110        13
49.120        13
49.130        20
49.140        13
49.150        13
49.160         7
49.170        33
49.180        20
49.190         7
49.200        13
49.210        13
49.220        33
49.230         0
49.240        27
49.250        13
49.260        33
49.270         7
49.280         0
49.290        13
49.300        40
49.310        33
49.320         7
49.330        20
49.340        13
49.350         7
49.360        20
49.370        33
49.380        13
49.390         7
49.400         7
49.410        27
49.420        13
49.430         0
49.440         0
49.450        27
49.460         7
49.470        13
49.480        27
49.490        13
49.500         7
49.510        13
49.520        13
49.530         0
49.540         7
49.550        20
49.560        27
49.570        20
49.580        27
49.590        13
49.600        13
49.610        13
49.620        47
49.630         7
49.640        13
49.650         0
49.660        27
49.670        13
49.680        20
49.690        20
49.700        20
49.710        13
49.720        27
49.730        13
49.740        13
49.750        27
49.760        13
49.770        20
49.780         7
49.790         7
49.800        33
49.810        27
49.820         7
49.830        20
49.840        20
49.850         0
49.860         7
49.870         7
49.880        20
49.890        13
49.900         0
49.910         0
49.920         7
49.930        13
49.940        13
49.950         7
49.960         7
49.970        13
49.980         0
49.990        27
50.000        13
50.010        13
50.020        33
50.030        13
50.040         0
50.050        13
50.060         7
50.070        20
50.080         7
50.090        33
50.100         7
50.110        13
50.120        33
50.130         0
50.140         7
50.150        27
50.160        40
50.170        20
50.180         7
50.190        13
50.200        13
50.210        13
50.220        13
50.230         7
50.240        13
50.250        13
50.260        13
50.270        27
50.280        53
50.290         7
50.300         7
50.310        13
50.320        13
50.330        20
50.340        33
50.350         7
50.360         7
50.370        13
50.380         0
50.390        20
50.400        33
50.410         0
50.420        27
50.430        20
50.440        13
50.450         0
50.460        27
50.470         7
50.480        33
50.490        20
50.500        20
50.510         0
50.520        27
50.530         0
50.540         7
50.550        27
50.560         0
50.570         0
50.580        20
50.590         7
50.600        20
50.610        13
50.620        40
50.630        20
50.640        33
50.650        20
50.660        27
50.670        13
50.680         0
50.690        13
50.700         7
50.710        20
50.720        13
50.730         7
50.740         7
50.750         0
50.760        20
50.770         7
50.780         7
50.790         7
50.800         7
50.810        27
50.820        13
50.830        13
50.840        13
50.850         7
50.860         7
50.870        27
50.880        27
50.890        13
50.900        20
50.910        13
50.920        20
50.930         7
50.940        13
50.950        13
50.960         0
50.970         7
50.980        47
50.990        27
51.000        20
51.010         7
51.020         0
51.030        20
51.040        13
51.050        20
51.060        20
51.070        27
51.080        27
51.090        13
51.100         7
51.110        27
51.120         0
51.130         7
51.140        13
51.150         7
51.160         7
51.170        33
51.180        13
51.190        13
51.200        20
51.210        27
51.220        20
51.230        13
51.240        20
51.250        20
51.260         0
51.270         7
51.280         7
51.290        40
51.300         7
51.310        20
51.320        20
51.330        27
51.340        27
51.350        20
51.360        20
51.370         7
51.380        33
51.390         7
51.400        20
51.410         0
51.420        20
51.430         0
51.440        33
51.450        40
51.460        20
51.470        13
51.480        27
51.490        13
51.500        20
51.510        40
51.520        27
51.530        27
51.540         0
51.550        47
51.560        13
51.570        13
51.580        13
51.590        33
51.600        33
51.610         0
51.620        27
51.630        53
51.640        13
51.650        40
51.660         0
51.670         0
51.680        27
51.690        20
51.700        27
51.710        27
51.720        27
51.730        27
51.740        27
51.750        27
51.760        20
51.770        13
51.780        27
51.790         7
51.800        13
51.810         7
51.820        13
51.830        13
51.840        13
51.850         7
51.860        20
51.870        20
51.880        40
51.890        13
51.900        20
51.910        13
51.920         7
51.930        13
51.940        13
51.950         7
51.960         7
51.970        13
51.980        13
51.990        20
52.000        13
52.010        27
52.020         7
52.030        20
52.040         0
52.050         7
52.060         0
52.070         0
52.080        20
52.090        20
52.100         0
52.110         0
52.120        13
52.130         7
52.140        20
52.150         7
52.160         0
52.170        27
52.180        13
52.190         7
52.200        20
52.210         0
52.220         7
52.230        20
52.240        27
52.250         7
52.260        20
52.270        13
52.280        20
52.290        20
52.300         7
52.310         7
52.320        13
52.330         0
52.340         7
52.350        47
52.360        13
52.370        13
52.380        33
52.390        13
52.400         7
52.410         7
52.420        20
52.430        27
52.440        40
52.450        20
52.460         0
52.470        27
52.480        33
52.490         7
52.500        20
52.510        60
52.520        87
52.530        87
52.540        73
52.550        53
52.560        80
52.570        87
52.580        53
52.590        87
52.600        73
52.610        60
52.620        93
52.630        47
52.640        27
52.650        60
52.660        27
52.670        60
52.680        53
52.690        47
52.700        67
52.710        47
52.720        33
52.730        67
52.740        47
52.750        53
52.760        20
52.770        27
52.780        33
52.790        13
52.800        13
52.810        20
52.820        20
52.830        13
52.840        13
52.850         7
52.860        20
52.870        20
52.880        13
52.890        20
52.900         7
52.910        13
52.920        27
52.930         0
52.940         0
52.950        27
52.960        27
52.970         7
52.980        13
52.990        13
53.000        20
53.010        20
53.020         7
53.030         0
53.040        27
53.050         7
53.060         0
53.070        27
53.080         0
53.090        13
53.100        13
53.110        33
53.120         7
53.130        27
53.140         7
53.150        13
53.160        13
53.170        13
53.180         7
53.190        20
53.200         0
53.210         7
53.220        13
53.230         7
53.240        20
53.250        13
53.260         7
53.270         7
53.280        27
53.290        27
53.300        27
53.310         0
53.320        13
53.330         0
53.340        20
53.350         7
53.360        20
53.370        20
53.380        13
53.390        20
53.400         7
53.410         0
53.420        13
53.430        27
53.440         7
53.450        27
53.460        27
53.470        20
53.480         7
53.490        33
53.500        13
53.510        27
53.520         7
53.530        20
53.540        13
53.550        13
53.560         7
53.570        20
53.580         7
53.590        13
53.600        13
53.610         7
53.620         0
53.630         7
53.640        13
53.650         0
53.660        13
53.670        20
53.680         7
53.690         0
53.700        13
53.710        13
53.720        27
53.730        20
53.740         7
53.750         0
53.760        20
53.770        20
53.780        20
53.790        20
53.800         7
53.810         7
53.820        20
53.830        13
53.840        13
53.850        20
53.860         7
53.870        33
53.880         0
53.890         0
53.900        13
53.910        27
53.920         7
53.930        27
53.940        27
53.950        20
53.960         0
53.970         0
53.980        13
53.990        33
54.000         7
54.010         7
54.020         0
54.030         0
54.040        40
54.050         7
54.060        20
54.070        20
54.080        33
54.090        40
54.100         7
54.110         0
54.120        13
54.130        20
54.140        47
54.150        13
54.160        27
54.170        20
54.180         7
54.190        27
54.200        13
54.210         7
54.220        20
54.230        13
54.240        20
54.250        20
54.260        20
54.270         7
54.280         7
54.290         7
54.300        20
54.310        27
54.320        27
54.330        27
54.340        20
54.350        13
54.360        27
54.370         0
54.380        20
54.390         0
54.400        33
54.410         7
54.420         7
54.430        20
54.440        20
54.450        13
54.460        27
54.470         7
54.480         0
54.490         7
54.500        13
54.510         0
54.520        27
54.530        20
54.540        27
54.550        13
54.560        27
54.570         0
54.580         7
54.590        13
54.600        13
54.610        20
54.620        20
54.630         0
54.640         7
54.650        13
54.660        20
54.670        20
54.680         7
54.690        27
54.700        20
54.710        33
54.720         7
54.730        13
54.740         0
54.750         7
54.760         7
54.770        27
54.780        33
54.790        33
54.800        20
54.810        20
54.820        13
54.830        40
54.840         7
54.850        20
54.860         7
54.870         0
54.880        20
54.890        13
54.900        27
54.910         7
54.920        40
54.930        13
54.940        13
54.950        20
54.960         7
54.970        40
54.980         7
54.990        13
55.000        27
55.010        20
55.020        27
55.030         0
55.040        13
55.050        20
55.060        20
55.070         7
55.080         7
55.090        27
55.100         7
55.110        13
55.120         7
55.130         7
55.140        20
55.150        20
55.160         7
55.170        20
55.180         0
55.190         7
55.200        13
55.210        20
55.220         7
55.230        13
55.240        20
55.250        20
55.260         7
55.270        33
55.280        20
55.290         7
55.300        27
55.310         0
55.320         7
55.330         7
55.340        20
55.350         0
55.360        13
55.370        13
55.380         0
55.390         7
55.400        13
55.410        27
55.420        20
55.430         7
55.440        33
55.450        20
55.460        13
55.470        13
55.480        20
55.490        13
55.500         7
55.510        13
55.520        40
55.530        20
55.540        13
55.550        13
55.560        20
55.570        13
55.580         0
55.590         7
55.600        20
55.610        13
55.620        20
55.630         7
55.640         0
55.650         7
55.660        13
55.670        20
55.680        13
55.690        13
55.700         7
55.710         0
55.720         7
55.730        13
55.740        27
55.750        27
55.760        13
55.770        27
55.780        13
55.790        13
55.800        20
55.810         0
55.820        20
55.830         0
55.840         7
55.850        20
55.860         0
55.870        20
55.880        13
55.890        13
55.900        13
55.910        20
55.920        33
55.930        13
55.940         0
55.950        20
55.960         7
55.970        20
55.980        13
55.990        13
56.000        20
56.010         7
56.020         7
56.030        20
56.040        20
56.050        40
56.060        33
56.070         0
56.080        20
56.090        13
56.100        13
56.110        13
56.120        13
56.130        27
56.140        13
56.150        13
56.160         0
56.170         7
56.180         0
56.190        47
56.200        27
56.210         7
56.220         7
56.230        20
56.240        13
56.250        27
56.260         7
56.270        27
56.280        47
56.290        20
56.300         7
56.310        33
56.320         0
56.330        40
56.340         7
56.350         7
56.360        13
56.370         7
56.380        13
56.390        13
56.400        33
56.410        20
56.420        20
56.430        13
56.440         7
56.450        13
56.460        13
56.470        20
56.480        40
56.490        33
56.500        33
56.510        27
56.520        20
56.530        13
56.540        33
56.550        20
56.560        40
56.570        20
56.580        40
56.590         7
56.600        27
56.610        40
56.620        47
56.630        47
56.640        80
56.650        27
56.660        47
56.670        40
56.680        47
56.690        73
56.700        40
56.710        60
56.720        53
56.730        53
56.740        87
56.750        60
56.760       107
56.770        67
56.780        53
56.790        80
56.800        73
56.810        73
56.820        93
56.830        47
56.840        53
56.850        80
56.860        87
56.870       100
56.880        80
56.890       140
56.900       100
56.910       113
56.920       107
56.930        73
56.940       100
56.950        80
56.960        87
56.970       100
56.980        73
56.990        87
57.000       100
57.010        73
57.020       120
57.030       133
57.040       120
57.050        87
57.060       153
57.070        87
57.080        40
57.090        33
57.100        53
57.110        53
57.120        67
57.130        60
57.140        53
57.150        60
57.160        27
57.170       107
57.180        53
57.190        40
57.200        27
57.210        40
57.220        40
57.230        80
57.240        33
57.250        20
57.260        27
57.270        40
57.280        40
57.290        47
57.300        53
57.310        27
57.320        80
57.330         7
57.340        20
57.350        47
57.360        53
57.370        40
57.380        40
57.390        53
57.400        53
57.410       100
57.420       113
57.430       100
57.440       113
57.450       147
57.460       167
57.470       220
57.480       187
57.490       287
57.500       253
57.510       267
57.520       367
57.530       347
57.540       293
57.550       287
57.560       287
57.570       267
57.580       180
57.590       160
57.600       113
57.610       120
57.620        73
57.630       107
57.640       153
57.650       200
57.660       160
57.670        93
57.680       173
57.690       220
57.700       120
57.710       167
57.720        80
57.730       127
57.740       100
57.750        67
57.760        60
57.770        53
57.780        20
57.790        33
57.800         7
57.810        13
57.820        47
57.830        27
57.840        33
57.850         7
57.860        27
57.870        20
57.880        20
57.890        20
57.900         7
57.910        20
57.920        27
57.930         7
57.940        13
57.950        13
57.960        20
57.970        13
57.980         7
57.990        13
58.000        20
58.010         0
58.020        13
58.030         7
58.040        33
58.050        13
58.060        13
58.070         7
58.080        13
58.090        20
58.100        13
58.110         0
58.120         7
58.130         0
58.140         7
58.150         7
58.160        20
58.170        27
58.180        27
58.190        20
58.200        40
58.210        33
58.220        27
58.230        20
58.240        27
58.250         7
58.260         7
58.270        20
58.280        13
58.290        27
58.300        33
58.310         7
58.320        13
58.330        13
58.340         7
58.350        13
58.360         0
58.370        27
58.380        20
58.390        13
58.400        13
58.410        13
58.420         7
58.430        33
58.440         0
58.450         7
58.460        13
58.470        13
58.480         7
58.490        20
58.500        13
58.510        27
58.520        47
58.530        33
58.540        20
58.550         0
58.560         7
58.570         7
58.580        13
58.590         0
58.600        13
58.610        20
58.620        20
58.630        20
58.640         7
58.650         7
58.660        20
58.670         0
58.680        20
58.690         7
58.700        20
58.710        13
58.720        20
58.730         7
58.740        13
58.750        27
58.760         7
58.770         7
58.780        33
58.790         0
58.800        13
58.810         0
58.820        13
58.830        27
58.840        27
58.850        13
58.860         7
58.870         7
58.880        13
58.890        33
58.900         0
58.910         7
58.920        20
58.930        13
58.940        40
58.950         0
58.960        20
58.970        20
58.980         7
58.990        27
59.000        13
59.010         7
59.020        13
59.030         7
59.040         7
59.050        27
59.060         7
59.070        20
59.080         7
59.090        13
59.100        13
59.110        13
59.120        33
59.130         7
59.140         0
59.150         7
59.160         7
59.170         0
59.180         7
59.190        13
59.200         7
59.210        33
59.220        40
59.230         7
59.240         7
59.250         7
59.260         7
59.270         7
59.280        20
59.290        27
59.300        27
59.310         7
59.320        13
59.330         7
59.340        27
59.350        20
59.360        33
59.370        20
59.380         7
59.390        40
59.400        13
59.410         7
59.420         7
59.430        20
59.440        40
59.450        20
59.460        40
59.470         0
59.480         7
59.490        13
59.500        13
59.510         7
59.520         0
59.530        27
59.540        13
59.550        13
59.560        20
59.570        13
59.580        20
59.590        27
59.600        47
59.610         0
59.620         0
59.630        27
59.640         7
59.650        13
59.660        13
59.670        20
59.680        40
59.690        13
59.700         0
59.710        13
59.720        20
59.730        20
59.740        20
59.750         7
59.760        13
59.770        20
59.780         7
59.790        20
59.800        33
59.810        20
59.820        13
59.830        20
59.840        13
59.850        27
59.860        27
59.870         7
59.880         7
59.890        20
59.900        33
59.910        33
59.920        27
59.930        40
59.940        27
59.950        47
59.960         7
59.970         7
59.980        13
59.990         0
60.000         0
