20.000        60
20.010        60
20.020        73
20.030        47
20.040        67
20.050        20
20.060        40
20.070        60
20.080        33
20.090        40
20.100        53
20.110        33
20.120        47
20.130        47
20.140        47
20.150        47
20.160        47
20.170        67
20.180        53
20.190        47
20.200        27
20.210        53
20.220        40
20.230        47
20.240        33
20.250        53
20.260        40
20.270        27
20.280        53
20.290        33
20.300        27
20.310        33
20.320        40
20.330        33
20.340        47
20.350        60
20.360        80
20.370        53
20.380        20
20.390        27
20.400        40
20.410        47
20.420        60
20.430        20
20.440        33
20.450        53
20.460        33
20.470        73
20.480        60
20.490        40
20.500        60
20.510        20
20.520        73
20.530        33
20.540        47
20.550        47
20.560        33
20.570        73
20.580         7
20.590        47
20.600        53
20.610        27
20.620        73
20.630        33
20.640        33
20.650        47
20.660        33
20.670        47
20.680        53
20.690        53
20.700        33
20.710        60
20.720        13
20.730        13
20.740        27
20.750        33
20.760        27
20.770        13
20.780        33
20.790        20
20.800        27
20.810        33
20.820        40
20.830        47
20.840        47
20.850        47
20.860        33
20.870        47
20.880        47
20.890        53
20.900        60
20.910        47
20.920        33
20.930        27
20.940        40
20.950        53
20.960        13
20.970        27
20.980        13
20.990        47
21.000        80
21.010        53
21.020        80
21.030        40
21.040        33
21.050         7
21.060        53
21.070        73
21.080        47
21.090        27
21.100        47
21.110        53
21.120        60
21.130        47
21.140        47
21.150        33
21.160        53
21.170        13
21.180        47
21.190        60
21.200        60
21.210        80
21.220        60
21.230        67
21.240        27
21.250        27
21.260        60
21.270        53
21.280        67
21.290        47
21.300        87
21.310        67
21.320        87
21.330        93
21.340        87
21.350        47
21.360        53
21.370        67
21.380        67
21.390        60
21.400        27
21.410        47
21.420        33
21.430        60
21.440        67
21.450        33
21.460        53
21.470        60
21.480        40
21.490        13
21.500        33
21.510        47
21.520        60
21.530        60
21.540        67
21.550        33
21.560        73
21.570        27
21.580        53
21.590        47
21.600        80
21.610        53
21.620        13
21.630        67
21.640        47
21.650        53
21.660        33
21.670        13
21.680        53
21.690        47
21.700        27
21.710        40
21.720        67
21.730        27
21.740        13
21.750        47
21.760        40
21.770        53
21.780        47
21.790        67
21.800        67
21.810        73
21.820        27
21.830        47
21.840        13
21.850        60
21.860        40
21.870        33
21.880        33
21.890        27
21.900        40
21.910        33
21.920        40
21.930        67
21.940        47
21.950         7
21.960        27
21.970        33
21.980        13
21.990        40
22.000        13
22.010        53
22.020        40
22.030        40
22.040        27
22.050        33
22.060        40
22.070        60
22.080        73
22.090        33
22.100        47
22.110        47
22.120        13
22.130        73
22.140        73
22.150        47
22.160        40
22.170        27
22.180        60
22.190        47
22.200        47
22.210        40
22.220        47
22.230        40
22.240        33
22.250       100
22.260        67
22.270        40
22.280        27
22.290        60
22.300        20
22.310        40
22.320        73
22.330        40
22.340        33
22.350        33
22.360        53
22.370        40
22.380        47
22.390        20
22.400        47
22.410        53
22.420        53
22.430        33
22.440        33
22.450        13
22.460        47
22.470        33
22.480        27
22.490        67
22.500        33
22.510        33
22.520        33
22.530        47
22.540        20
22.550         7
22.560        53
22.570        47
22.580        27
22.590        60
22.600        40
22.610        60
22.620        60
22.630        47
22.640        33
22.650        33
22.660        20
22.670        33
22.680        40
22.690        53
22.700        33
22.710        47
22.720        20
22.730        47
22.740        60
22.750        40
22.760        47
22.770        13
22.780        20
22.790        53
22.800        47
22.810        60
22.820        53
22.830        20
22.840        33
22.850        40
22.860        47
22.870        67
22.880        40
22.890        40
22.900        33
22.910        67
22.920        13
22.930        80
22.940        47
22.950        60
22.960        20
22.970        73
22.980        27
22.990        20
23.000        27
23.010        67
23.020        13
23.030        40
23.040        13
23.050        40
23.060        20
23.070        73
23.080        33
23.090        53
23.100        67
23.110        40
23.120        27
23.130        27
23.140        40
23.150        20
23.160        47
23.170        40
23.180        33
23.190        20
23.200        47
23.210        13
23.220        53
23.230        47
23.240        20
23.250        47
23.260        20
23.270        20
23.280        33
23.290        40
23.300        13
23.310        13
23.320        40
23.330        27
23.340        60
23.350        53
23.360        40
23.370        13
23.380        53
23.390        27
23.400        20
23.410        13
23.420        33
23.430        33
23.440        33
23.450        20
23.460        27
23.470        40
23.480        60
23.490        60
23.500        60
23.510        33
23.520        60
23.530        40
23.540        27
23.550        53
23.560        13
23.570        47
23.580        53
23.590        33
23.600        67
23.610        20
23.620        47
23.630        40
23.640        53
23.650        33
23.660        53
23.670        27
23.680        60
23.690        47
23.700        27
23.710        60
23.720        73
23.730        33
23.740        80
23.750         0
23.760        33
23.770        13
23.780        27
23.790        47
23.800        33
23.810        47
23.820        80
23.830        47
23.840        40
23.850        13
23.860        73
23.870        33
23.880        33
23.890        40
23.900        80
23.910        60
23.920        33
23.930        33
23.940        20
23.950        47
23.960        27
23.970        13
23.980        27
23.990        20
24.000        20
24.010        53
24.020        40
24.030        40
24.040        27
24.050        27
24.060        27
24.070        20
24.080        40
24.090        20
24.100        20
24.110         7
24.120        27
24.130        27
24.140        20
24.150        40
24.160        40
24.170        13
24.180        47
24.190        13
24.200        33
24.210        47
24.220         7
24.230        13
24.240        53
24.250        27
24.260        33
24.270        13
24.280        33
24.290        53
24.300        47
24.310        20
24.320        33
24.330        53
24.340        73
24.350        60
24.360        20
24.370        27
24.380         7
24.390        13
24.400        53
24.410        33
24.420        47
24.430        40
24.440        20
24.450        60
24.460        20
24.470        40
24.480        67
24.490        33
24.500        13
24.510        73
24.520        40
24.530        47
24.540        27
24.550         7
24.560        20
24.570        60
24.580         7
24.590        27
24.600        20
24.610        67
24.620        27
24.630        60
24.640        47
24.650        27
24.660        33
24.670        33
24.680        60
24.690        27
24.700        60
24.710        33
24.720        67
24.730        80
24.740        33
24.750        40
24.760        47
24.770        47
24.780        27
24.790        60
24.800        73
24.810        60
24.820        60
24.830       100
24.840        87
24.850        67
24.860        67
24.870        80
24.880        47
24.890        40
24.900        80
24.910        67
24.920        27
24.930        60
24.940        40
24.950        33
24.960        53
24.970        27
24.980        60
24.990        13
25.000        47
25.010        40
25.020         7
25.030        33
25.040        40
25.050        40
25.060        27
25.070        27
25.080        80
25.090        33
25.100        53
25.110        40
25.120        33
25.130        33
25.140        27
25.150        27
25.160        40
25.170        27
25.180        33
25.190        40
25.200        67
25.210        33
25.220        27
25.230        33
25.240        13
25.250        93
25.260        47
25.270        40
25.280        47
25.290        27
25.300         7
25.310        27
25.320        13
25.330        33
25.340        40
25.350        80
25.360        53
25.370        13
25.380        27
25.390        40
25.400         7
25.410        33
25.420        27
25.430        47
25.440        47
25.450        20
25.460        13
25.470        33
25.480        27
25.490        47
25.500        33
25.510        27
25.520        40
25.530        13
25.540        60
25.550        40
25.560        27
25.570        67
25.580        33
25.590        13
25.600        40
25.610        33
25.620        33
25.630        60
25.640        20
25.650        33
25.660        33
25.670        27
25.680        47
25.690        20
25.700        67
25.710        47
25.720        40
25.730        20
25.740        20
25.750        53
25.760        20
25.770        20
25.780         7
25.790        13
25.800        40
25.810        33
25.820        27
25.830        20
25.840        40
25.850        33
25.860        47
25.870         7
25.880        13
25.890        20
25.900        20
25.910        20
25.920        47
25.930        60
25.940        27
25.950        40
25.960        53
25.970        13
25.980        20
25.990         7
26.000        13
26.010        20
26.020        33
26.030         7
26.040        40
26.050        27
26.060        33
26.070        20
26.080        20
26.090        60
26.100        53
26.110        20
26.120        13
26.130        53
26.140        53
26.150        73
26.160        27
26.170        27
26.180        40
26.190        20
26.200        20
26.210         7
26.220        33
26.230        60
26.240        20
26.250        20
26.260        27
26.270        33
26.280        33
26.290        20
26.300        33
26.310        40
26.320        47
26.330        40
26.340        13
26.350         7
26.360        53
26.370        33
26.380        47
26.390        20
26.400        13
26.410        40
26.420        20
26.430        27
26.440        33
26.450        33
26.460        80
26.470        27
26.480        47
26.490        40
26.500        33
26.510        53
26.520        53
26.530        80
26.540        40
26.550        40
26.560        80
26.570        73
26.580        60
26.590        53
26.600        80
26.610        47
26.620        40
26.630        60
26.640        27
26.650        47
26.660        27
26.670        20
26.680        47
26.690        60
26.700        47
26.710        20
26.720        40
26.730        20
26.740        33
26.750        33
26.760        20
26.770        40
26.780        27
26.790        33
26.800        27
26.810        53
26.820         7
26.830        27
26.840        20
26.850        27
26.860        47
26.870        13
26.880        13
26.890        20
26.900        27
26.910        13
26.920        40
26.930        20
26.940        53
26.950        27
26.960        40
26.970        13
26.980        33
26.990        33
27.000        33
27.010        27
27.020        20
27.030        27
27.040        33
27.050        33
27.060        33
27.070        27
27.080        27
27.090        33
27.100        40
27.110        60
27.120        27
27.130        27
27.140        27
27.150        33
27.160        27
27.170         0
27.180        27
27.190        20
27.200        27
27.210        47
27.220        20
27.230        13
27.240        20
27.250        13
27.260        13
27.270        20
27.280        27
27.290        27
27.300        33
27.310        20
27.320        27
27.330        47
27.340        20
27.350        47
27.360        40
27.370        27
27.380        27
27.390        47
27.400        27
27.410        13
27.420        20
27.430        33
27.440         7
27.450        13
27.460        27
27.470        33
27.480        67
27.490        40
27.500        27
27.510        27
27.520        27
27.530         7
27.540        20
27.550        20
27.560        13
27.570        13
27.580        27
27.590        27
27.600         7
27.610        27
27.620        27
27.630        13
27.640        53
27.650        13
27.660         7
27.670        20
27.680        13
27.690        20
27.700        27
27.710        13
27.720         7
27.730        20
27.740        27
27.750        27
27.760        27
27.770        13
27.780        27
27.790        33
27.800         7
27.810        20
27.820        33
27.830        33
27.840         7
27.850        13
27.860        60
27.870        20
27.880        40
27.890        13
27.900        27
27.910         0
27.920         7
27.930        13
27.940        20
27.950        20
27.960        13
27.970        20
27.980        20
27.990        20
28.000        40
28.010        47
28.020        20
28.030        20
28.040        13
28.050         7
28.060        33
28.070        27
28.080        13
28.090        33
28.100         7
28.110        40
28.120        20
28.130        33
28.140        20
28.150         7
28.160        20
28.170        47
28.180        13
28.190        33
28.200        27
28.210        27
28.220        27
28.230        60
28.240        13
28.250        20
28.260        27
28.270        20
28.280        27
28.290        47
28.300        27
28.310        20
28.320        33
28.330        13
28.340        20
28.350        40
28.360        33
28.370        20
28.380        33
28.390        40
28.400        13
28.410        33
28.420        20
28.430        13
28.440        20
28.450        20
28.460        47
28.470         7
28.480        20
28.490        20
28.500        27
28.510        33
28.520        20
28.530        27
28.540        20
28.550         7
28.560        27
28.570        47
28.580         7
28.590        33
28.600        33
28.610        13
28.620        27
28.630        20
28.640        13
28.650        13
28.660        20
28.670        13
28.680        27
28.690        27
28.700        13
28.710        47
28.720        53
28.730        20
28.740        40
28.750        27
28.760        60
28.770        27
28.780        20
28.790        60
28.800        40
28.810        40
28.820         0
28.830        33
28.840        33
28.850        27
28.860         7
28.870        33
28.880         7
28.890        20
28.900         7
28.910        33
28.920        47
28.930        40
28.940        27
28.950        53
28.960        27
28.970        47
28.980        47
28.990        40
29.000        20
29.010        47
29.020         0
29.030        33
29.040        40
29.050        60
29.060        67
29.070        40
29.080        20
29.090        33
29.100        73
29.110        40
29.120        20
29.130        47
29.140        47
29.150        60
29.160        47
29.170        73
29.180        53
29.190        67
29.200        73
29.210        73
29.220       127
29.230       100
29.240        87
29.250        87
29.260       113
29.270        87
29.280       100
29.290        73
29.300        93
29.310       113
29.320       100
29.330       113
29.340       153
29.350       133
29.360       113
29.370        93
29.380       100
29.390        53
29.400       100
29.410        80
29.420        87
29.430        73
29.440        33
29.450        27
29.460        47
29.470        67
29.480        53
29.490        40
29.500        40
29.510        47
29.520        40
29.530        20
29.540        40
29.550        13
29.560        40
29.570        67
29.580        27
29.590         7
29.600         7
29.610        27
29.620        20
29.630        27
29.640        33
29.650        33
29.660        47
29.670        27
29.680        33
29.690        27
29.700        27
29.710        40
29.720         7
29.730        13
29.740        20
29.750        53
29.760        27
29.770        20
29.780        13
29.790        20
29.800        20
29.810        20
29.820        20
29.830        20
29.840        13
29.850        40
29.860        13
29.870        13
29.880        13
29.890        33
29.900        20
29.910         0
29.920        20
29.930        13
29.940        53
29.950        33
29.960        40
29.970        20
29.980        47
29.990        40
30.000        13
30.010        27
30.020        20
30.030        13
30.040        33
30.050        20
30.060        20
30.070         7
30.080        20
30.090         7
30.100         7
30.110        13
30.120        27
30.130        40
30.140        27
30.150        20
30.160        27
30.170        13
30.180        33
30.190        27
30.200        20
30.210         0
30.220         7
30.230        20
30.240        20
30.250        13
30.260        33
30.270        40
30.280        27
30.290        20
30.300        20
30.310        27
30.320        47
30.330        40
30.340        20
30.350         7
30.360         7
30.370         7
30.380        60
30.390        13
30.400        27
30.410         0
30.420         7
30.430        40
30.440        33
30.450        53
30.460        33
30.470         7
30.480        20
30.490         7
30.500        27
30.510        13
30.520        67
30.530        20
30.540        27
30.550        27
30.560        27
30.570        13
30.580        20
30.590        27
30.600        13
30.610        20
30.620         7
30.630         7
30.640        33
30.650        33
30.660        27
30.670        20
30.680        27
30.690        20
30.700        20
30.710        33
30.720        20
30.730        20
30.740        20
30.750         7
30.760        27
30.770        27
30.780         7
30.790        33
30.800         7
30.810        20
30.820         7
30.830        20
30.840        40
30.850        33
30.860         7
30.870        33
30.880        27
30.890        33
30.900         7
30.910        13
30.920        27
30.930        33
30.940        20
30.950        13
30.960        27
30.970        20
30.980        20
30.990        40
31.000        27
31.010         7
31.020        40
31.030         7
31.040        13
31.050        13
31.060        27
31.070        27
31.080        27
31.090        13
31.100        20
31.110         7
31.120        27
31.130        20
31.140        27
31.150        13
31.160        47
31.170        33
31.180        27
31.190        27
31.200        27
31.210        40
31.220        53
31.230        33
31.240         0
31.250        13
31.260        40
31.270         7
31.280        20
31.290        27
31.300        47
31.310        20
31.320         7
31.330        53
31.340        40
31.350        27
31.360        27
31.370        40
31.380        40
31.390        53
31.400        47
31.410        27
31.420        27
31.430        20
31.440        20
31.450        20
31.460        40
31.470        13
31.480        27
31.490         7
31.500        27
31.510        13
31.520         7
31.530        20
31.540        47
31.550        40
31.560        40
31.570         7
31.580        40
31.590        47
31.600        47
31.610        33
31.620        13
31.630         7
31.640        27
31.650        33
31.660        33
31.670        33
31.680        33
31.690        27
31.700        40
31.710        27
31.720        33
31.730        60
31.740        27
31.750        40
31.760        40
31.770        20
31.780        27
31.790        80
31.800        73
31.810        60
31.820        47
31.830        33
31.840        60
31.850        13
31.860        20
31.870        33
31.880        60
31.890        53
31.900        73
31.910        47
31.920        27
31.930        60
31.940        20
31.950        20
31.960        20
31.970        53
31.980        53
31.990        40
32.000        33
32.010        20
32.020        13
32.030        40
32.040        27
32.050        27
32.060        20
32.070         7
32.080        27
32.090        33
32.100         7
32.110        13
32.120        20
32.130        33
32.140        33
32.150        13
32.160        27
32.170        13
32.180        40
32.190        13
32.200        27
32.210         7
32.220        20
32.230        13
32.240        27
32.250        20
32.260        27
32.270        20
32.280        13
32.290        20
32.300        20
32.310        40
32.320        33
32.330        20
32.340        47
32.350        20
32.360        13
32.370        13
32.380        13
32.390        13
32.400        13
32.410        27
32.420        27
32.430         7
32.440        20
32.450        33
32.460         7
32.470         7
32.480        13
32.490        20
32.500        27
32.510        27
32.520        27
32.530        33
32.540        13
32.550        20
32.560         7
32.570        33
32.580         7
32.590         7
32.600        20
32.610        33
32.620        13
32.630        27
32.640        33
32.650        20
32.660        33
32.670        40
32.680        20
32.690        27
32.700        33
32.710         7
32.720        27
32.730        47
32.740        20
32.750        33
32.760         7
32.770        13
32.780        27
32.790        20
32.800        13
32.810        20
32.820        40
32.830        20
32.840        27
32.850        20
32.860         7
32.870        20
32.880        33
32.890        27
32.900        13
32.910        27
32.920        27
32.930        13
32.940        40
32.950        33
32.960        33
32.970        27
32.980        27
32.990        20
33.000        33
33.010        27
33.020        33
33.030        40
33.040        40
33.050        40
33.060        27
33.070        20
33.080        27
33.090        27
33.100        27
33.110        13
33.120        27
33.130        40
33.140        40
33.150        27
33.160        13
33.170         0
33.180        40
33.190        47
33.200        33
33.210        13
33.220        27
33.230        27
33.240         7
33.250        33
33.260        33
33.270        13
33.280        27
33.290        20
33.300        27
33.310        27
33.320        13
33.330        13
33.340        13
33.350         7
33.360        13
33.370        20
33.380        27
33.390         0
33.400        33
33.410        20
33.420        27
33.430        13
33.440        13
33.450        33
33.460        27
33.470        20
33.480        33
33.490        27
33.500        20
33.510         7
33.520        20
33.530        20
33.540        27
33.550         7
33.560        20
33.570        20
33.580        33
33.590        20
33.600        33
33.610        27
33.620        20
33.630        13
33.640        27
33.650        27
33.660        27
33.670         7
33.680        13
33.690        33
33.700        13
33.710        27
33.720        20
33.730         7
33.740        20
33.750         7
33.760        13
33.770        13
33.780        20
33.790        20
33.800        13
33.810        20
33.820        20
33.830        13
33.840        27
33.850        47
33.860        13
33.870         7
33.880        20
33.890        20
33.900        13
33.910        27
33.920        13
33.930        13
33.940        13
33.950        13
33.960        60
33.970        20
33.980        20
33.990         0
34.000        20
34.010        20
34.020         7
34.030        13
34.040        13
34.050        13
34.060        13
34.070         7
34.080         7
34.090        20
34.100        13
34.110        13
34.120        40
34.130        20
34.140        33
34.150        13
34.160         0
34.170        33
34.180         7
34.190        47
34.200         0
34.210        27
34.220        20
34.230         7
34.240        20
34.250        20
34.260        40
34.270        27
34.280        13
34.290         7
34.300        20
34.310        40
34.320         7
34.330        40
34.340        33
34.350        27
34.360        20
34.370         0
34.380        27
34.390        20
34.400        33
34.410        13
34.420        33
34.430        20
34.440        33
34.450         7
34.460        27
34.470        13
34.480        20
34.490         7
34.500        13
34.510        20
34.520         7
34.530        33
34.540        33
34.550        47
34.560        27
34.570        13
34.580        33
34.590        13
34.600         7
34.610        27
34.620        20
34.630         7
34.640        13
34.650        27
34.660        13
34.670        20
34.680         7
34.690        27
34.700        47
34.710        27
34.720         0
34.730        33
34.740         7
34.750        13
34.760        33
34.770        40
34.780        20
34.790         7
34.800        20
34.810         7
34.820        33
34.830        13
34.840        40
34.850        27
34.860        33
34.870        27
34.880        27
34.890        33
34.900        20
34.910        27
34.920        33
34.930        33
34.940        40
34.950        13
34.960        27
34.970         7
34.980        20
34.990        13
35.000        47
35.010        20
35.020         7
35.030        13
35.040        33
35.050        20
35.060        27
35.070        40
35.080        40
35.090        13
35.100        13
35.110        47
35.120         7
35.130        20
35.140        33
35.150         7
35.160        27
35.170        33
35.180        27
35.190        33
35.200         7
35.210        13
35.220        40
35.230        33
35.240        20
35.250         0
35.260        20
35.270        13
35.280        33
35.290        20
35.300        47
35.310        33
35.320        20
35.330        20
35.340        13
35.350        27
35.360        20
35.370        27
35.380        33
35.390        27
35.400        47
35.410        13
35.420        13
35.430        20
35.440        47
35.450        27
35.460        27
35.470        27
35.480        40
35.490        33
35.500        40
35.510        27
35.520        13
35.530        20
35.540        33
35.550        33
35.560        60
35.570        20
35.580        33
35.590         7
35.600        20
35.610        40
35.620        13
35.630         7
35.640        20
35.650        20
35.660        33
35.670        27
35.680        20
35.690        40
35.700        20
35.710        20
35.720        40
35.730        13
35.740        40
35.750        20
35.760        13
35.770        47
35.780        27
35.790        40
35.800        40
35.810        47
35.820        27
35.830        13
35.840        80
35.850        53
35.860        47
35.870        60
35.880        40
35.890        53
35.900        67
35.910        40
35.920        20
35.930        60
35.940        20
35.950        40
35.960        13
35.970        20
35.980        40
35.990        27
36.000         7
36.010        20
36.020        47
36.030        53
36.040         7
36.050        67
36.060        53
36.070        33
36.080        40
36.090        33
36.100        13
36.110        20
36.120         7
36.130        33
36.140        13
36.150        20
36.160        20
36.170        20
36.180        13
36.190        27
36.200        20
36.210         7
36.220        20
36.230        33
36.240        40
36.250        13
36.260        33
36.270        20
36.280        13
36.290         7
36.300        20
36.310        13
36.320        13
36.330        20
36.340        27
36.350         7
36.360        20
36.370        13
36.380        40
36.390        13
36.400        20
36.410        13
36.420         0
36.430        27
36.440        13
36.450        27
36.460        33
36.470        20
36.480         7
36.490        13
36.500        33
36.510        27
36.520        13
36.530        27
36.540         7
36.550        33
36.560        40
36.570        33
36.580        20
36.590        13
36.600        33
36.610        20
36.620        20
36.630        20
36.640         0
36.650         0
36.660        20
36.670        13
36.680        27
36.690        20
36.700        27
36.710        20
36.720         7
36.730         7
36.740         7
36.750        27
36.760        13
36.770         7
36.780         7
36.790         0
36.800        20
36.810        33
36.820        20
36.830        33
36.840         7
36.850        13
36.860        13
36.870        20
36.880         7
36.890        33
36.900        13
36.910        33
36.920        20
36.930        67
36.940        33
36.950        13
36.960        20
36.970        33
36.980        27
36.990        13
37.000        40
37.010        27
37.020        33
37.030        20
37.040        27
37.050        13
37.060        33
37.070        13
37.080        53
37.090        20
37.100        13
37.110        13
37.120         7
37.130        20
37.140        20
37.150        47
37.160        20
37.170        47
37.180        27
37.190         0
37.200        13
37.210        13
37.220         7
37.230        13
37.240        40
37.250        13
37.260         7
37.270        53
37.280        27
37.290        20
37.300        27
37.310        20
37.320        20
37.330        27
37.340        13
37.350        33
37.360        67
37.370        20
37.380        40
37.390        13
37.400        27
37.410        13
37.420        20
37.430        13
37.440        20
37.450        13
37.460        20
37.470        13
37.480        13
37.490         7
37.500        20
37.510        33
37.520        27
37.530        33
37.540        13
37.550        13
37.560        13
37.570        27
37.580        20
37.590        20
37.600        40
37.610        33
37.620        33
37.630         7
37.640        20
37.650        20
37.660        13
37.670         7
37.680        40
37.690        20
37.700        13
37.710        27
37.720        33
37.730        20
37.740        27
37.750        33
37.760        33
37.770        13
37.780        20
37.790        13
37.800        13
37.810        13
37.820        33
37.830        27
37.840        33
37.850        20
37.860        40
37.870         7
37.880        27
37.890        33
37.900         7
37.910        27
37.920        13
37.930        20
37.940        13
37.950        33
37.960        27
37.970        27
37.980        27
37.990        20
38.000        40
38.010        27
38.020         7
38.030        20
38.040        33
38.050        13
38.060        20
38.070        27
38.080        27
38.090        13
38.100        60
38.110        47
38.120        33
38.130        27
38.140        20
38.150        33
38.160        40
38.170        47
38.180        47
38.190        33
38.200        27
38.210        13
38.220        33
38.230        40
38.240        33
38.250        27
38.260        27
38.270        40
38.280        33
38.290        20
38.300        20
38.310        33
38.320        27
38.330        20
38.340        53
38.350        20
38.360        33
38.370        33
38.380        27
38.390        40
38.400        33
38.410        40
38.420        40
38.430        27
38.440        13
38.450         0
38.460        33
38.470        40
38.480        40
38.490        27
38.500        47
38.510        27
38.520        20
38.530        33
38.540        40
38.550        20
38.560        20
38.570        33
38.580        20
38.590        20
38.600        47
38.610        27
38.620        40
38.630        47
38.640        20
38.650        40
38.660         7
38.670        20
38.680        20
38.690        13
38.700        13
38.710        20
38.720        40
38.730        13
38.740        20
38.750        27
38.760        47
38.770        13
38.780        13
38.790        13
38.800        20
38.810         7
38.820        27
38.830        40
38.840        27
38.850        27
38.860        40
38.870        20
38.880        13
38.890        40
38.900        33
38.910        27
38.920        27
38.930        33
38.940        20
38.950        27
38.960        20
38.970        27
38.980        20
38.990        20
39.000        53
39.010        27
39.020        27
39.030        47
39.040        60
39.050        20
39.060         7
39.070        53
39.080        27
39.090        33
39.100        40
39.110        53
39.120        73
39.130       100
39.140       100
39.150        80
39.160        60
39.170        73
39.180        53
39.190       200
39.200       100
39.210       147
39.220       153
39.230       173
39.240       207
39.250       173
39.260       153
39.270       147
39.280       220
39.290       153
39.300       127
39.310        73
39.320       140
39.330       107
39.340       153
39.350       127
39.360       160
39.370        53
39.380        87
39.390        80
39.400        53
39.410        47
39.420        67
39.430        27
39.440        40
39.450        93
39.460        67
39.470        20
39.480        40
39.490        60
39.500        27
39.510        40
39.520        47
39.530        40
39.540        27
39.550        53
39.560        27
39.570        27
39.580        13
39.590        20
39.600        27
39.610        13
39.620        20
39.630        27
39.640        20
39.650         0
39.660        40
39.670        13
39.680        13
39.690        13
39.700         7
39.710        27
39.720        27
39.730        20
39.740        27
39.750         7
39.760        20
39.770        13
39.780        27
39.790        33
39.800        13
39.810        33
39.820        20
39.830        20
39.840        27
39.850         7
39.860        13
39.870        13
39.880        20
39.890        27
39.900        27
39.910        20
39.920        13
39.930         7
39.940        47
39.950        20
39.960        40
39.970        33
39.980        20
39.990        33
40.000        20
40.010        33
40.020         7
40.030        27
40.040        33
40.050        27
40.060         7
40.070        53
40.080        20
40.090        13
40.100        40
40.110        27
40.120        27
40.130        20
40.140        27
40.150        27
40.160         0
40.170        13
40.180        27
40.190        13
40.200         7
40.210        27
40.220        20
40.230        13
40.240        33
40.250        13
40.260        13
40.270        13
40.280        27
40.290        33
40.300         0
40.310        33
40.320        27
40.330        27
40.340         0
40.350        27
40.360        20
40.370         7
40.380        13
40.390        13
40.400        27
40.410        40
40.420        20
40.430        33
40.440        13
40.450         7
40.460        27
40.470        13
40.480        40
40.490        27
40.500        40
40.510        13
40.520        20
40.530        13
40.540        20
40.550        20
40.560        27
40.570        13
40.580        13
40.590        27
40.600        20
40.610        20
40.620        13
40.630         7
40.640        20
40.650        20
40.660         7
40.670        27
40.680         7
40.690        13
40.700        40
40.710        33
40.720        13
40.730        40
40.740        13
40.750        20
40.760        27
40.770        47
40.780        20
40.790        33
40.800        20
40.810         7
40.820        20
40.830        13
40.840        13
40.850         7
40.860        27
40.870        20
40.880         7
40.890         7
40.900        27
40.910        47
40.920        20
40.930        13
40.940        20
40.950        67
40.960        27
40.970        33
40.980         7
40.990        40
41.000        27
41.010         0
41.020        27
41.030        27
41.040        13
41.050         0
41.060         7
41.070        27
41.080        13
41.090        33
41.100        60
41.110        20
41.120         7
41.130        13
41.140        27
41.150        13
41.160        20
41.170        60
41.180        40
41.190        33
41.200        20
41.210        13
41.220        20
41.230         0
41.240        27
41.250        27
41.260        20
41.270        13
41.280        20
41.290        27
41.300        20
41.310        33
41.320        27
41.330         7
41.340        40
41.350        13
41.360        47
41.370        40
41.380        40
41.390        13
41.400        27
41.410        27
41.420        20
41.430        13
41.440        33
41.450        13
41.460        20
41.470        33
41.480        33
41.490        27
41.500        20
41.510         7
41.520        27
41.530        27
41.540        47
41.550        40
41.560        13
41.570        13
41.580        13
41.590        20
41.600        20
41.610         7
41.620        27
41.630        20
41.640        60
41.650        20
41.660        20
41.670        13
41.680        13
41.690        20
41.700        13
41.710        13
41.720        27
41.730         0
41.740        13
41.750        27
41.760        27
41.770        13
41.780        33
41.790        13
41.800        13
41.810        27
41.820        40
41.830         7
41.840        33
41.850        33
41.860         7
41.870        33
41.880        27
41.890        20
41.900        20
41.910        27
41.920         7
41.930        53
41.940         0
41.950        27
41.960         7
41.970        47
41.980        20
41.990        27
42.000         0
42.010        47
42.020        27
42.030         7
42.040        27
42.050         7
42.060        40
42.070        53
42.080        20
42.090        33
42.100        27
42.110        27
42.120        13
42.130         7
42.140        27
42.150        27
42.160        27
42.170        40
42.180         0
42.190        27
42.200        27
42.210        27
42.220        27
42.230        13
42.240         7
42.250        13
42.260        27
42.270        13
42.280        13
42.290        20
42.300        20
42.310        27
42.320        53
42.330        47
42.340        13
42.350        33
42.360         7
42.370        13
42.380        33
42.390        27
42.400        27
42.410        33
42.420        33
42.430        13
42.440         7
42.450        13
42.460        20
42.470        47
42.480        20
42.490         7
42.500        40
42.510        20
42.520        33
42.530        27
42.540        40
42.550        27
42.560        20
42.570        40
42.580        20
42.590        13
42.600         7
42.610        20
42.620        27
42.630        27
42.640        27
42.650        33
42.660        33
42.670        13
42.680        27
42.690        33
42.700        47
42.710         0
42.720         7
42.730        40
42.740        13
42.750        33
42.760        13
42.770        13
42.780        40
42.790        33
42.800        13
42.810        27
42.820         7
42.830        33
42.840        20
42.850        13
42.860        40
42.870        40
42.880         7
42.890        27
42.900        33
42.910        33
42.920        20
42.930        13
42.940        33
42.950        53
42.960        40
42.970        60
42.980        33
42.990        47
43.000        33
43.010        47
43.020        27
43.030        33
43.040        20
43.050        13
43.060        40
43.070        40
43.080        33
43.090        40
43.100        40
43.110        53
43.120        73
43.130        47
43.140        27
43.150        33
43.160        53
43.170        60
43.180        20
43.190        47
43.200        67
43.210        73
43.220        13
43.230        33
43.240        53
43.250        60
43.260        27
43.270        20
43.280        27
43.290        47
43.300        47
43.310        13
43.320        20
43.330        27
43.340        27
43.350        53
43.360        20
43.370        20
43.380        27
43.390        13
43.400        33
43.410        20
43.420        27
43.430         7
43.440        33
43.450        13
43.460        13
43.470        40
43.480        33
43.490         0
43.500        13
43.510         7
43.520        20
43.530        20
43.540        27
43.550        20
43.560        40
43.570        33
43.580        53
43.590        20
43.600        33
43.610        27
43.620        13
43.630        33
43.640        33
43.650        20
43.660        20
43.670        13
43.680        33
43.690        13
43.700        33
43.710        20
43.720        33
43.730        13
43.740        27
43.750         7
43.760        20
43.770        27
43.780        20
43.790        20
43.800        40
43.810        20
43.820        27
43.830         0
43.840        20
43.850        27
43.860        33
43.870        13
43.880         7
43.890        13
43.900         7
43.910         7
43.920        33
43.930        27
43.940        20
43.950        40
43.960        27
43.970        20
43.980        27
43.990        27
44.000         7
44.010        27
44.020        20
44.030        20
44.040         0
44.050        33
44.060        27
44.070        27
44.080        20
44.090        13
44.100        13
44.110        13
44.120        20
44.130        20
44.140        13
44.150        27
44.160        47
44.170        47
44.180        20
44.190        27
44.200        47
44.210         7
44.220        13
44.230        27
44.240         7
44.250        13
44.260        33
44.270        27
44.280        13
44.290        40
44.300        13
44.310        27
44.320        40
44.330        13
44.340        20
44.350        13
44.360        27
44.370        27
44.380        13
44.390        20
44.400        40
44.410         7
44.420        33
44.430        27
44.440        27
44.450        27
44.460         7
44.470        40
44.480         0
44.490        27
44.500        27
44.510         7
44.520        13
44.530        13
44.540        13
44.550        40
44.560        20
44.570        33
44.580        13
44.590        13
44.600         7
44.610         7
44.620        27
44.630        13
44.640        40
44.650        13
44.660        20
44.670        20
44.680        20
44.690        27
44.700        33
44.710        40
44.720        20
44.730        33
44.740        20
44.750        13
44.760        20
44.770        20
44.780        20
44.790        20
44.800         7
44.810        33
44.820        33
44.830        27
44.840         7
44.850        27
44.860        27
44.870         7
44.880         7
44.890        27
44.900        40
44.910        47
44.920        33
44.930        27
44.940        20
44.950        20
44.960        47
44.970        47
44.980        47
44.990        13
45.000        27
45.010         0
45.020        33
45.030         7
45.040        13
45.050        27
45.060        13
45.070        33
45.080        20
45.090        33
45.100         7
45.110        20
45.120         7
45.130        13
45.140        33
45.150        20
45.160        27
45.170        27
45.180         7
45.190        33
45.200        27
45.210        20
45.220        60
45.230        27
45.240         7
45.250        13
45.260        27
45.270        20
45.280        20
45.290         7
45.300        13
45.310        13
45.320        13
45.330        33
45.340         7
45.350        13
45.360        40
45.370        27
45.380        27
45.390        20
45.400        33
45.410        27
45.420        40
45.430        13
45.440        27
45.450        47
45.460        33
45.470        33
45.480        40
45.490        33
45.500        40
45.510        33
45.520        20
45.530        47
45.540        27
45.550        27
45.560        13
45.570        40
45.580        27
45.590        20
45.600        40
45.610        47
45.620        33
45.630        33
45.640        33
45.650        40
45.660        40
45.670        47
45.680        13
45.690        47
45.700        20
45.710        20
45.720        20
45.730        33
45.740        53
45.750        13
45.760        13
45.770         0
45.780        13
45.790        13
45.800        40
45.810         0
45.820        13
45.830        20
45.840        33
45.850        27
45.860         7
45.870        13
45.880         7
45.890         7
45.900        13
45.910        33
45.920        33
45.930         7
45.940        33
45.950         7
45.960        47
45.970        20
45.980        33
45.990         7
46.000        33
46.010        13
46.020        40
46.030        33
46.040        33
46.050        13
46.060        13
46.070        20
46.080        20
46.090         7
46.100        33
46.110        33
46.120        27
46.130        13
46.140        27
46.150        40
46.160        20
46.170        27
46.180        13
46.190         0
46.200        20
46.210        33
46.220        53
46.230        27
46.240        27
46.250        13
46.260        13
46.270         7
46.280        20
46.290        20
46.300        33
46.310        13
46.320        27
46.330        40
46.340        33
46.350        20
46.360        13
46.370        27
46.380        13
46.390        27
46.400         0
46.410        20
46.420        33
46.430        20
46.440        27
46.450        27
46.460        40
46.470        27
46.480        33
46.490        33
46.500        20
46.510        33
46.520        53
46.530        33
46.540        33
46.550        13
46.560        20
46.570        20
46.580        27
46.590        20
46.600         0
46.610        20
46.620        27
46.630        27
46.640        27
46.650        40
46.660        13
46.670        27
46.680        20
46.690        13
46.700         7
46.710        20
46.720         0
46.730        13
46.740        47
46.750         7
46.760         7
46.770        20
46.780        40
46.790        20
46.800        13
46.810        13
46.820        20
46.830        27
46.840        47
46.850        27
46.860        13
46.870        33
46.880        20
46.890         7
46.900        20
46.910        20
46.920        67
46.930        53
46.940        40
46.950        40
46.960        20
46.970        20
46.980        40
46.990        20
47.000        47
47.010        40
47.020        47
47.030        20
47.040        40
47.050        40
47.060        60
47.070        40
47.080        33
47.090        60
47.100        13
47.110        33
47.120        33
47.130        33
47.140        27
47.150        27
47.160        33
47.170        27
47.180        27
47.190        13
47.200        20
47.210        33
47.220        40
47.230        33
47.240        47
47.250        33
47.260        33
47.270        13
47.280        27
47.290        20
47.300        40
47.310        40
47.320        20
47.330        53
47.340        73
47.350        60
47.360        40
47.370        33
47.380        33
47.390        47
47.400        40
47.410        47
47.420        80
47.430        40
47.440        40
47.450        53
47.460        80
47.470        53
47.480        20
47.490        73
47.500        13
47.510        47
47.520        53
47.530        73
47.540        33
47.550        40
47.560        40
47.570        40
47.580        67
47.590        33
47.600        47
47.610        27
47.620        47
47.630         7
47.640        27
47.650         7
47.660        53
47.670        47
47.680        27
47.690        40
47.700        20
47.710        13
47.720        40
47.730        53
47.740        20
47.750        27
47.760        20
47.770        27
47.780        27
47.790         0
47.800         0
47.810        13
47.820        27
47.830        13
47.840        33
47.850        53
47.860        27
47.870        13
47.880         7
47.890        20
47.900         7
47.910         7
47.920        13
47.930         7
47.940        13
47.950        20
47.960        20
47.970        27
47.980        20
47.990        27
48.000        33
48.010        47
48.020         7
48.030        33
48.040        13
48.050        27
48.060        20
48.070        27
48.080        13
48.090        13
48.100         0
48.110        27
48.120        27
48.130        27
48.140        33
48.150        20
48.160        27
48.170        20
48.180        27
48.190        27
48.200         7
48.210        40
48.220        60
48.230        20
48.240        13
48.250        33
48.260        13
48.270        60
48.280        33
48.290        73
48.300        33
48.310        13
48.320        40
48.330        33
48.340        33
48.350        33
48.360        47
48.370        60
48.380        93
48.390        60
48.400        27
48.410        53
48.420        73
48.430        20
48.440        60
48.450        20
48.460        53
48.470        47
48.480        60
48.490        67
48.500        60
48.510        27
48.520        40
48.530        53
48.540        40
48.550        80
48.560        33
48.570        47
48.580        27
48.590        27
48.600        13
48.610        13
48.620        47
48.630        20
48.640        40
48.650        20
48.660        33
48.670        40
48.680        40
48.690        27
48.700        47
48.710        40
48.720        20
48.730         0
48.740         7
48.750         7
48.760        20
48.770        20
48.780        40
48.790         7
48.800        20
48.810        20
48.820        13
48.830        33
48.840         7
48.850        20
48.860        20
48.870        27
48.880        53
48.890        20
48.900        20
48.910        33
48.920        33
48.930         7
48.940        20
48.950        27
48.960        13
48.970        20
48.980        13
48.990        33
49.000        20
49.010        33
49.020        27
49.030        20
49.040        33
49.050        40
49.060        27
49.070        20
49.080        47
49.090         7
49.100        13
49.110        13
49.120        27
49.130        13
49.140         0
49.150        20
49.160        20
49.170        27
49.180        13
49.190        13
49.200        40
49.210        27
49.220        27
49.230         7
49.240        27
49.250        13
49.260         7
49.270        13
49.280        13
49.290         0
49.300        13
49.310        27
49.320        27
49.330        40
49.340        47
49.350        40
49.360        27
49.370        13
49.380        20
49.390        33
49.400        20
49.410        13
49.420         7
49.430        13
49.440        20
49.450        13
49.460        33
49.470        33
49.480        27
49.490        13
49.500        20
49.510         0
49.520        13
49.530        20
49.540        27
49.550        13
49.560        13
49.570        13
49.580        20
49.590        13
49.600        20
49.610        13
49.620        20
49.630        27
49.640        13
49.650         7
49.660        47
49.670        20
49.680        13
49.690        20
49.700        13
49.710        20
49.720        20
49.730        27
49.740        20
49.750        47
49.760        13
49.770        13
49.780        13
49.790        27
49.800        13
49.810        27
49.820        13
49.830        27
49.840         0
49.850        40
49.860        27
49.870        13
49.880        20
49.890         7
49.900        13
49.910         7
49.920        33
49.930        33
49.940        20
49.950        20
49.960        13
49.970        20
49.980         0
49.990        53
50.000         0
50.010        33
50.020         0
50.030         7
50.040        20
50.050        20
50.060        27
50.070         0
50.080        20
50.090        13
50.100         7
50.110        13
50.120        20
50.130        13
50.140        13
50.150        20
50.160        20
50.170        27
50.180        33
50.190        20
50.200        47
50.210        27
50.220         0
50.230        13
50.240        27
50.250         7
50.260        27
50.270         7
50.280         7
50.290        20
50.300         7
50.310        27
50.320        13
50.330         7
50.340        13
50.350        53
50.360        13
50.370        13
50.380         7
50.390         7
50.400        13
50.410        33
50.420         7
50.430        13
50.440        40
50.450        27
50.460        33
50.470        33
50.480        20
50.490        13
50.500        13
50.510        20
50.520        27
50.530        33
50.540        40
50.550        33
50.560        33
50.570         0
50.580        27
50.590        20
50.600        33
50.610        20
50.620        20
50.630         0
50.640        13
50.650        20
50.660        33
50.670        20
50.680        13
50.690        13
50.700         7
50.710        13
50.720        20
50.730        13
50.740        20
50.750        13
50.760        27
50.770        20
50.780         7
50.790        27
50.800        13
50.810        27
50.820         7
50.830        53
50.840        40
50.850        40
50.860        27
50.870        20
50.880         7
50.890        53
50.900         7
50.910        40
50.920        20
50.930        13
50.940        20
50.950        33
50.960        33
50.970        13
50.980        13
50.990        13
51.000        13
51.010        33
51.020        33
51.030         7
51.040        47
51.050        20
51.060         7
51.070        13
51.080        13
51.090        27
51.100        27
51.110        13
51.120        20
51.130        40
51.140        20
51.150        27
51.160        13
51.170        33
51.180        13
51.190        13
51.200        27
51.210        27
51.220        33
51.230        20
51.240        20
51.250        20
51.260        20
51.270        33
51.280        13
51.290        20
51.300         7
51.310        33
51.320        40
51.330        27
51.340        20
51.350        13
51.360         7
51.370         7
51.380        13
51.390        13
51.400        33
51.410        13
51.420        20
51.430         7
51.440        27
51.450        13
51.460        20
51.470        40
51.480        20
51.490        40
51.500        13
51.510        47
51.520        20
51.530        20
51.540        27
51.550         0
51.560         0
51.570         7
51.580        13
51.590        20
51.600        27
51.610        27
51.620        20
51.630        33
51.640        13
51.650        20
51.660        27
51.670        40
51.680        27
51.690        13
51.700        27
51.710        33
51.720        33
51.730        27
51.740        53
51.750        13
51.760        20
51.770        13
51.780        27
51.790         7
51.800        40
51.810        27
51.820        13
51.830        27
51.840        27
51.850        33
51.860        27
51.870         7
51.880        40
51.890        20
51.900        27
51.910        13
51.920        40
51.930        13
51.940        13
51.950         7
51.960        20
51.970         7
51.980        33
51.990        73
52.000        13
52.010         7
52.020        27
52.030        27
52.040        13
52.050        33
52.060        20
52.070        13
52.080        20
52.090        33
52.100        53
52.110        27
52.120        27
52.130        27
52.140        13
52.150        13
52.160        20
52.170        47
52.180        33
52.190        13
52.200         7
52.210         7
52.220        27
52.230        27
52.240        20
52.250        33
52.260        33
52.270        33
52.280        27
52.290        13
52.300        20
52.310        33
52.320        20
52.330        27
52.340        13
52.350        20
52.360        27
52.370        20
52.380        27
52.390        20
52.400        53
52.410        27
52.420        27
52.430        20
52.440        33
52.450        27
52.460        13
52.470        20
52.480        27
52.490         7
52.500        13
52.510        33
52.520        20
52.530        27
52.540        27
52.550        33
52.560        60
52.570         7
52.580        27
52.590        27
52.600        27
52.610        27
52.620        33
52.630        20
52.640        27
52.650         7
52.660        33
52.670         7
52.680        20
52.690        20
52.700        13
52.710        40
52.720        33
52.730        20
52.740        27
52.750        60
52.760        13
52.770        27
52.780        27
52.790         7
52.800        20
52.810        33
52.820        13
52.830        20
52.840        33
52.850         0
52.860        33
52.870        27
52.880        13
52.890        27
52.900         0
52.910        27
52.920        13
52.930        33
52.940        20
52.950         7
52.960        13
52.970        40
52.980        20
52.990        13
53.000        27
53.010        20
53.020         0
53.030        20
53.040        33
53.050         7
53.060        20
53.070         0
53.080        27
53.090        27
53.100        33
53.110         0
53.120        20
53.130        27
53.140        13
53.150        27
53.160        47
53.170        20
53.180        33
53.190        13
53.200        27
53.210        20
53.220        20
53.230        40
53.240        33
53.250         7
53.260         7
53.270        33
53.280        20
53.290        20
53.300        20
53.310         7
53.320        13
53.330        33
53.340         7
53.350        13
53.360        13
53.370        27
53.380        13
53.390        33
53.400        40
53.410        33
53.420         7
53.430        33
53.440        20
53.450        13
53.460         0
53.470        40
53.480        40
53.490        20
53.500        13
53.510        13
53.520        27
53.530        13
53.540        27
53.550        33
53.560        27
53.570        13
53.580        47
53.590        13
53.600         7
53.610        27
53.620        33
53.630        20
53.640         7
53.650        13
53.660        13
53.670         7
53.680        20
53.690        20
53.700        13
53.710        13
53.720        27
53.730         7
53.740        27
53.750        13
53.760        13
53.770         0
53.780        13
53.790        13
53.800        27
53.810        13
53.820        20
53.830         7
53.840         7
53.850        20
53.860         7
53.870        27
53.880         0
53.890        27
53.900        27
53.910        13
53.920         7
53.930         7
53.940        20
53.950        33
53.960         0
53.970        47
53.980        20
53.990        13
54.000        40
54.010        13
54.020        20
54.030        27
54.040        27
54.050         7
54.060         0
54.070         7
54.080        13
54.090        33
54.100        20
54.110        33
54.120         7
54.130        27
54.140        20
54.150        27
54.160        33
54.170        27
54.180        27
54.190        13
54.200        40
54.210        60
54.220        33
54.230        13
54.240        47
54.250         7
54.260        20
54.270        13
54.280        13
54.290        40
54.300        27
54.310        27
54.320        33
54.330         7
54.340        13
54.350        33
54.360        20
54.370         7
54.380        33
54.390        33
54.400        20
54.410        13
54.420        53
54.430        20
54.440        13
54.450        27
54.460        20
54.470        13
54.480         0
54.490        20
54.500        13
54.510        13
54.520        20
54.530        27
54.540        20
54.550        20
54.560        27
54.570        20
54.580        13
54.590         7
54.600        20
54.610        13
54.620         7
54.630         7
54.640         7
54.650        27
54.660        33
54.670        40
54.680        13
54.690        27
54.700        20
54.710        20
54.720        20
54.730        33
54.740        27
54.750        27
54.760        40
54.770        20
54.780        33
54.790        20
54.800        13
54.810        33
54.820        20
54.830         7
54.840        40
54.850        20
54.860        53
54.870        47
54.880        33
54.890         7
54.900        27
54.910        40
54.920        20
54.930        27
54.940        33
54.950        20
54.960        40
54.970        40
54.980        20
54.990        40
55.000         7
55.010        27
55.020        20
55.030        33
55.040        13
55.050         7
55.060        33
55.070        27
55.080        67
55.090        40
55.100        13
55.110        53
55.120        27
55.130        33
55.140        20
55.150        33
55.160        27
55.170        33
55.180        13
55.190        47
55.200        33
55.210        13
55.220        47
55.230         7
55.240        20
55.250        13
55.260        27
55.270         7
55.280         7
55.290        27
55.300        27
55.310        13
55.320        20
55.330        20
55.340        40
55.350        13
55.360        20
55.370        20
55.380        20
55.390        13
55.400        20
55.410        40
55.420         7
55.430        73
55.440        20
55.450        40
55.460        20
55.470        40
55.480        40
55.490        20
55.500         7
55.510        13
55.520        40
55.530         7
55.540        40
55.550        27
55.560        13
55.570        13
55.580        20
55.590        13
55.600        27
55.610         7
55.620        33
55.630        33
55.640        13
55.650        33
55.660        27
55.670        27
55.680        13
55.690        20
55.700        20
55.710         7
55.720        40
55.730        13
55.740        27
55.750        20
55.760        13
55.770         0
55.780        33
55.790         7
55.800        20
55.810         7
55.820        20
55.830        20
55.840        33
55.850        13
55.860        13
55.870        27
55.880         7
55.890        20
55.900        33
55.910        33
55.920        13
55.930         7
55.940        27
55.950        33
55.960        13
55.970        33
55.980        53
55.990        13
56.000        13
56.010        27
56.020        27
56.030         0
56.040        13
56.050        13
56.060        20
56.070        13
56.080        47
56.090         7
56.100        53
56.110        40
56.120        53
56.130        13
56.140        27
56.150        33
56.160         7
56.170        13
56.180        47
56.190        13
56.200        20
56.210        13
56.220        47
56.230        33
56.240        13
56.250        13
56.260        20
56.270         7
56.280        20
56.290        27
56.300        20
56.310        33
56.320        20
56.330        20
56.340        33
56.350        33
56.360        67
56.370        13
56.380        40
56.390        20
56.400        33
56.410        13
56.420        53
56.430        67
56.440        33
56.450        27
56.460        33
56.470        33
56.480        73
56.490        60
56.500        67
56.510        67
56.520        47
56.530        87
56.540        53
56.550       127
56.560       120
56.570       120
56.580       113
56.590       147
56.600       127
56.610       193
56.620       113
56.630       140
56.640       107
56.650       187
56.660       140
56.670       140
56.680       173
56.690       153
56.700       167
56.710       207
56.720       220
56.730       127
56.740       153
56.750       180
56.760       127
56.770       127
56.780       133
56.790       140
56.800       107
56.810       133
56.820       113
56.830       133
56.840       107
56.850       100
56.860       120
56.870        80
56.880        40
56.890        87
56.900        27
56.910        33
56.920       100
56.930        27
56.940        67
56.950        27
56.960        40
56.970        67
56.980        53
56.990        40
57.000        33
57.010        33
57.020        33
57.030        40
57.040        53
57.050        40
57.060        40
57.070        67
57.080         7
57.090        40
57.100        27
57.110        47
57.120        20
57.130        40
57.140        20
57.150        33
57.160        13
57.170        53
57.180        27
57.190        33
57.200        53
57.210        20
57.220        47
57.230        20
57.240        53
57.250        40
57.260        60
57.270        47
57.280        40
57.290        40
57.300        47
57.310        33
57.320        60
57.330        47
57.340        33
57.350        27
57.360        47
57.370        33
57.380        20
57.390        27
57.400        47
57.410        27
57.420        13
57.430        27
57.440        13
57.450        40
57.460        20
57.470        13
57.480        27
57.490        40
57.500        40
57.510        13
57.520        20
57.530        67
57.540        13
57.550         7
57.560        13
57.570         7
57.580        47
57.590        33
57.600        13
57.610        27
57.620        33
57.630        40
57.640        13
57.650        27
57.660         7
57.670         7
57.680        20
57.690        20
57.700        20
57.710         7
57.720        13
57.730        20
57.740        20
57.750        20
57.760        27
57.770        13
57.780        13
57.790        33
57.800         7
57.810        27
57.820        33
57.830        13
57.840        27
57.850        33
57.860        20
57.870         0
57.880         7
57.890        13
57.900        27
57.910         7
57.920         7
57.930        27
57.940         7
57.950         7
57.960        40
57.970        33
57.980        27
57.990        27
58.000        13
58.010         7
58.020        13
58.030        20
58.040        27
58.050        27
58.060        33
58.070        40
58.080        13
58.090         7
58.100         7
58.110        20
58.120        13
58.130         7
58.140        20
58.150         7
58.160         0
58.170        27
58.180         7
58.190        20
58.200        27
58.210         7
58.220        33
58.230         7
58.240         7
58.250         0
58.260        13
58.270        27
58.280        20
58.290        13
58.300        27
58.310        20
58.320        47
58.330        27
58.340         7
58.350         7
58.360         0
58.370        27
58.380         7
58.390        13
58.400         7
58.410        20
58.420         7
58.430        13
58.440         7
58.450         7
58.460        13
58.470        13
58.480        40
58.490        27
58.500         7
58.510        27
58.520        20
58.530         7
58.540        13
58.550         0
58.560        20
58.570         0
58.580         7
58.590         0
58.600        20
58.610        13
58.620        27
58.630        13
58.640         7
58.650        33
58.660         7
58.670        13
58.680        13
58.690         7
58.700        33
58.710        20
58.720        13
58.730        13
58.740        27
58.750        27
58.760        33
58.770        27
58.780         0
58.790        27
58.800        33
58.810         7
58.820         7
58.830         0
58.840         0
58.850        13
58.860        13
58.870        27
58.880        13
58.890        27
58.900        33
58.910        27
58.920        27
58.930        27
58.940        13
58.950        33
58.960        20
58.970        20
58.980        13
58.990        20
59.000        20
59.010        20
59.020        13
59.030        33
59.040        20
59.050        20
59.060        27
59.070        13
59.080        13
59.090        20
59.100        13
59.110         7
59.120        20
59.130         7
59.140        40
59.150        27
59.160        27
59.170        20
59.180        20
59.190        13
59.200         0
59.210        20
59.220         0
59.230        13
59.240        13
59.250        20
59.260        20
59.270        27
59.280        33
59.290        13
59.300        13
59.310        40
59.320        13
59.330        33
59.340         7
59.350        40
59.360        13
59.370        13
59.380        13
59.390        33
59.400         7
59.410        13
59.420        20
59.430        20
59.440        20
59.450        13
59.460        20
59.470         7
59.480        13
59.490        13
59.500        27
59.510        20
59.520         7
59.530        13
59.540        53
59.550        20
59.560         7
59.570         7
59.580        27
59.590        20
59.600        20
59.610        13
59.620        13
59.630        13
59.640         7
59.650        40
59.660        13
59.670        20
59.680        20
59.690        47
59.700        20
59.710        13
59.720        20
59.730        47
59.740         0
59.750        27
59.760        13
59.770        33
59.780         7
59.790        20
59.800         7
59.810         7
59.820        20
59.830         7
59.840        13
59.850         0
59.860        33
59.870        20
59.880        20
59.890        13
59.900        20
59.910        20
59.920         7
59.930         7
59.940        27
59.950        27
59.960        13
59.970         7
59.980        53
59.990        33
60.000        13
