20.000        60
20.010        40
20.020        40
20.030        40
20.040        67
20.050        40
20.060        53
20.070        20
20.080        47
20.090        20
20.100        13
20.110        33
20.120        13
20.130        20
20.140        40
20.150        47
20.160        40
20.170        40
20.180        20
20.190        40
20.200        40
20.210        20
20.220        33
20.230        60
20.240        40
20.250        47
20.260        33
20.270        40
20.280        53
20.290        60
20.300        47
20.310        40
20.320        53
20.330        40
20.340        40
20.350        20
20.360        20
20.370        73
20.380        33
20.390        47
20.400        40
20.410        47
20.420        27
20.430        60
20.440        33
20.450        20
20.460        47
20.470        33
20.480        47
20.490        33
20.500        27
20.510        40
20.520        47
20.530        73
20.540        47
20.550        53
20.560        47
20.570        60
20.580        27
20.590        33
20.600        67
20.610        20
20.620        47
20.630        33
20.640        73
20.650        20
20.660        40
20.670        40
20.680        20
20.690        47
20.700        33
20.710        33
20.720        47
20.730        33
20.740        47
20.750        40
20.760        60
20.770        47
20.780        40
20.790        47
20.800        67
20.810        33
20.820        47
20.830        53
20.840        53
20.850        53
20.860        40
20.870        33
20.880        33
20.890        53
20.900         7
20.910        27
20.920        33
20.930        53
20.940        33
20.950        67
20.960        47
20.970        33
20.980        27
20.990        67
21.000        33
21.010        33
21.020        27
21.030        60
21.040        53
21.050        47
21.060        47
21.070        20
21.080        47
21.090         7
21.100        27
21.110        20
21.120        40
21.130        40
21.140        20
21.150        40
21.160        53
21.170         7
21.180        60
21.190        33
21.200        27
21.210        47
21.220        47
21.230        27
21.240        33
21.250        27
21.260        53
21.270        27
21.280        47
21.290        60
21.300        27
21.310        47
21.320        27
21.330        20
21.340        27
21.350        20
21.360        27
21.370        40
21.380        33
21.390        53
21.400        47
21.410        27
21.420        40
21.430        53
21.440        20
21.450        27
21.460        47
21.470        53
21.480        33
21.490        40
21.500        47
21.510        47
21.520        80
21.530        33
21.540        33
21.550        67
21.560        33
21.570        40
21.580        13
21.590        40
21.600        40
21.610        67
21.620        40
21.630        67
21.640        47
21.650        47
21.660        20
21.670        73
21.680        13
21.690        33
21.700        20
21.710        53
21.720        27
21.730        27
21.740        27
21.750        67
21.760        20
21.770        40
21.780        13
21.790        47
21.800        67
21.810        20
21.820        13
21.830        20
21.840        20
21.850        27
21.860        53
21.870        33
21.880        33
21.890        60
21.900        33
21.910        47
21.920        60
21.930        40
21.940        67
21.950        47
21.960        13
21.970        33
21.980         7
21.990        40
22.000        40
22.010        20
22.020        33
22.030        13
22.040        33
22.050        27
22.060        33
22.070        60
22.080        33
22.090        33
22.100       160
22.110        60
22.120        27
22.130        47
22.140        40
22.150        33
22.160        73
22.170        40
22.180        20
22.190        27
22.200        60
22.210         7
22.220        27
22.230        40
22.240        20
22.250        53
22.260         7
22.270        33
22.280         7
22.290        20
22.300        33
22.310        60
22.320        20
22.330        33
22.340        60
22.350        20
22.360        60
22.370        60
22.380        33
22.390        40
22.400        20
22.410        27
22.420        47
22.430        47
22.440        33
22.450        33
22.460        33
22.470         0
22.480        33
22.490        53
22.500        20
22.510        20
22.520        40
22.530        33
22.540        27
22.550        20
22.560        33
22.570        60
22.580        40
22.590        27
22.600        27
22.610        13
22.620        80
22.630        27
22.640        53
22.650        20
22.660        67
22.670         7
22.680        20
22.690        13
22.700        27
22.710        47
22.720        27
22.730        33
22.740        33
22.750        20
22.760        47
22.770        60
22.780        33
22.790        47
22.800        20
22.810        27
22.820        60
22.830        20
22.840        20
22.850        13
22.860        60
22.870        33
22.880        53
22.890         7
22.900        40
22.910        47
22.920        60
22.930        20
22.940        33
22.950        47
22.960        60
22.970        47
22.980        60
22.990        27
23.000        40
23.010        53
23.020        20
23.030        47
23.040        60
23.050        60
23.060        40
23.070        40
23.080         0
23.090        20
23.100        33
23.110        27
23.120        73
23.130        13
23.140        27
23.150        33
23.160        67
23.170        13
23.180        27
23.190        27
23.200        33
23.210        20
23.220        40
23.230        40
23.240        20
23.250        53
23.260        33
23.270        47
23.280        27
23.290        13
23.300        33
23.310        20
23.320        20
23.330        33
23.340        67
23.350        33
23.360        27
23.370        53
23.380        27
23.390        13
23.400        20
23.410        33
23.420        40
23.430        27
23.440        27
23.450        27
23.460         7
23.470        33
23.480        27
23.490        13
23.500        27
23.510        33
23.520        20
23.530        60
23.540        33
23.550        27
23.560        33
23.570        47
23.580        47
23.590        33
23.600        33
23.610        33
23.620        40
23.630        53
23.640        33
23.650        33
23.660        53
23.670        20
23.680        20
23.690        67
23.700        47
23.710        20
23.720        27
23.730        40
23.740        33
23.750        27
23.760        47
23.770        47
23.780         7
23.790        40
23.800        13
23.810        93
23.820        47
23.830        20
23.840        33
23.850        33
23.860        27
23.870        53
23.880        27
23.890        33
23.900        33
23.910        27
23.920        40
23.930         7
23.940        40
23.950        40
23.960        27
23.970        20
23.980        53
23.990        33
24.000        27
24.010        47
24.020        20
24.030        27
24.040        27
24.050        47
24.060        40
24.070        20
24.080        27
24.090        53
24.100        33
24.110        60
24.120        13
24.130        33
24.140        40
24.150        27
24.160        27
24.170        47
24.180        13
24.190        20
24.200        27
24.210        33
24.220        27
24.230        80
24.240        33
24.250        40
24.260        53
24.270        40
24.280        27
24.290        27
24.300        80
24.310         7
24.320        53
24.330        33
24.340        33
24.350        47
24.360        27
24.370        27
24.380        13
24.390        40
24.400        20
24.410        20
24.420        47
24.430        27
24.440        20
24.450        20
24.460        13
24.470        13
24.480        27
24.490        20
24.500        33
24.510        13
24.520        33
24.530        40
24.540        40
24.550        33
24.560        27
24.570        40
24.580        33
24.590        20
24.600        33
24.610        27
24.620        33
24.630        27
24.640        40
24.650        20
24.660        53
24.670        13
24.680        27
24.690         7
24.700        53
24.710        47
24.720        27
24.730        27
24.740        20
24.750        27
24.760        33
24.770        47
24.780        40
24.790        33
24.800        27
24.810        20
24.820        20
24.830        40
24.840        40
24.850        13
24.860        20
24.870        47
24.880        53
24.890        20
24.900        33
24.910        20
24.920        27
24.930        53
24.940        40
24.950        27
24.960         7
24.970        20
24.980        13
24.990        80
25.000        60
25.010        27
25.020        53
25.030        33
25.040        40
25.050        20
25.060        40
25.070        40
25.080        13
25.090        40
25.100        27
25.110        20
25.120        33
25.130         7
25.140        20
25.150        20
25.160        40
25.170        20
25.180        53
25.190        33
25.200        47
25.210        33
25.220        33
25.230        27
25.240        47
25.250        20
25.260        33
25.270        40
25.280        33
25.290        27
25.300        20
25.310        13
25.320        33
25.330        40
25.340        40
25.350        40
25.360        67
25.370        53
25.380        13
25.390        33
25.400        20
25.410        20
25.420        33
25.430        13
25.440        27
25.450        33
25.460        53
25.470        80
25.480        13
25.490        60
25.500        47
25.510        33
25.520        40
25.530        40
25.540        40
25.550        53
25.560        60
25.570        47
25.580        60
25.590        53
25.600        40
25.610        40
25.620        40
25.630        60
25.640        47
25.650        40
25.660        13
25.670        40
25.680        20
25.690        27
25.700        40
25.710        33
25.720        40
25.730        27
25.740        80
25.750        27
25.760        13
25.770         7
25.780        20
25.790        20
25.800        40
25.810        20
25.820        47
25.830        20
25.840        13
25.850        27
25.860        27
25.870        40
25.880        27
25.890        40
25.900        20
25.910        40
25.920        27
25.930        53
25.940        20
25.950        47
25.960        27
25.970        20
25.980        20
25.990        13
26.000        13
26.010        20
26.020        47
26.030        13
26.040        13
26.050         7
26.060         0
26.070        13
26.080        33
26.090         7
26.100        20
26.110        13
26.120        33
26.130        33
26.140         7
26.150        13
26.160        27
26.170        40
26.180        13
26.190        20
26.200        33
26.210        13
26.220        33
26.230        13
26.240        27
26.250        13
26.260        13
26.270         7
26.280        20
26.290        47
26.300        33
26.310        47
26.320        27
26.330        40
26.340        20
26.350        33
26.360         7
26.370        40
26.380        47
26.390        20
26.400        13
26.410         7
26.420        13
26.430         7
26.440        47
26.450        13
26.460        13
26.470        40
26.480        20
26.490        13
26.500        33
26.510        27
26.520         7
26.530        27
26.540        27
26.550        73
26.560        20
26.570        53
26.580        33
26.590        13
26.600        27
26.610        13
26.620        47
26.630        40
26.640        20
26.650        53
26.660        80
26.670        27
26.680        47
26.690        40
26.700        27
26.710        47
26.720        27
26.730        13
26.740        20
26.750         7
26.760         7
26.770        47
26.780        13
26.790        27
26.800        40
26.810        13
26.820        40
26.830        20
26.840        47
26.850         0
26.860        27
26.870        20
26.880        27
26.890        27
26.900        33
26.910        13
26.920        20
26.930        13
26.940         7
26.950        40
26.960        33
26.970        27
26.980         7
26.990        40
27.000        20
27.010        47
27.020        33
27.030        13
27.040        27
27.050        13
27.060         7
27.070        27
27.080        20
27.090        33
27.100        47
27.110        33
27.120        33
27.130        33
27.140        20
27.150        33
27.160        53
27.170        13
27.180        87
27.190        47
27.200        40
27.210        13
27.220        47
27.230        20
27.240        40
27.250        27
27.260        20
27.270        27
27.280        27
27.290        40
27.300        40
27.310        53
27.320        40
27.330        33
27.340        27
27.350        13
27.360        27
27.370        20
27.380        33
27.390        40
27.400        20
27.410        27
27.420        20
27.430        33
27.440        47
27.450        20
27.460         7
27.470        40
27.480        13
27.490         7
27.500        47
27.510        33
27.520        47
27.530        20
27.540        20
27.550        20
27.560        20
27.570        20
27.580        20
27.590        13
27.600         7
27.610         7
27.620        33
27.630        40
27.640        33
27.650        13
27.660        13
27.670        47
27.680        13
27.690        47
27.700        47
27.710        33
27.720        20
27.730        47
27.740        20
27.750        33
27.760        67
27.770        13
27.780        33
27.790        27
27.800        33
27.810        40
27.820        60
27.830        20
27.840        27
27.850        27
27.860        13
27.870        27
27.880        33
27.890        27
27.900        27
27.910        27
27.920        60
27.930        20
27.940        20
27.950        27
27.960        40
27.970        27
27.980        27
27.990        27
28.000        40
28.010        40
28.020        27
28.030        40
28.040        33
28.050        13
28.060        13
28.070        20
28.080         7
28.090         7
28.100        20
28.110        27
28.120         7
28.130         7
28.140        33
28.150        33
28.160        20
28.170        20
28.180        40
28.190        13
28.200        53
28.210        27
28.220        20
28.230        40
28.240         7
28.250         7
28.260         7
28.270        33
28.280        47
28.290        20
28.300        27
28.310        53
28.320        20
28.330         7
28.340        13
28.350        40
28.360        20
28.370        27
28.380        13
28.390        33
28.400        40
28.410         0
28.420        40
28.430        27
28.440        13
28.450        20
28.460        33
28.470        20
28.480        20
28.490        40
28.500        13
28.510        27
28.520        40
28.530        33
28.540         0
28.550        40
28.560        13
28.570         7
28.580        33
28.590        13
28.600        20
28.610        47
28.620        33
28.630        40
28.640        40
28.650        20
28.660        47
28.670        13
28.680        47
28.690        40
28.700        33
28.710        27
28.720        13
28.730        20
28.740        40
28.750        27
28.760        53
28.770        40
28.780        13
28.790        13
28.800        53
28.810        20
28.820        27
28.830        27
28.840        13
28.850         7
28.860        27
28.870        67
28.880        13
28.890         0
28.900        47
28.910        40
28.920        40
28.930        20
28.940        27
28.950        20
28.960        53
28.970        40
28.980        60
28.990        33
29.000        33
29.010        20
29.020        27
29.030        13
29.040        20
29.050        33
29.060        33
29.070        20
29.080        20
29.090        47
29.100        27
29.110        47
29.120        27
29.130        27
29.140        20
29.150         7
29.160        13
29.170         7
29.180        33
29.190        27
29.200        13
29.210        13
29.220        53
29.230        27
29.240        20
29.250         7
29.260        40
29.270        20
29.280        27
29.290         7
29.300        60
29.310        33
29.320        27
29.330        20
29.340        20
29.350        40
29.360        20
29.370        27
29.380        27
29.390        33
29.400        40
29.410        27
29.420        40
29.430        27
29.440        20
29.450        20
29.460        53
29.470        47
29.480        13
29.490        20
29.500        33
29.510        20
29.520        47
29.530        47
29.540         7
29.550        13
29.560        20
29.570        13
29.580        33
29.590        13
29.600         7
29.610        13
29.620        33
29.630        20
29.640        40
29.650        47
29.660        20
29.670        27
29.680        33
29.690        13
29.700        33
29.710        13
29.720        27
29.730        27
29.740        33
29.750        20
29.760        40
29.770        27
29.780        20
29.790        33
29.800        27
29.810        20
29.820        20
29.830        80
29.840        27
29.850        20
29.860        20
29.870        33
29.880         7
29.890         7
29.900        27
29.910        33
29.920        33
29.930        47
29.940        20
29.950        33
29.960        33
29.970        33
29.980        47
29.990        27
30.000        27
30.010        13
30.020        27
30.030         7
30.040        53
30.050        33
30.060        13
30.070        33
30.080        27
30.090        27
30.100        40
30.110        27
30.120        13
30.130        20
30.140        40
30.150        67
30.160        60
30.170         7
30.180         7
30.190        20
30.200        13
30.210        27
30.220        20
30.230        27
30.240         0
30.250        20
30.260        47
30.270         7
30.280        60
30.290        33
30.300         7
30.310        27
30.320        60
30.330        33
30.340        20
30.350        47
30.360        13
30.370        33
30.380        33
30.390        33
30.400         7
30.410        40
30.420        33
30.430        27
30.440        20
30.450        47
30.460         0
30.470        53
30.480        27
30.490        40
30.500        53
30.510        47
30.520        27
30.530        27
30.540        13
30.550         0
30.560        13
30.570        13
30.580        20
30.590        13
30.600        13
30.610        13
30.620        20
30.630        27
30.640        13
30.650        47
30.660        13
30.670        27
30.680         7
30.690        20
30.700        27
30.710         0
30.720        33
30.730        20
30.740        40
30.750        27
30.760        13
30.770        33
30.780        20
30.790        20
30.800        20
30.810        53
30.820        27
30.830        60
30.840        20
30.850        33
30.860        40
30.870        20
30.880        27
30.890         0
30.900        13
30.910         0
30.920        53
30.930         7
30.940        53
30.950        20
30.960        67
30.970        33
30.980         7
30.990        13
31.000        40
31.010        40
31.020        40
31.030        13
31.040        27
31.050        33
31.060        20
31.070        33
31.080        33
31.090        40
31.100        13
31.110        27
31.120        13
31.130        20
31.140        20
31.150        20
31.160        13
31.170        47
31.180         0
31.190        27
31.200        20
31.210        20
31.220        27
31.230        27
31.240        20
31.250        33
31.260        33
31.270        33
31.280        13
31.290        53
31.300        13
31.310        13
31.320        27
31.330        20
31.340        13
31.350        27
31.360        13
31.370        53
31.380         7
31.390        27
31.400        20
31.410        40
31.420         7
31.430        40
31.440        20
31.450         7
31.460        60
31.470        27
31.480        20
31.490        27
31.500        13
31.510        33
31.520        27
31.530        20
31.540        33
31.550         7
31.560        47
31.570        40
31.580        40
31.590        20
31.600        67
31.610        13
31.620        20
31.630        47
31.640         7
31.650        27
31.660        33
31.670        60
31.680        27
31.690        53
31.700        33
31.710        53
31.720        53
31.730        27
31.740        93
31.750        67
31.760        53
31.770        60
31.780        60
31.790        80
31.800        80
31.810        80
31.820       107
31.830       147
31.840       147
31.850        87
31.860        53
31.870       100
31.880       113
31.890       127
31.900       153
31.910        87
31.920       127
31.930        73
31.940        67
31.950        87
31.960        60
31.970       100
31.980       107
31.990        73
32.000        60
32.010        40
32.020        40
32.030        33
32.040        80
32.050        33
32.060        27
32.070        33
32.080        20
32.090        33
32.100        27
32.110        60
32.120        27
32.130        53
32.140        13
32.150        47
32.160        27
32.170        20
32.180        33
32.190        20
32.200         7
32.210        40
32.220        27
32.230        27
32.240        13
32.250        13
32.260        33
32.270        33
32.280        20
32.290        20
32.300        20
32.310        53
32.320        40
32.330        53
32.340        40
32.350        20
32.360        40
32.370        60
32.380        33
32.390        13
32.400        47
32.410        27
32.420        13
32.430        13
32.440        20
32.450        53
32.460        27
32.470        20
32.480        27
32.490        20
32.500        40
32.510        27
32.520        40
32.530        20
32.540        20
32.550        13
32.560        20
32.570        20
32.580        20
32.590        20
32.600        20
32.610        27
32.620        40
32.630        27
32.640        20
32.650         7
32.660        20
32.670        27
32.680        27
32.690        27
32.700        27
32.710        13
32.720        27
32.730        27
32.740        47
32.750        27
32.760        13
32.770        13
32.780        20
32.790        27
32.800        20
32.810        60
32.820        33
32.830        13
32.840        33
32.850        13
32.860        33
32.870        20
32.880        13
32.890        53
32.900        33
32.910        20
32.920        40
32.930         7
32.940        20
32.950        33
32.960        20
32.970        13
32.980        27
32.990        20
33.000        13
33.010        20
33.020        20
33.030        20
33.040        27
33.050        27
33.060        27
33.070        53
33.080        27
33.090        20
33.100        13
33.110        27
33.120        27
33.130        40
33.140        27
33.150        13
33.160         7
33.170        27
33.180        27
33.190        13
33.200        20
33.210        40
33.220        40
33.230        20
33.240        47
33.250        40
33.260        27
33.270        20
33.280        20
33.290        13
33.300        13
33.310        33
33.320        47
33.330        20
33.340        20
33.350        33
33.360        53
33.370         7
33.380        13
33.390        13
33.400        40
33.410        27
33.420        27
33.430        20
33.440        33
33.450        13
33.460        20
33.470         0
33.480        27
33.490        20
33.500        27
33.510        20
33.520        27
33.530         7
33.540         0
33.550        47
33.560        40
33.570        33
33.580        67
33.590        20
33.600        20
33.610        20
33.620         0
33.630        27
33.640        47
33.650        13
33.660        73
33.670        40
33.680        20
33.690        33
33.700        27
33.710        20
33.720        27
33.730        27
33.740        13
33.750        40
33.760        33
33.770        40
33.780         0
33.790        13
33.800        20
33.810         7
33.820        13
33.830         0
33.840        33
33.850        13
33.860        33
33.870         7
33.880        13
33.890        33
33.900        27
33.910        53
33.920        20
33.930        13
33.940        33
33.950        27
33.960         0
33.970        27
33.980         7
33.990        27
34.000        13
34.010        27
34.020        20
34.030        13
34.040        20
34.050        13
34.060        40
34.070        13
34.080        47
34.090         0
34.100        27
34.110        27
34.120        13
34.130        13
34.140        53
34.150        33
34.160        33
34.170        13
34.180        20
34.190        13
34.200        20
34.210         7
34.220        33
34.230        20
34.240         0
34.250        13
34.260        20
34.270        40
34.280        13
34.290         0
34.300         7
34.310        13
34.320        20
34.330        20
34.340        13
34.350        20
34.360        20
34.370        40
34.380        40
34.390        13
34.400        33
34.410        40
34.420         7
34.430        40
34.440        13
34.450        20
34.460        13
34.470         0
34.480         7
34.490        13
34.500        33
34.510        67
34.520        13
34.530         7
34.540        20
34.550        27
34.560        47
34.570         7
34.580        40
34.590         7
34.600        20
34.610         0
34.620        27
34.630        27
34.640        40
34.650        27
34.660        20
34.670        20
34.680        20
34.690         7
34.700        20
34.710         7
34.720        33
34.730        27
34.740        13
34.750        13
34.760        33
34.770        20
34.780        27
34.790        13
34.800        27
34.810        33
34.820         0
34.830        27
34.840        20
34.850        27
34.860        33
34.870        27
34.880         0
34.890        33
34.900        47
34.910        27
34.920        47
34.930        47
34.940        33
34.950        47
34.960        33
34.970        27
34.980        40
34.990        33
35.000        53
35.010        40
35.020        67
35.030        60
35.040        40
35.050        73
35.060        60
35.070        40
35.080        60
35.090       107
35.100        40
35.110       120
35.120       133
35.130       100
35.140       153
35.150       147
35.160       167
35.170       147
35.180       233
35.190       100
35.200       120
35.210       107
35.220        93
35.230       113
35.240        47
35.250        47
35.260        60
35.270        67
35.280        60
35.290        67
35.300        33
35.310        53
35.320        33
35.330        33
35.340         0
35.350        40
35.360        20
35.370        47
35.380        40
35.390         0
35.400        20
35.410        20
35.420        20
35.430        20
35.440         0
35.450        20
35.460        13
35.470        53
35.480        27
35.490        33
35.500        33
35.510        33
35.520        33
35.530        13
35.540        27
35.550         0
35.560        20
35.570         7
35.580        13
35.590        13
35.600        33
35.610        40
35.620         7
35.630         7
35.640        20
35.650         0
35.660        20
35.670        20
35.680        33
35.690        40
35.700        20
35.710        13
35.720        33
35.730        33
35.740         7
35.750        27
35.760        33
35.770        13
35.780        13
35.790        33
35.800        20
35.810        33
35.820        20
35.830        27
35.840        47
35.850        27
35.860        27
35.870        13
35.880        13
35.890         7
35.900        33
35.910        27
35.920        13
35.930        27
35.940        27
35.950         7
35.960        13
35.970        27
35.980        40
35.990        13
36.000        47
36.010        20
36.020        20
36.030        20
36.040        47
36.050        13
36.060        40
36.070        27
36.080        27
36.090        13
36.100        27
36.110        13
36.120        13
36.130        20
36.140        27
36.150        47
36.160        13
36.170         7
36.180         7
36.190        13
36.200        20
36.210        27
36.220         7
36.230        27
36.240         7
36.250        13
36.260         7
36.270        40
36.280        27
36.290         7
36.300        53
36.310        27
36.320         7
36.330        33
36.340         7
36.350        27
36.360         7
36.370         7
36.380        13
36.390        40
36.400        27
36.410         7
36.420        33
36.430        33
36.440        47
36.450         7
36.460        27
36.470        27
36.480        27
36.490        20
36.500        40
36.510        20
36.520        33
36.530        13
36.540        27
36.550        47
36.560         0
36.570         7
36.580        27
36.590        27
36.600        27
36.610        33
36.620        13
36.630        53
36.640         0
36.650        33
36.660         0
36.670        13
36.680        20
36.690        20
36.700        20
36.710        27
36.720         0
36.730        40
36.740         7
36.750        20
36.760        27
36.770         7
36.780        13
36.790        27
36.800        33
36.810         0
36.820        33
36.830        27
36.840        27
36.850         7
36.860        13
36.870        13
36.880         7
36.890        13
36.900        27
36.910        27
36.920        20
36.930        33
36.940        13
36.950        33
36.960        33
36.970        40
36.980        47
36.990        47
37.000        33
37.010        13
37.020        20
37.030        27
37.040        40
37.050        47
37.060        27
37.070        20
37.080        13
37.090        20
37.100        13
37.110        60
37.120        20
37.130        27
37.140         0
37.150        33
37.160        13
37.170        33
37.180        27
37.190        27
37.200        20
37.210        27
37.220        47
37.230        20
37.240        60
37.250        27
37.260        20
37.270        27
37.280         0
37.290        20
37.300        20
37.310        27
37.320         7
37.330        13
37.340        13
37.350         7
37.360        27
37.370        20
37.380        20
37.390        20
37.400        20
37.410        20
37.420        27
37.430        13
37.440        20
37.450        13
37.460         7
37.470        20
37.480        47
37.490        20
37.500        13
37.510        13
37.520        13
37.530        27
37.540        20
37.550        40
37.560         7
37.570        13
37.580        27
37.590        33
37.600        33
37.610        40
37.620        13
37.630        13
37.640         0
37.650         0
37.660        27
37.670        27
37.680        33
37.690        20
37.700        13
37.710         7
37.720        13
37.730        40
37.740        13
37.750        40
37.760        53
37.770        20
37.780        53
37.790        33
37.800        33
37.810        67
37.820        47
37.830        40
37.840        33
37.850        13
37.860        13
37.870        27
37.880        13
37.890        13
37.900        13
37.910         0
37.920        20
37.930        47
37.940         7
37.950        20
37.960        33
37.970         7
37.980         0
37.990        53
38.000         0
38.010        33
38.020        13
38.030         0
38.040        33
38.050        20
38.060        13
38.070        13
38.080        27
38.090        13
38.100         7
38.110        20
38.120        20
38.130        20
38.140        20
38.150         7
38.160        27
38.170        27
38.180        13
38.190        13
38.200        13
38.210        13
38.220        20
38.230        33
38.240        33
38.250        33
38.260        27
38.270        40
38.280         7
38.290        27
38.300        40
38.310        20
38.320        20
38.330        27
38.340        27
38.350        27
38.360        27
38.370        13
38.380        27
38.390        27
38.400         0
38.410        27
38.420        27
38.430         7
38.440        13
38.450        13
38.460        27
38.470        20
38.480        20
38.490        13
38.500         7
38.510        20
38.520         7
38.530        33
38.540        13
38.550        40
38.560        33
38.570        13
38.580        13
38.590        47
38.600         0
38.610        20
38.620        33
38.630        13
38.640        13
38.650        13
38.660        20
38.670         0
38.680         7
38.690        53
38.700        33
38.710         7
38.720        13
38.730        20
38.740         7
38.750        13
38.760        13
38.770        27
38.780        13
38.790        13
38.800        20
38.810        33
38.820        40
38.830         7
38.840        27
38.850        20
38.860        33
38.870        27
38.880        27
38.890        27
38.900        53
38.910        20
38.920        33
38.930        33
38.940         0
38.950        53
38.960        20
38.970        40
38.980        27
38.990        33
39.000        27
39.010        27
39.020        20
39.030        40
39.040        67
39.050        47
39.060        67
39.070        33
39.080        60
39.090        40
39.100        53
39.110        60
39.120        73
39.130        67
39.140        87
39.150       113
39.160        93
39.170        93
39.180       107
39.190       173
39.200       193
39.210       193
39.220       240
39.230       227
39.240       273
39.250       260
39.260       227
39.270       167
39.280       200
39.290       247
39.300       273
39.310       220
39.320       107
39.330       213
39.340       173
39.350       133
39.360       127
39.370       167
39.380       133
39.390        93
39.400       107
39.410       133
39.420        67
39.430       100
39.440        67
39.450        60
39.460        27
39.470        73
39.480        33
39.490        40
39.500        73
39.510        20
39.520        33
39.530        40
39.540        20
39.550        20
39.560        20
39.570        27
39.580        13
39.590        33
39.600        27
39.610        27
39.620        33
39.630        20
39.640        47
39.650        20
39.660        27
39.670        20
39.680        40
39.690        20
39.700         0
39.710        20
39.720        13
39.730        13
39.740        20
39.750         7
39.760        20
39.770        33
39.780        47
39.790         7
39.800        33
39.810        27
39.820        20
39.830         7
39.840         7
39.850        20
39.860        13
39.870         7
39.880        20
39.890        20
39.900        13
39.910         7
39.920        20
39.930        40
39.940        13
39.950         7
39.960        33
39.970         7
39.980        13
39.990        33
40.000        20
40.010        33
40.020        33
40.030        47
40.040        27
40.050        13
40.060         7
40.070        13
40.080        33
40.090        27
40.100        20
40.110        20
40.120        20
40.130        13
40.140         0
40.150        27
40.160        33
40.170        20
40.180        33
40.190        33
40.200        20
40.210        13
40.220        27
40.230        27
40.240        20
40.250        20
40.260        27
40.270        13
40.280         7
40.290        33
40.300        13
40.310        20
40.320        47
40.330        33
40.340         7
40.350        27
40.360        13
40.370         7
40.380         7
40.390        20
40.400        13
40.410        20
40.420         7
40.430        20
40.440        20
40.450         7
40.460        33
40.470        27
40.480         7
40.490         7
40.500        13
40.510        40
40.520        27
40.530         7
40.540        27
40.550        27
40.560        27
40.570        27
40.580        20
40.590        20
40.600         7
40.610        20
40.620        20
40.630         7
40.640        20
40.650         7
40.660        27
40.670        13
40.680        13
40.690         0
40.700        20
40.710        13
40.720        33
40.730        20
40.740        20
40.750         7
40.760        20
40.770        20
40.780        20
40.790        40
40.800        27
40.810        40
40.820        27
40.830        40
40.840        53
40.850         7
40.860        20
40.870         7
40.880         7
40.890        40
40.900        13
40.910        27
40.920        13
40.930        27
40.940        13
40.950        27
40.960        20
40.970        13
40.980        13
40.990        27
41.000         7
41.010        20
41.020        33
41.030        27
41.040        33
41.050        20
41.060         7
41.070        20
41.080        40
41.090        13
41.100        33
41.110        13
41.120         7
41.130        13
41.140        20
41.150        27
41.160        27
41.170        13
41.180        27
41.190        33
41.200        20
41.210        20
41.220        20
41.230        20
41.240        13
41.250        13
41.260        13
41.270        13
41.280        20
41.290        27
41.300        20
41.310        20
41.320        47
41.330        13
41.340        13
41.350        27
41.360         0
41.370        20
41.380        20
41.390        13
41.400        27
41.410        20
41.420         7
41.430        27
41.440         7
41.450        20
41.460        20
41.470        33
41.480        40
41.490        27
41.500        20
41.510        27
41.520         7
41.530        47
41.540        20
41.550        20
41.560        53
41.570        73
41.580        47
41.590         7
41.600        60
41.610        67
41.620        67
41.630        73
41.640        67
41.650        93
41.660        73
41.670       173
41.680       113
41.690       120
41.700       180
41.710       127
41.720       113
41.730        60
41.740        67
41.750        67
41.760        73
41.770        80
41.780        73
41.790        60
41.800        93
41.810        73
41.820        60
41.830        67
41.840        47
41.850        80
41.860        20
41.870        33
41.880        20
41.890        13
41.900        53
41.910        40
41.920        27
41.930        27
41.940        20
41.950        53
41.960        20
41.970        33
41.980        13
41.990        33
42.000        20
42.010        33
42.020        13
42.030        27
42.040        20
42.050        33
42.060        47
42.070         7
42.080        20
42.090        47
42.100        20
42.110        20
42.120        13
42.130         7
42.140         7
42.150         7
42.160         0
42.170        13
42.180         7
42.190        20
42.200        27
42.210        33
42.220        20
42.230        13
42.240        13
42.250        20
42.260        13
42.270        20
42.280         7
42.290        40
42.300         0
42.310        20
42.320         7
42.330        27
42.340        40
42.350        13
42.360        13
42.370         7
42.380        47
42.390        40
42.400        13
42.410        27
42.420        27
42.430        40
42.440        20
42.450        33
42.460         7
42.470        13
42.480         0
42.490        27
42.500        13
42.510         0
42.520        13
42.530        13
42.540        13
42.550        20
42.560        40
42.570        33
42.580        20
42.590         7
42.600         7
42.610         7
42.620        47
42.630        27
42.640        33
42.650        13
42.660         7
42.670        33
42.680        27
42.690         7
42.700        13
42.710         7
42.720        27
42.730        20
42.740        13
42.750        27
42.760         7
42.770        33
42.780         7
42.790        20
42.800        20
42.810        27
42.820        27
42.830        27
42.840        13
42.850        27
42.860        13
42.870        20
42.880        13
42.890        13
42.900        27
42.910        33
42.920        27
42.930        13
42.940        27
42.950        20
42.960        20
42.970        13
42.980         7
42.990        20
43.000        27
43.010        13
43.020         7
43.030        40
43.040        20
43.050        13
43.060        33
43.070        27
43.080        33
43.090        13
43.100        20
43.110        13
43.120        13
43.130        40
43.140        47
43.150        40
43.160        33
43.170        20
43.180        47
43.190        27
43.200        20
43.210         7
43.220        53
43.230        27
43.240        47
43.250        40
43.260        53
43.270        40
43.280        33
43.290        53
43.300        33
43.310        60
43.320        60
43.330        73
43.340       160
43.350       200
43.360       127
43.370       180
43.380       160
43.390       127
43.400       133
43.410       100
43.420       120
43.430        47
43.440       107
43.450        53
43.460       113
43.470        73
43.480        80
43.490        93
43.500        53
43.510        93
43.520        80
43.530        60
43.540        27
43.550        33
43.560        47
43.570        20
43.580        27
43.590        20
43.600        20
43.610        33
43.620         7
43.630        20
43.640        40
43.650        13
43.660        13
43.670        27
43.680         0
43.690        13
43.700         7
43.710        33
43.720        20
43.730        20
43.740        33
43.750        13
43.760        27
43.770        20
43.780        27
43.790        13
43.800        47
43.810        27
43.820        20
43.830         7
43.840         7
43.850         7
43.860        33
43.870         7
43.880         7
43.890        27
43.900         7
43.910        47
43.920        20
43.930        13
43.940        20
43.950        33
43.960        13
43.970        13
43.980        13
43.990        20
44.000         7
44.010        13
44.020        13
44.030        13
44.040        20
44.050        20
44.060        13
44.070        13
44.080        13
44.090        13
44.100        13
44.110         7
44.120        13
44.130        13
44.140        40
44.150        13
44.160        20
44.170        27
44.180         7
44.190        13
44.200        20
44.210        60
44.220         7
44.230        13
44.240         0
44.250         7
44.260        20
44.270        20
44.280        40
44.290        20
44.300        40
44.310         7
44.320        27
44.330        33
44.340        13
44.350        27
44.360        20
44.370        20
44.380        27
44.390        53
44.400        27
44.410        40
44.420        27
44.430        20
44.440        20
44.450        13
44.460        20
44.470         7
44.480        20
44.490        27
44.500         7
44.510         0
44.520        33
44.530        20
44.540         7
44.550        13
44.560        13
44.570        33
44.580        27
44.590        13
44.600        33
44.610        27
44.620         7
44.630        13
44.640         7
44.650        13
44.660        40
44.670        13
44.680        13
44.690        33
44.700        33
44.710        33
44.720        27
44.730        20
44.740         0
44.750        53
44.760        53
44.770        13
44.780        20
44.790        33
44.800        13
44.810        20
44.820        20
44.830        20
44.840        20
44.850        13
44.860        13
44.870        20
44.880        13
44.890        13
44.900        13
44.910        33
44.920        13
44.930        40
44.940        47
44.950        33
44.960        27
44.970        20
44.980         0
44.990         7
45.000        27
45.010        13
45.020        20
45.030        20
45.040        33
45.050        20
45.060        33
45.070        20
45.080        13
45.090        13
45.100        13
45.110        13
45.120         0
45.130        33
45.140        33
45.150        20
45.160        27
45.170        27
45.180        20
45.190        20
45.200        27
45.210        27
45.220        33
45.230        13
45.240        20
45.250        13
45.260        33
45.270        20
45.280        13
45.290        47
45.300         7
45.310        33
45.320        40
45.330         7
45.340        13
45.350         0
45.360        27
45.370        20
45.380        33
45.390        13
45.400         7
45.410         7
45.420        33
45.430        27
45.440         7
45.450        20
45.460        27
45.470        20
45.480        13
45.490        33
45.500         7
45.510        33
45.520        47
45.530        40
45.540        40
45.550        13
45.560        20
45.570        33
45.580        27
45.590        47
45.600        33
45.610         7
45.620        13
45.630        20
45.640        53
45.650        33
45.660        33
45.670         7
45.680        60
45.690        27
45.700        27
45.710        40
45.720        47
45.730        47
45.740        20
45.750        20
45.760        27
45.770        20
45.780         7
45.790        53
45.800        33
45.810        13
45.820        13
45.830        40
45.840        40
45.850         7
45.860        13
45.870        27
45.880        53
45.890        13
45.900        60
45.910         7
45.920        13
45.930        53
45.940        33
45.950        20
45.960        33
45.970         7
45.980        13
45.990        33
46.000         0
46.010        13
46.020        13
46.030        40
46.040        33
46.050         7
46.060         7
46.070        20
46.080         7
46.090        20
46.100        27
46.110        33
46.120        27
46.130        40
46.140        33
46.150        20
46.160        27
46.170        20
46.180         7
46.190         7
46.200        47
46.210         7
46.220        13
46.230        20
46.240        47
46.250        27
46.260        33
46.270        13
46.280        20
46.290        27
46.300        13
46.310        27
46.320        20
46.330        20
46.340        20
46.350        13
46.360        20
46.370        13
46.380        20
46.390        13
46.400        13
46.410         7
46.420        27
46.430        20
46.440        27
46.450        13
46.460         0
46.470         7
46.480        27
46.490        20
46.500         7
46.510        40
46.520        53
46.530        20
46.540         7
46.550        33
46.560        13
46.570         7
46.580        13
46.590         0
46.600        20
46.610        20
46.620         0
46.630        13
46.640        20
46.650        20
46.660         7
46.670        27
46.680        27
46.690        27
46.700         0
46.710        27
46.720         0
46.730        13
46.740        33
46.750        20
46.760        27
46.770        13
46.780        20
46.790        27
46.800        13
46.810        20
46.820        13
46.830        27
46.840        27
46.850         7
46.860        13
46.870         7
46.880        20
46.890         7
46.900        20
46.910         7
46.920         7
46.930        27
46.940        33
46.950        20
46.960        13
46.970         7
46.980        20
46.990        13
47.000        13
47.010        20
47.020        13
47.030        33
47.040        27
47.050         7
47.060        13
47.070        13
47.080        27
47.090        20
47.100        27
47.110        33
47.120         7
47.130         0
47.140        13
47.150        20
47.160        33
47.170        33
47.180         0
47.190        40
47.200        20
47.210         0
47.220        40
47.230        27
47.240        47
47.250        13
47.260         0
47.270         7
47.280        20
47.290        27
47.300         7
47.310        20
47.320         7
47.330        20
47.340        47
47.350        20
47.360        13
47.370         0
47.380        47
47.390        40
47.400        20
47.410        27
47.420        20
47.430         7
47.440        13
47.450        33
47.460        40
47.470        20
47.480        40
47.490        13
47.500        40
47.510        40
47.520        33
47.530        20
47.540        13
47.550        13
47.560        20
47.570        20
47.580        13
47.590        20
47.600         7
47.610        13
47.620        13
47.630        20
47.640         0
47.650        27
47.660        13
47.670         7
47.680        27
47.690         7
47.700         7
47.710        13
47.720        27
47.730        20
47.740        13
47.750         0
47.760        13
47.770         7
47.780        13
47.790        13
47.800         7
47.810        20
47.820        40
47.830        27
47.840        13
47.850        20
47.860         0
47.870         7
47.880        13
47.890         7
47.900        27
47.910        27
47.920        27
47.930        20
47.940        20
47.950        20
47.960        33
47.970        33
47.980        33
47.990        27
48.000        33
48.010        13
48.020         7
48.030        20
48.040        20
48.050        13
48.060        33
48.070        27
48.080         7
48.090        20
48.100        20
48.110        40
48.120         0
48.130        20
48.140         7
48.150         7
48.160        13
48.170         7
48.180        13
48.190        27
48.200        13
48.210        33
48.220        13
48.230        33
48.240        27
48.250        40
48.260         7
48.270        20
48.280         7
48.290         0
48.300        40
48.310        27
48.320        27
48.330         7
48.340         0
48.350        20
48.360        20
48.370         7
48.380        13
48.390         7
48.400        20
48.410        27
48.420        20
48.430        27
48.440        13
48.450         0
48.460         7
48.470        47
48.480        13
48.490        20
48.500         7
48.510        13
48.520        40
48.530         7
48.540        40
48.550         0
48.560        13
48.570        27
48.580        27
48.590        20
48.600        20
48.610        20
48.620        20
48.630        27
48.640         7
48.650        27
48.660        13
48.670        27
48.680        33
48.690        13
48.700         7
48.710        33
48.720        13
48.730         7
48.740        13
48.750         7
48.760        13
48.770        13
48.780        13
48.790         0
48.800        27
48.810         7
48.820        13
48.830         0
48.840         0
48.850        20
48.860        13
48.870         0
48.880        13
48.890         7
48.900        20
48.910        13
48.920        13
48.930        20
48.940         7
48.950        13
48.960        13
48.970        53
48.980        33
48.990        27
49.000        13
49.010        13
49.020        20
49.030        47
49.040        13
49.050        13
49.060        20
49.070        20
49.080         7
49.090        13
49.100         0
49.110        20
49.120        13
49.130        20
49.140         7
49.150        27
49.160        20
49.170        20
49.180        27
49.190        27
49.200        27
49.210        13
49.220         7
49.230         7
49.240        27
49.250         7
49.260        20
49.270        13
49.280        13
49.290         0
49.300        13
49.310        27
49.320         7
49.330        13
49.340         0
49.350         7
49.360         0
49.370        27
49.380         7
49.390        20
49.400         0
49.410        20
49.420         7
49.430        13
49.440         0
49.450        13
49.460        27
49.470        20
49.480         7
49.490        13
49.500         7
49.510        27
49.520        47
49.530        20
49.540        13
49.550         7
49.560        13
49.570         7
49.580        13
49.590        20
49.600        20
49.610        20
49.620         0
49.630        40
49.640        13
49.650        27
49.660         7
49.670        20
49.680         7
49.690        13
49.700         7
49.710        20
49.720        20
49.730        20
49.740         0
49.750        33
49.760        13
49.770        20
49.780        20
49.790        20
49.800        20
49.810        27
49.820        13
49.830        20
49.840        27
49.850        20
49.860        20
49.870         0
49.880        13
49.890        13
49.900        33
49.910         0
49.920         7
49.930        20
49.940        47
49.950        20
49.960        13
49.970        27
49.980        13
49.990        40
50.000         7
50.010         0
50.020        13
50.030         0
50.040        13
50.050         7
50.060         7
50.070         7
50.080        27
50.090         7
50.100         0
50.110         7
50.120        27
50.130        20
50.140         0
50.150        33
50.160         7
50.170        13
50.180         7
50.190        20
50.200        20
50.210        33
50.220        20
50.230         0
50.240        13
50.250        13
50.260         7
50.270        13
50.280        13
50.290         7
50.300        20
50.310        13
50.320         7
50.330         0
50.340        27
50.350        33
50.360         7
50.370        20
50.380        20
50.390        20
50.400        33
50.410         7
50.420        13
50.430         7
50.440        20
50.450        27
50.460        20
50.470        13
50.480        27
50.490        20
50.500        13
50.510        20
50.520        27
50.530        27
50.540        27
50.550        27
50.560        20
50.570        33
50.580         0
50.590        20
50.600        20
50.610         7
50.620        27
50.630         7
50.640        13
50.650        53
50.660        33
50.670         7
50.680        20
50.690        13
50.700        13
50.710        13
50.720        20
50.730         7
50.740        13
50.750        20
50.760        13
50.770        20
50.780        27
50.790         7
50.800         7
50.810         7
50.820        27
50.830        33
50.840         7
50.850         7
50.860        20
50.870        40
50.880        20
50.890         7
50.900        27
50.910        13
50.920        13
50.930        27
50.940        33
50.950        47
50.960         7
50.970         7
50.980        13
50.990        13
51.000        33
51.010        13
51.020        33
51.030        13
51.040        27
51.050         7
51.060        13
51.070        20
51.080         7
51.090         7
51.100        13
51.110        20
51.120         0
51.130        13
51.140        13
51.150        27
51.160        13
51.170        20
51.180        20
51.190        40
51.200        13
51.210        20
51.220        27
51.230        27
51.240         0
51.250        27
51.260        13
51.270         0
51.280        20
51.290        20
51.300        33
51.310        13
51.320        13
51.330         0
51.340         7
51.350         7
51.360        13
51.370        27
51.380         0
51.390        13
51.400        33
51.410        13
51.420        53
51.430        80
51.440        20
51.450         7
51.460        20
51.470        33
51.480        13
51.490         7
51.500        33
51.510        33
51.520        20
51.530         7
51.540         7
51.550        20
51.560        13
51.570         7
51.580        13
51.590         0
51.600        13
51.610        33
51.620        40
51.630        27
51.640        20
51.650        20
51.660        33
51.670        27
51.680         7
51.690         7
51.700        13
51.710        20
51.720         7
51.730         0
51.740        20
51.750        13
51.760        13
51.770        13
51.780        20
51.790         7
51.800         0
51.810        20
51.820        20
51.830         7
51.840         7
51.850        13
51.860         0
51.870        13
51.880        13
51.890        33
51.900        20
51.910         7
51.920         7
51.930         7
51.940         0
51.950        27
51.960        27
51.970        27
51.980        20
51.990        40
52.000        27
52.010         7
52.020        27
52.030        13
52.040         7
52.050        27
52.060         0
52.070         7
52.080        20
52.090        13
52.100        20
52.110        27
52.120        20
52.130        13
52.140        27
52.150        13
52.160        20
52.170        20
52.180        13
52.190        27
52.200        27
52.210         7
52.220         7
52.230        13
52.240        33
52.250         7
52.260         7
52.270         0
52.280        13
52.290         0
52.300        27
52.310        13
52.320         7
52.330        13
52.340        20
52.350         0
52.360         7
52.370        40
52.380        20
52.390         7
52.400         7
52.410         7
52.420        33
52.430         7
52.440        33
52.450        27
52.460        20
52.470        27
52.480         7
52.490        27
52.500        13
52.510        27
52.520        60
52.530        47
52.540        20
52.550        27
52.560        40
52.570        40
52.580        33
52.590        27
52.600        33
52.610        67
52.620        40
52.630        20
52.640         7
52.650        27
52.660         0
52.670         7
52.680        33
52.690        53
52.700        27
52.710        20
52.720        40
52.730        20
52.740        13
52.750        40
52.760        33
52.770        33
52.780         7
52.790        20
52.800        20
52.810        20
52.820         7
52.830        27
52.840        27
52.850        27
52.860         0
52.870        13
52.880        20
52.890         0
52.900        20
52.910         7
52.920         0
52.930        33
52.940        13
52.950         7
52.960        20
52.970        13
52.980        13
52.990        13
53.000         0
53.010        27
53.020        20
53.030        13
53.040        20
53.050         7
53.060         7
53.070         7
53.080        20
53.090        13
53.100         7
53.110        47
53.120         0
53.130         7
53.140         0
53.150         7
53.160         0
53.170        13
53.180        27
53.190         7
53.200        27
53.210        33
53.220        13
53.230         7
53.240         0
53.250        13
53.260        27
53.270         0
53.280        13
53.290        20
53.300        20
53.310        13
53.320         7
53.330         0
53.340        20
53.350        27
53.360         7
53.370         7
53.380        20
53.390        27
53.400        27
53.410        33
53.420         7
53.430         7
53.440        27
53.450        33
53.460        20
53.470        13
53.480         7
53.490        13
53.500        20
53.510        13
53.520         7
53.530        20
53.540         7
53.550        13
53.560        13
53.570        27
53.580         7
53.590        13
53.600        13
53.610         0
53.620        13
53.630        20
53.640         0
53.650        13
53.660        13
53.670        13
53.680        33
53.690        27
53.700         7
53.710        13
53.720        20
53.730        20
53.740         7
53.750        20
53.760         7
53.770        20
53.780         7
53.790        20
53.800        27
53.810         0
53.820        20
53.830        13
53.840        13
53.850        33
53.860        27
53.870        13
53.880        13
53.890        13
53.900        13
53.910         7
53.920        13
53.930        20
53.940        20
53.950         7
53.960         7
53.970        13
53.980         0
53.990         7
54.000        20
54.010        27
54.020        20
54.030        20
54.040        33
54.050         7
54.060         0
54.070        20
54.080        13
54.090         7
54.100        13
54.110        13
54.120         0
54.130        20
54.140        13
54.150        20
54.160         0
54.170        13
54.180         0
54.190         0
54.200        20
54.210         0
54.220        20
54.230        33
54.240        13
54.250        27
54.260        33
54.270        27
54.280        13
54.290        27
54.300         7
54.310         7
54.320        33
54.330         0
54.340        40
54.350        13
54.360        13
54.370         7
54.380        13
54.390         7
54.400        13
54.410        53
54.420         0
54.430        20
54.440        13
54.450        27
54.460        20
54.470         7
54.480         7
54.490         7
54.500        33
54.510        13
54.520        13
54.530         0
54.540        20
54.550        20
54.560        13
54.570        20
54.580         0
54.590        13
54.600         7
54.610        13
54.620        33
54.630        20
54.640         7
54.650         7
54.660        20
54.670        27
54.680         7
54.690        20
54.700        20
54.710        13
54.720        40
54.730        20
54.740        20
54.750         0
54.760         7
54.770        20
54.780         7
54.790        20
54.800         7
54.810        13
54.820        20
54.830         0
54.840        27
54.850         7
54.860         7
54.870        13
54.880        13
54.890        20
54.900        13
54.910        27
54.920        13
54.930         0
54.940        13
54.950        13
54.960        20
54.970        33
54.980        13
54.990        33
55.000        13
55.010        13
55.020        13
55.030        40
55.040        13
55.050        27
55.060        20
55.070         0
55.080         7
55.090        27
55.100        40
55.110        13
55.120        20
55.130        27
55.140        47
55.150         7
55.160        20
55.170        20
55.180         7
55.190         7
55.200        13
55.210         0
55.220        13
55.230        13
55.240        27
55.250        27
55.260        47
55.270         0
55.280        27
55.290        13
55.300        33
55.310        13
55.320        33
55.330        20
55.340         7
55.350         7
55.360        13
55.370         7
55.380        27
55.390        27
55.400         0
55.410        13
55.420        20
55.430         7
55.440        20
55.450        13
55.460        27
55.470        13
55.480         7
55.490        20
55.500        20
55.510        20
55.520        27
55.530        20
55.540         7
55.550        20
55.560        13
55.570        47
55.580        13
55.590        13
55.600        20
55.610        20
55.620         7
55.630        20
55.640        40
55.650         7
55.660        20
55.670         7
55.680         7
55.690        33
55.700         7
55.710         7
55.720         7
55.730        13
55.740        27
55.750        13
55.760         7
55.770        13
55.780         7
55.790         7
55.800        20
55.810        20
55.820         0
55.830         0
55.840         7
55.850        20
55.860        27
55.870        27
55.880        20
55.890        13
55.900        40
55.910        33
55.920         7
55.930         7
55.940        13
55.950        13
55.960        13
55.970        47
55.980        20
55.990        13
56.000        13
56.010        20
56.020        27
56.030         0
56.040        20
56.050        20
56.060        20
56.070        20
56.080        20
56.090        13
56.100         7
56.110        40
56.120        33
56.130        13
56.140         7
56.150         0
56.160         7
56.170        20
56.180        33
56.190         0
56.200        27
56.210        13
56.220        33
56.230        47
56.240        20
56.250        13
56.260        33
56.270        53
56.280        13
56.290        13
56.300        20
56.310        13
56.320        40
56.330        33
56.340        20
56.350        40
56.360        27
56.370        13
56.380        13
56.390        33
56.400        53
56.410        33
56.420        33
56.430        33
56.440        60
56.450        27
56.460        53
56.470        20
56.480        47
56.490        40
56.500        53
56.510        80
56.520        73
56.530        80
56.540        73
56.550       113
56.560       127
56.570       227
56.580       140
56.590       160
56.600       173
56.610       227
56.620       220
56.630       360
56.640       393
56.650       360
56.660       393
56.670       327
56.680       287
56.690       387
56.700       340
56.710       347
56.720       333
56.730       353
56.740       320
56.750       347
56.760       327
56.770       333
56.780       260
56.790       373
56.800       287
56.810       287
56.820       240
56.830       213
56.840       327
56.850       200
56.860       260
56.870       253
56.880       233
56.890       220
56.900       187
56.910       213
56.920       173
56.930       107
56.940       147
56.950        60
56.960       120
56.970       133
56.980       100
56.990        93
57.000        87
57.010        60
57.020        33
57.030        47
57.040        47
57.050        40
57.060        27
57.070        33
57.080        47
57.090        47
57.100        33
57.110        73
57.120        67
57.130        47
57.140        40
57.150         7
57.160        33
57.170        27
57.180        40
57.190        20
57.200        33
57.210         7
57.220         7
57.230        27
57.240        13
57.250        40
57.260        27
57.270        33
57.280        47
57.290        20
57.300        27
57.310        40
57.320        33
57.330        27
57.340        47
57.350        53
57.360        27
57.370        53
57.380        47
57.390        33
57.400        27
57.410        53
57.420        33
57.430        80
57.440        53
57.450        53
57.460        60
57.470       227
57.480       193
57.490       253
57.500       340
57.510       260
57.520       347
57.530       333
57.540       333
57.550       387
57.560       280
57.570       180
57.580       167
57.590       100
57.600        80
57.610       107
57.620        87
57.630        93
57.640       120
57.650       153
57.660       193
57.670       180
57.680       187
57.690       173
57.700       153
57.710       153
57.720       113
57.730       107
57.740       100
57.750        53
57.760        73
57.770        53
57.780        80
57.790        13
57.800        40
57.810        33
57.820        47
57.830        33
57.840        27
57.850        13
57.860         7
57.870        20
57.880        27
57.890        27
57.900        13
57.910        27
57.920        27
57.930        20
57.940        33
57.950         7
57.960        27
57.970        20
57.980        27
57.990         0
58.000         7
58.010        27
58.020        47
58.030        13
58.040        27
58.050        47
58.060        13
58.070        13
58.080        20
58.090         0
58.100        20
58.110        27
58.120        33
58.130         7
58.140        13
58.150        13
58.160        13
58.170         7
58.180        20
58.190        13
58.200        20
58.210         7
58.220        33
58.230        27
58.240         7
58.250        13
58.260         7
58.270         7
58.280        33
58.290         0
58.300         7
58.310         7
58.320        27
58.330        13
58.340         0
58.350        20
58.360        20
58.370         7
58.380        20
58.390        33
58.400         7
58.410        20
58.420        27
58.430         7
58.440         7
58.450        27
58.460        20
58.470         7
58.480        20
58.490         7
58.500         0
58.510         7
58.520         7
58.530         7
58.540         7
58.550        13
58.560        20
58.570         0
58.580        20
58.590         7
58.600        27
58.610        13
58.620        33
58.630        13
58.640        13
58.650        13
58.660        20
58.670         7
58.680        20
58.690        27
58.700        27
58.710        13
58.720         7
58.730        13
58.740        27
58.750        20
58.760        13
58.770        20
58.780        60
58.790        13
58.800        20
58.810        27
58.820         7
58.830        13
58.840        20
58.850        40
58.860         7
58.870        20
58.880         7
58.890         7
58.900        27
58.910        27
58.920        27
58.930        20
58.940        13
58.950         7
58.960         0
58.970         0
58.980        27
58.990         0
59.000        20
59.010        13
59.020         7
59.030         7
59.040        33
59.050         7
59.060         0
59.070        13
59.080        13
59.090        13
59.100        53
59.110        27
59.120         7
59.130        27
59.140        20
59.150        20
59.160        27
59.170         0
59.180        13
59.190        13
59.200         7
59.210         0
59.220        13
59.230        27
59.240        40
59.250         7
59.260        13
59.270        20
59.280        27
59.290         0
59.300        13
59.310         0
59.320        27
59.330         7
59.340        20
59.350         7
59.360        13
59.370        13
59.380        20
59.390        13
59.400         7
59.410        20
59.420         7
59.430        20
59.440        13
59.450        40
59.460        13
59.470         7
59.480        33
59.490        20
59.500        20
59.510         7
59.520        27
59.530        47
59.540        53
59.550        20
59.560        20
59.570        33
59.580        33
59.590         7
59.600        20
59.610        40
59.620         7
59.630        27
59.640        47
59.650        20
59.660        20
59.670        20
59.680        13
59.690        27
59.700        20
59.710         7
59.720         7
59.730        27
59.740         0
59.750        13
59.760        33
59.770        20
59.780        20
59.790        13
59.800        27
59.810         7
59.820         0
59.830         7
59.840        13
59.850        13
59.860        20
59.870        13
59.880         7
59.890        13
59.900         7
59.910        20
59.920        53
59.930         7
59.940        27
59.950        13
59.960        27
59.970        20
59.980         7
59.990         0
60.000         0
