20.000        60
20.010        60
20.020        80
20.030        87
20.040        73
20.050        67
20.060       107
20.070        93
20.080        73
20.090       100
20.100        93
20.110       100
20.120        73
20.130       120
20.140        87
20.150       107
20.160       107
20.170       100
20.180        87
20.190        53
20.200       127
20.210        53
20.220        33
20.230        67
20.240        40
20.250        73
20.260       107
20.270        80
20.280        80
20.290       133
20.300       140
20.310       100
20.320        60
20.330        53
20.340        73
20.350        87
20.360        80
20.370        80
20.380       100
20.390       140
20.400        80
20.410       113
20.420        53
20.430       107
20.440       113
20.450       120
20.460       133
20.470        87
20.480       120
20.490       100
20.500       113
20.510       113
20.520        73
20.530        93
20.540       127
20.550       147
20.560       100
20.570       127
20.580       113
20.590       153
20.600       107
20.610        40
20.620       127
20.630       100
20.640       100
20.650       133
20.660        80
20.670        93
20.680       127
20.690       140
20.700       133
20.710        60
20.720       140
20.730       100
20.740        87
20.750       193
20.760       107
20.770        87
20.780        73
20.790       127
20.800       147
20.810       100
20.820       107
20.830        80
20.840        47
20.850        80
20.860        73
20.870        80
20.880       120
20.890        67
20.900        73
20.910       107
20.920        87
20.930       133
20.940       113
20.950       100
20.960        80
20.970       100
20.980       120
20.990       120
21.000        80
21.010        73
21.020        80
21.030       113
21.040       140
21.050       100
21.060       107
21.070       107
21.080        73
21.090       120
21.100       127
21.110        87
21.120       127
21.130        87
21.140        87
21.150       113
21.160        53
21.170       140
21.180        67
21.190        80
21.200        87
21.210       140
21.220        87
21.230        53
21.240       100
21.250        80
21.260       107
21.270        93
21.280       133
21.290        87
21.300        93
21.310        73
21.320       140
21.330       113
21.340        93
21.350       113
21.360        80
21.370       173
21.380       100
21.390       113
21.400       153
21.410       133
21.420       100
21.430        73
21.440       100
21.450        87
21.460       100
21.470       107
21.480        93
21.490       153
21.500       133
21.510       133
21.520       127
21.530       100
21.540        93
21.550       127
21.560        87
21.570       127
21.580        93
21.590       107
21.600        93
21.610       127
21.620       113
21.630        80
21.640       120
21.650       120
21.660       113
21.670       140
21.680       153
21.690       127
21.700        80
21.710       127
21.720       113
21.730       193
21.740       127
21.750       140
21.760       100
21.770       127
21.780        73
21.790       100
21.800       113
21.810        93
21.820        53
21.830       133
21.840        80
21.850       120
21.860       140
21.870        93
21.880        93
21.890        87
21.900       120
21.910       153
21.920       133
21.930       120
21.940       100
21.950        87
21.960       140
21.970       120
21.980        93
21.990       113
22.000       147
22.010        93
22.020       100
22.030       120
22.040       113
22.050       100
22.060        93
22.070       100
22.080       113
22.090       160
22.100       107
22.110       100
22.120        87
22.130       120
22.140       133
22.150       173
22.160       107
22.170        93
22.180       127
22.190       113
22.200       107
22.210       120
22.220        53
22.230       153
22.240        80
22.250       107
22.260       127
22.270       140
22.280       147
22.290       153
22.300       127
22.310       167
22.320        87
22.330       133
22.340       167
22.350       147
22.360       153
22.370       160
22.380       133
22.390       147
22.400       187
22.410       147
22.420       140
22.430       140
22.440       153
22.450       140
22.460       153
22.470       133
22.480       167
22.490       107
22.500       113
22.510       133
22.520       120
22.530       127
22.540       147
22.550       127
22.560       147
22.570       147
22.580       180
22.590       140
22.600       100
22.610       140
22.620       187
22.630        93
22.640       127
22.650       140
22.660        60
22.670       153
22.680       147
22.690       107
22.700       120
22.710       133
22.720       173
22.730       133
22.740       193
22.750       140
22.760       187
22.770       107
22.780       173
22.790       167
22.800       120
22.810       173
22.820       113
22.830       113
22.840       133
22.850       113
22.860       140
22.870       120
22.880       140
22.890       133
22.900       133
22.910       147
22.920       113
22.930        80
22.940       160
22.950       167
22.960       133
22.970       120
22.980       153
22.990       187
23.000       173
23.010       187
23.020       207
23.030       127
23.040       100
23.050       160
23.060       127
23.070       153
23.080       193
23.090       160
23.100       107
23.110       120
23.120       140
23.130       173
23.140       127
23.150       140
23.160       180
23.170       153
23.180       147
23.190       133
23.200       167
23.210       187
23.220       147
23.230       167
23.240       153
23.250       133
23.260       160
23.270       153
23.280       187
23.290       207
23.300       173
23.310       187
23.320       113
23.330       173
23.340       140
23.350       140
23.360       160
23.370       200
23.380       153
23.390       147
23.400       120
23.410       153
23.420       180
23.430       167
23.440       140
23.450       200
23.460       153
23.470       140
23.480       133
23.490       140
23.500       107
23.510       127
23.520       147
23.530       127
23.540       180
23.550       160
23.560       140
23.570       247
23.580       167
23.590       160
23.600       167
23.610       153
23.620       180
23.630       160
23.640       153
23.650       147
23.660       247
23.670       193
23.680       167
23.690       187
23.700       173
23.710       207
23.720       187
23.730       160
23.740       207
23.750       147
23.760       107
23.770       200
23.780       167
23.790       187
23.800       127
23.810       173
23.820       173
23.830       153
23.840       140
23.850       193
23.860       213
23.870       173
23.880       220
23.890       227
23.900       227
23.910       173
23.920       173
23.930       233
23.940       120
23.950       200
23.960       193
23.970       227
23.980       173
23.990       173
24.000       167
24.010       133
24.020       173
24.030       173
24.040       213
24.050       167
24.060       253
24.070       193
24.080       167
24.090       173
24.100       167
24.110       160
24.120       180
24.130       173
24.140       187
24.150       233
24.160       180
24.170       120
24.180       187
24.190       173
24.200       180
24.210       133
24.220       280
24.230       167
24.240       233
24.250       207
24.260       207
24.270       133
24.280       220
24.290       173
24.300       140
24.310       187
24.320       207
24.330       260
24.340       180
24.350       167
24.360       213
24.370       247
24.380       153
24.390       187
24.400       167
24.410       220
24.420       200
24.430       200
24.440       247
24.450       200
24.460       220
24.470       187
24.480       307
24.490       107
24.500       220
24.510       220
24.520       220
24.530       160
24.540       173
24.550       140
24.560       233
24.570       180
24.580       160
24.590       173
24.600       140
24.610       220
24.620       247
24.630       227
24.640       187
24.650       187
24.660       140
24.670       187
24.680       147
24.690       227
24.700       200
24.710       227
24.720       167
24.730       173
24.740       193
24.750       213
24.760       140
24.770       207
24.780       180
24.790       247
24.800       200
24.810       173
24.820       193
24.830       180
24.840       213
24.850       180
24.860       173
24.870       167
24.880       160
24.890       160
24.900       160
24.910       187
24.920       193
24.930       227
24.940       187
24.950       100
24.960       207
24.970       187
24.980       153
24.990       193
25.000       207
25.010       187
25.020       180
25.030       187
25.040       187
25.050       153
25.060       127
25.070       207
25.080       160
25.090       173
25.100       207
25.110       153
25.120       207
25.130       147
25.140       193
25.150       227
25.160       193
25.170       200
25.180       227
25.190       133
25.200       180
25.210       233
25.220       127
25.230       180
25.240       187
25.250       140
25.260       160
25.270       180
25.280       100
25.290       173
25.300       160
25.310       213
25.320       227
25.330       233
25.340       193
25.350       200
25.360       127
25.370       173
25.380       227
25.390       140
25.400       120
25.410       167
25.420       133
25.430       167
25.440       213
25.450       200
25.460       173
25.470       193
25.480       213
25.490       200
25.500       127
25.510       180
25.520       153
25.530       107
25.540       127
25.550       140
25.560       187
25.570       147
25.580       147
25.590       173
25.600       153
25.610       173
25.620       180
25.630       187
25.640       113
25.650       140
25.660       153
25.670       113
25.680        60
25.690       133
25.700       153
25.710       160
25.720       207
25.730       133
25.740        67
25.750       107
25.760       187
25.770        80
25.780        87
25.790        93
25.800        87
25.810       133
25.820        93
25.830        73
25.840       100
25.850       153
25.860        67
25.870       120
25.880       113
25.890       160
25.900       160
25.910       133
25.920       113
25.930       147
25.940       107
25.950       100
25.960        87
25.970       107
25.980       160
25.990       153
26.000       113
26.010        87
26.020       113
26.030       113
26.040        87
26.050       113
26.060        73
26.070       113
26.080       107
26.090        80
26.100       140
26.110       153
26.120        87
26.130       113
26.140       100
26.150        27
26.160       153
26.170       100
26.180       167
26.190        80
26.200       133
26.210        67
26.220       133
26.230        93
26.240       100
26.250       140
26.260       100
26.270       100
26.280       100
26.290       127
26.300       127
26.310        80
26.320       167
26.330       173
26.340       167
26.350        73
26.360       147
26.370        93
26.380        73
26.390       120
26.400        73
26.410       100
26.420        93
26.430       113
26.440       120
26.450       127
26.460        47
26.470       120
26.480       133
26.490       160
26.500        60
26.510       113
26.520        87
26.530       107
26.540       127
26.550       113
26.560       113
26.570       133
26.580       113
26.590       100
26.600        87
26.610       127
26.620        93
26.630       153
26.640        93
26.650        93
26.660       153
26.670       113
26.680        93
26.690        93
26.700       153
26.710        53
26.720       113
26.730        87
26.740       140
26.750       127
26.760       120
26.770        93
26.780       133
26.790       147
26.800        93
26.810       133
26.820       127
26.830       107
26.840        87
26.850       107
26.860        93
26.870        93
26.880       133
26.890        87
26.900        93
26.910       107
26.920       147
26.930       147
26.940        87
26.950       107
26.960        73
26.970        87
26.980        73
26.990       100
27.000       120
27.010       107
27.020       140
27.030       107
27.040       113
27.050        73
27.060        87
27.070       127
27.080        80
27.090        80
27.100        73
27.110       100
27.120        67
27.130       160
27.140       140
27.150       107
27.160        80
27.170       113
27.180        60
27.190       153
27.200        53
27.210       133
27.220       107
27.230       160
27.240       107
27.250       120
27.260       100
27.270       107
27.280       147
27.290       133
27.300       180
27.310        67
27.320       100
27.330       180
27.340       180
27.350       107
27.360        60
27.370       113
27.380       140
27.390       140
27.400        73
27.410       133
27.420        53
27.430       107
27.440       120
27.450       120
27.460       100
27.470        87
27.480       167
27.490       140
27.500       133
27.510       113
27.520       160
27.530       107
27.540        53
27.550        67
27.560        87
27.570       107
27.580       120
27.590        87
27.600       113
27.610        60
27.620       120
27.630        93
27.640       133
27.650       127
27.660       100
27.670       107
27.680       127
27.690        67
27.700        87
27.710       127
27.720        80
27.730        93
27.740       100
27.750       127
27.760        87
27.770       107
27.780       120
27.790        93
27.800        67
27.810       100
27.820        87
27.830       113
27.840        47
27.850        80
27.860       127
27.870        80
27.880       100
27.890       100
27.900        87
27.910       107
27.920       107
27.930       140
27.940       173
27.950       120
27.960       153
27.970        73
27.980        87
27.990        93
28.000        87
28.010        67
28.020       107
28.030       120
28.040       147
28.050       140
28.060       120
28.070       133
28.080       120
28.090        87
28.100        73
28.110        87
28.120       100
28.130       100
28.140        87
28.150       167
28.160        87
28.170       107
28.180        87
28.190        80
28.200        67
28.210       127
28.220       127
28.230       100
28.240       113
28.250        93
28.260        93
28.270        93
28.280       120
28.290        67
28.300        67
28.310       120
28.320        93
28.330        87
28.340        73
28.350       100
28.360       120
28.370        67
28.380        87
28.390       113
28.400       100
28.410       147
28.420       120
28.430       113
28.440       120
28.450       107
28.460       113
28.470       113
28.480        73
28.490       133
28.500       147
28.510       107
28.520        73
28.530        80
28.540       100
28.550       113
28.560        93
28.570        87
28.580        87
28.590        87
28.600       127
28.610        93
28.620       107
28.630        60
28.640        93
28.650        73
28.660        67
28.670       100
28.680       127
28.690       113
28.700       107
28.710       127
28.720        80
28.730        40
28.740       113
28.750        73
28.760        60
28.770       107
28.780        80
28.790        60
28.800       113
28.810        93
28.820       127
28.830        87
28.840        80
28.850       107
28.860       107
28.870       153
28.880        60
28.890        67
28.900       107
28.910        33
28.920       107
28.930        53
28.940       113
28.950       127
28.960       113
28.970        40
28.980        60
28.990        93
29.000       100
29.010        67
29.020        87
29.030       100
29.040        87
29.050       120
29.060       127
29.070       120
29.080       153
29.090       107
29.100        93
29.110        87
29.120       100
29.130       113
29.140       120
29.150       107
29.160        60
29.170       107
29.180       107
29.190        53
29.200       120
29.210        67
29.220        60
29.230        87
29.240        40
29.250        87
29.260       107
29.270       100
29.280       160
29.290        73
29.300        67
29.310        67
29.320        73
29.330       113
29.340        93
29.350        80
29.360       127
29.370       147
29.380        80
29.390       113
29.400        93
29.410       120
29.420       100
29.430        60
29.440       100
29.450       127
29.460        67
29.470        60
29.480        67
29.490       100
29.500        93
29.510        93
29.520        87
29.530        47
29.540        80
29.550        73
29.560        87
29.570       120
29.580        87
29.590        93
29.600        93
29.610        93
29.620       120
29.630        87
29.640        53
29.650       127
29.660        87
29.670       113
29.680        93
29.690        67
29.700        80
29.710       100
29.720        87
29.730        73
29.740        80
29.750        60
29.760        87
29.770        73
29.780        80
29.790       120
29.800       113
29.810       120
29.820       107
29.830       120
29.840       107
29.850       100
29.860       133
29.870        80
29.880       113
29.890       133
29.900       113
29.910       107
29.920       147
29.930        87
29.940       113
29.950        87
29.960       127
29.970       107
29.980       127
29.990       107
30.000        67
30.010        87
30.020        67
30.030       100
30.040       120
30.050       127
30.060        80
30.070       140
30.080       107
30.090        80
30.100        80
30.110       167
30.120       120
30.130       120
30.140        93
30.150        87
30.160        53
30.170        73
30.180       127
30.190       107
30.200       127
30.210        93
30.220       100
30.230        67
30.240       107
30.250        93
30.260       100
30.270        93
30.280       100
30.290        93
30.300       120
30.310       133
30.320       107
30.330        80
30.340        53
30.350       100
30.360        87
30.370        93
30.380       100
30.390       133
30.400       140
30.410       133
30.420       127
30.430        93
30.440       107
30.450        67
30.460       100
30.470        73
30.480       113
30.490        40
30.500       133
30.510        87
30.520       120
30.530       107
30.540       120
30.550        93
30.560        73
30.570        87
30.580        93
30.590        93
30.600       120
30.610       120
30.620        87
30.630       133
30.640       127
30.650        87
30.660       120
30.670        93
30.680       173
30.690       140
30.700       160
30.710        80
30.720       107
30.730       120
30.740        73
30.750        73
30.760        87
30.770       120
30.780       140
30.790       140
30.800       147
30.810       120
30.820       133
30.830       160
30.840        87
30.850        80
30.860        93
30.870       140
30.880       120
30.890       120
30.900        93
30.910       107
30.920       100
30.930        93
30.940       113
30.950        73
30.960       113
30.970        93
30.980       100
30.990       133
31.000       200
31.010       113
31.020       127
31.030       173
31.040       113
31.050        87
31.060       153
31.070       107
31.080        93
31.090       140
31.100       147
31.110       107
31.120       153
31.130       140
31.140        87
31.150       147
31.160       100
31.170        73
31.180       113
31.190       107
31.200       107
31.210       147
31.220       140
31.230       113
31.240       133
31.250       113
31.260       160
31.270        67
31.280       147
31.290       127
31.300       127
31.310       120
31.320       147
31.330        93
31.340       100
31.350       133
31.360       100
31.370       120
31.380       133
31.390       147
31.400        87
31.410       100
31.420       107
31.430       113
31.440       113
31.450       140
31.460       133
31.470       100
31.480       107
31.490       100
31.500        80
31.510       107
31.520       120
31.530       127
31.540        87
31.550       113
31.560       113
31.570       180
31.580       133
31.590       160
31.600       167
31.610       187
31.620       113
31.630       120
31.640       133
31.650        93
31.660       160
31.670       173
31.680       140
31.690       187
31.700       107
31.710       147
31.720       140
31.730       160
31.740       180
31.750       180
31.760       187
31.770       227
31.780       193
31.790       160
31.800       233
31.810       127
31.820       247
31.830       213
31.840       280
31.850       267
31.860       360
31.870       380
31.880       380
31.890       353
31.900       413
31.910       273
31.920       466
31.930       340
31.940       353
31.950       433
31.960       327
31.970       347
31.980       413
31.990       473
32.000       353
32.010       320
32.020       426
32.030       480
32.040       367
32.050       420
32.060       640
32.070       786
32.080      1160
32.090      2033
32.100      2419
32.110      3172
32.120      3739
32.130      3972
32.140      4098
32.150      3679
32.160      3432
32.170      2506
32.180      1806
32.190      1193
32.200       813
32.210       613
32.220       453
32.230       420
32.240       380
32.250       347
32.260       247
32.270       313
32.280       193
32.290       280
32.300       320
32.310       287
32.320       253
32.330       227
32.340       193
32.350       200
32.360       240
32.370       220
32.380       260
32.390       227
32.400       207
32.410       180
32.420       160
32.430       200
32.440       193
32.450       147
32.460       233
32.470       180
32.480       233
32.490       253
32.500       187
32.510       153
32.520       180
32.530       180
32.540       227
32.550       107
32.560       167
32.570       153
32.580       120
32.590       220
32.600       180
32.610       207
32.620       247
32.630       167
32.640       193
32.650       193
32.660       187
32.670       200
32.680       127
32.690       207
32.700       233
32.710       180
32.720       173
32.730       200
32.740       140
32.750       153
32.760       173
32.770       173
32.780       173
32.790        93
32.800       180
32.810       227
32.820       213
32.830       193
32.840       133
32.850       147
32.860       120
32.870       153
32.880       133
32.890       167
32.900       140
32.910       133
32.920       140
32.930       207
32.940       153
32.950       227
32.960       140
32.970       127
32.980       140
32.990       113
33.000       160
33.010        87
33.020       147
33.030       127
33.040       200
33.050        87
33.060       140
33.070       147
33.080        73
33.090       200
33.100       167
33.110       173
33.120       200
33.130       127
33.140       180
33.150       173
33.160       213
33.170       100
33.180       187
33.190       207
33.200       140
33.210       147
33.220       213
33.230       140
33.240       207
33.250       160
33.260       140
33.270       173
33.280       207
33.290       120
33.300       153
33.310       153
33.320       193
33.330       153
33.340       160
33.350        73
33.360       147
33.370       153
33.380       200
33.390       160
33.400       147
33.410       127
33.420       140
33.430       120
33.440       100
33.450       167
33.460       127
33.470        87
33.480       140
33.490       113
33.500       140
33.510       173
33.520       147
33.530       220
33.540       153
33.550       187
33.560       160
33.570       127
33.580       147
33.590       147
33.600       127
33.610       133
33.620       220
33.630       127
33.640       180
33.650       107
33.660       160
33.670       153
33.680       127
33.690       167
33.700       193
33.710       107
33.720       140
33.730       153
33.740       220
33.750       127
33.760        80
33.770        93
33.780       120
33.790       227
33.800       160
33.810        93
33.820       140
33.830       167
33.840       153
33.850       127
33.860       167
33.870       120
33.880       127
33.890       167
33.900       233
33.910       173
33.920        87
33.930       173
33.940       113
33.950       160
33.960       140
33.970       120
33.980       167
33.990       193
34.000       167
34.010       160
34.020       140
34.030       147
34.040       127
34.050       127
34.060       127
34.070       113
34.080       167
34.090       140
34.100       173
34.110       127
34.120       173
34.130       160
34.140       160
34.150       160
34.160       140
34.170       147
34.180       120
34.190       153
34.200       147
34.210       167
34.220       107
34.230       187
34.240       160
34.250       207
34.260       227
34.270       147
34.280       180
34.290       167
34.300       147
34.310       207
34.320       200
34.330       293
34.340       247
34.350       267
34.360       273
34.370       253
34.380       400
34.390       653
34.400       533
34.410       846
34.420       893
34.430      1026
34.440      1140
34.450      1100
34.460      1513
34.470      1026
34.480      1153
34.490      1299
34.500      1353
34.510      1426
34.520      1266
34.530      1526
34.540      1253
34.550      1446
34.560      1433
34.570      1279
34.580      1359
34.590      1393
34.600      1273
34.610      1326
34.620      1346
34.630      1379
34.640      1266
34.650      1046
34.660      1413
34.670      1446
34.680      1206
34.690      1319
34.700      1293
34.710      1319
34.720      1333
34.730      1100
34.740      1240
34.750      1453
34.760      1259
34.770      1333
34.780      1333
34.790      1293
34.800      1599
34.810      1206
34.820      1413
34.830      1253
34.840      1433
34.850      1213
34.860      1326
34.870      1313
34.880      1406
34.890      1313
34.900      1446
34.910      1266
34.920      1246
34.930      1333
34.940      1379
34.950      1313
34.960      1539
34.970      1346
34.980      1466
34.990      1339
35.000      1459
35.010      1446
35.020      1439
35.030      1433
35.040      1426
35.050      1446
35.060      1493
35.070      1513
35.080      1633
35.090      1486
35.100      1653
35.110      1286
35.120      1439
35.130      1479
35.140      1466
35.150      1406
35.160      1599
35.170      1686
35.180      1566
35.190      1626
35.200      1986
35.210      1466
35.220      1719
35.230      1933
35.240      1919
35.250      1953
35.260      1919
35.270      1859
35.280      2139
35.290      2132
35.300      2352
35.310      2066
35.320      2526
35.330      2812
35.340      3005
35.350      3432
35.360      4085
35.370      4705
35.380      5051
35.390      6304
35.400      7044
35.410      8890
35.420     10422
35.430     12275
35.440     13621
35.450     16207
35.460     18066
35.470     19306
35.480     21871
35.490     22798
35.500     25103
35.510     25990
35.520     26296
35.530     28375
35.540     28262
35.550     29342
35.560     32993
35.570     36485
35.580     43756
35.590     59256
35.600     93689
35.610    145062
35.620    202426
35.630    242150
35.640    264174
35.650    275143
35.660    278369
35.670    277016
35.680    266760
35.690    244849
35.700    218373
35.710    198747
35.720    189571
35.730    192536
35.740    199987
35.750    200940
35.760    198041
35.770    187878
35.780    161935
35.790    123344
35.800     83427
35.810     51386
35.820     31741
35.830     20712
35.840     15480
35.850     12682
35.860     10376
35.870      8690
35.880      7677
35.890      6504
35.900      5711
35.910      5338
35.920      4358
35.930      4638
35.940      4118
35.950      3732
35.960      3605
35.970      3492
35.980      3125
35.990      3292
36.000      2559
36.010      2906
36.020      2366
36.030      2626
36.040      2466
36.050      2426
36.060      2552
36.070      2532
36.080      2559
36.090      2319
36.100      2252
36.110      2079
36.120      2246
36.130      1886
36.140      2126
36.150      1973
36.160      1899
36.170      1786
36.180      1793
36.190      1753
36.200      1773
36.210      1686
36.220      1866
36.230      1726
36.240      1559
36.250      1513
36.260      1466
36.270      1406
36.280      1453
36.290      1513
36.300      1679
36.310      1659
36.320      1459
36.330      1386
36.340      1180
36.350      1299
36.360      1319
36.370      1346
36.380      1366
36.390      1459
36.400      1266
36.410      1539
36.420      1346
36.430      1379
36.440      1299
36.450      1226
36.460      1240
36.470      1206
36.480      1259
36.490      1279
36.500      1286
36.510      1200
36.520      1253
36.530      1319
36.540      1246
36.550      1020
36.560      1226
36.570      1046
36.580      1166
36.590      1200
36.600      1033
36.610      1133
36.620      1173
36.630      1253
36.640      1166
36.650      1066
36.660      1106
36.670      1020
36.680      1053
36.690      1126
36.700      1153
36.710       986
36.720      1066
36.730      1106
36.740      1120
36.750      1120
36.760      1013
36.770       926
36.780       986
36.790      1206
36.800      1146
36.810       893
36.820       986
36.830      1026
36.840       993
36.850      1080
36.860       993
36.870      1020
36.880       960
36.890       906
36.900       960
36.910      1000
36.920       953
36.930      1026
36.940       926
36.950      1146
36.960      1113
36.970       993
36.980       846
36.990       833
37.000       880
37.010      1026
37.020       900
37.030       880
37.040       833
37.050       993
37.060       973
37.070       693
37.080       780
37.090       926
37.100       966
37.110      1013
37.120       906
37.130       913
37.140       846
37.150       853
37.160       906
37.170       786
37.180       933
37.190       893
37.200       840
37.210       906
37.220       846
37.230       886
37.240       880
37.250       860
37.260       840
37.270       820
37.280       986
37.290       906
37.300       726
37.310       860
37.320       906
37.330       853
37.340       953
37.350       706
37.360       913
37.370       906
37.380       880
37.390       880
37.400       666
37.410       733
37.420       706
37.430       806
37.440       646
37.450       793
37.460       746
37.470       853
37.480       813
37.490       840
37.500       880
37.510       720
37.520       720
37.530       740
37.540       693
37.550       726
37.560       733
37.570       800
37.580       740
37.590       813
37.600       720
37.610       720
37.620       853
37.630       660
37.640       793
37.650       733
37.660       913
37.670       846
37.680       666
37.690       766
37.700       820
37.710       706
37.720       740
37.730       633
37.740       673
37.750       726
37.760       713
37.770       733
37.780       753
37.790       880
37.800       833
37.810       746
37.820       760
37.830       806
37.840       726
37.850       680
37.860       740
37.870       620
37.880       646
37.890       706
37.900       760
37.910       626
37.920       726
37.930       846
37.940       633
37.950       646
37.960       640
37.970       620
37.980       746
37.990       653
38.000       566
38.010       666
38.020       666
38.030       640
38.040       666
38.050       660
38.060       593
38.070       600
38.080       820
38.090       686
38.100       586
38.110       733
38.120       600
38.130       753
38.140       526
38.150       626
38.160       653
38.170       646
38.180       706
38.190       706
38.200       666
38.210       706
38.220       646
38.230       640
38.240       653
38.250       613
38.260       726
38.270       780
38.280       720
38.290       600
38.300       720
38.310       600
38.320       593
38.330       720
38.340       660
38.350       626
38.360       640
38.370       726
38.380       566
38.390       673
38.400       540
38.410       700
38.420       626
38.430       553
38.440       720
38.450       613
38.460       620
38.470       780
38.480       613
38.490       640
38.500       653
38.510       606
38.520       740
38.530       653
38.540       626
38.550       646
38.560       680
38.570       653
38.580       633
38.590       500
38.600       580
38.610       693
38.620       580
38.630       626
38.640       626
38.650       546
38.660       686
38.670       600
38.680       560
38.690       540
38.700       560
38.710       606
38.720       600
38.730       546
38.740       713
38.750       573
38.760       626
38.770       653
38.780       520
38.790       506
38.800       586
38.810       620
38.820       600
38.830       613
38.840       600
38.850       480
38.860       653
38.870       613
38.880       573
38.890       580
38.900       526
38.910       506
38.920       580
38.930       593
38.940       526
38.950       566
38.960       633
38.970       593
38.980       586
38.990       593
39.000       573
39.010       526
39.020       546
39.030       426
39.040       606
39.050       493
39.060       573
39.070       573
39.080       640
39.090       686
39.100       486
39.110       533
39.120       513
39.130       613
39.140       546
39.150       586
39.160       533
39.170       686
39.180       606
39.190       786
39.200       606
39.210       513
39.220       600
39.230       726
39.240       640
39.250       620
39.260       600
39.270       573
39.280       506
39.290       653
39.300       666
39.310       586
39.320       606
39.330       646
39.340       593
39.350       533
39.360       553
39.370       546
39.380       626
39.390       466
39.400       580
39.410       526
39.420       613
39.430       606
39.440       666
39.450       446
39.460       560
39.470       613
39.480       666
39.490       546
39.500       493
39.510       486
39.520       566
39.530       660
39.540       513
39.550       620
39.560       553
39.570       426
39.580       480
39.590       540
39.600       353
39.610       453
39.620       533
39.630       540
39.640       513
39.650       506
39.660       513
39.670       433
39.680       433
39.690       473
39.700       446
39.710       500
39.720       460
39.730       426
39.740       413
39.750       513
39.760       473
39.770       526
39.780       453
39.790       486
39.800       473
39.810       420
39.820       493
39.830       513
39.840       513
39.850       440
39.860       453
39.870       400
39.880       540
39.890       526
39.900       373
39.910       540
39.920       566
39.930       520
39.940       480
39.950       466
39.960       440
39.970       533
39.980       460
39.990       540
40.000       500
40.010       466
40.020       453
40.030       433
40.040       420
40.050       586
40.060       486
40.070       500
40.080       440
40.090       500
40.100       473
40.110       453
40.120       480
40.130       420
40.140       426
40.150       446
40.160       446
40.170       327
40.180       540
40.190       446
40.200       500
40.210       407
40.220       440
40.230       433
40.240       393
40.250       466
40.260       473
40.270       560
40.280       500
40.290       433
40.300       426
40.310       480
40.320       480
40.330       433
40.340       520
40.350       486
40.360       506
40.370       453
40.380       480
40.390       353
40.400       506
40.410       473
40.420       420
40.430       433
40.440       367
40.450       493
40.460       380
40.470       347
40.480       493
40.490       420
40.500       446
40.510       446
40.520       440
40.530       367
40.540       387
40.550       500
40.560       373
40.570       460
40.580       407
40.590       420
40.600       407
40.610       480
40.620       473
40.630       440
40.640       433
40.650       433
40.660       380
40.670       446
40.680       440
40.690       486
40.700       367
40.710       486
40.720       387
40.730       466
40.740       387
40.750       413
40.760       393
40.770       367
40.780       466
40.790       400
40.800       393
40.810       420
40.820       353
40.830       367
40.840       433
40.850       400
40.860       407
40.870       353
40.880       373
40.890       373
40.900       360
40.910       413
40.920       393
40.930       380
40.940       393
40.950       367
40.960       420
40.970       333
40.980       407
40.990       433
41.000       333
41.010       320
41.020       526
41.030       407
41.040       400
41.050       380
41.060       353
41.070       387
41.080       380
41.090       347
41.100       453
41.110       380
41.120       426
41.130       353
41.140       273
41.150       280
41.160       473
41.170       466
41.180       367
41.190       320
41.200       400
41.210       420
41.220       367
41.230       387
41.240       393
41.250       360
41.260       420
41.270       407
41.280       367
41.290       426
41.300       453
41.310       367
41.320       367
41.330       426
41.340       407
41.350       313
41.360       333
41.370       387
41.380       320
41.390       373
41.400       327
41.410       486
41.420       426
41.430       433
41.440       380
41.450       353
41.460       387
41.470       340
41.480       453
41.490       333
41.500       413
41.510       327
41.520       400
41.530       347
41.540       400
41.550       347
41.560       247
41.570       393
41.580       393
41.590       407
41.600       400
41.610       327
41.620       420
41.630       360
41.640       280
41.650       267
41.660       393
41.670       307
41.680       320
41.690       407
41.700       333
41.710       373
41.720       373
41.730       320
41.740       260
41.750       340
41.760       327
41.770       300
41.780       287
41.790       227
41.800       320
41.810       400
41.820       407
41.830       253
41.840       360
41.850       307
41.860       300
41.870       373
41.880       307
41.890       340
41.900       393
41.910       333
41.920       360
41.930       413
41.940       367
41.950       293
41.960       300
41.970       400
41.980       360
41.990       353
42.000       360
42.010       333
42.020       433
42.030       333
42.040       353
42.050       380
42.060       367
42.070       367
42.080       340
42.090       267
42.100       340
42.110       267
42.120       300
42.130       273
42.140       287
42.150       353
42.160       307
42.170       333
42.180       300
42.190       380
42.200       387
42.210       320
42.220       333
42.230       387
42.240       360
42.250       340
42.260       313
42.270       367
42.280       373
42.290       387
42.300       446
42.310       307
42.320       293
42.330       347
42.340       333
42.350       367
42.360       313
42.370       367
42.380       360
42.390       320
42.400       273
42.410       327
42.420       313
42.430       293
42.440       247
42.450       307
42.460       387
42.470       320
42.480       327
42.490       307
42.500       307
42.510       273
42.520       287
42.530       327
42.540       360
42.550       380
42.560       333
42.570       300
42.580       293
42.590       367
42.600       253
42.610       247
42.620       280
42.630       320
42.640       247
42.650       287
42.660       333
42.670       313
42.680       240
42.690       340
42.700       267
42.710       287
42.720       273
42.730       320
42.740       233
42.750       280
42.760       313
42.770       307
42.780       367
42.790       273
42.800       280
42.810       273
42.820       320
42.830       280
42.840       347
42.850       307
42.860       393
42.870       320
42.880       320
42.890       287
42.900       247
42.910       287
42.920       293
42.930       287
42.940       340
42.950       280
42.960       307
42.970       267
42.980       313
42.990       320
43.000       267
43.010       260
43.020       200
43.030       300
43.040       193
43.050       313
43.060       267
43.070       200
43.080       213
43.090       267
43.100       340
43.110       247
43.120       247
43.130       320
43.140       247
43.150       280
43.160       267
43.170       233
43.180       333
43.190       273
43.200       233
43.210       327
43.220       173
43.230       347
43.240       313
43.250       200
43.260       293
43.270       247
43.280       293
43.290       267
43.300       293
43.310       287
43.320       300
43.330       227
43.340       300
43.350       280
43.360       300
43.370       207
43.380       280
43.390       313
43.400       240
43.410       260
43.420       287
43.430       207
43.440       180
43.450       333
43.460       287
43.470       320
43.480       267
43.490       220
43.500       233
43.510       220
43.520       273
43.530       220
43.540       233
43.550       293
43.560       260
43.570       307
43.580       273
43.590       240
43.600       227
43.610       333
43.620       293
43.630       280
43.640       253
43.650       300
43.660       247
43.670       253
43.680       247
43.690       220
43.700       293
43.710       220
43.720       260
43.730       260
43.740       207
43.750       193
43.760       347
43.770       233
43.780       227
43.790       240
43.800       247
43.810       320
43.820       253
43.830       300
43.840       207
43.850       287
43.860       167
43.870       227
43.880       200
43.890       233
43.900       240
43.910       227
43.920       227
43.930       233
43.940       253
43.950       293
43.960       147
43.970       267
43.980       213
43.990       253
44.000       280
44.010       227
44.020       267
44.030       280
44.040       200
44.050       273
44.060       233
44.070       233
44.080       193
44.090       180
44.100       260
44.110       213
44.120       207
44.130       253
44.140       160
44.150       260
44.160       273
44.170       240
44.180       167
44.190       253
44.200       247
44.210       313
44.220       187
44.230       247
44.240       213
44.250       220
44.260       233
44.270       133
44.280       233
44.290       247
44.300       193
44.310       200
44.320       227
44.330       273
44.340       273
44.350       187
44.360       227
44.370       220
44.380       267
44.390       153
44.400       240
44.410       200
44.420       160
44.430       227
44.440       160
44.450       253
44.460       260
44.470       153
44.480       260
44.490       260
44.500       147
44.510       200
44.520       200
44.530       240
44.540       293
44.550       187
44.560       273
44.570       267
44.580       147
44.590       193
44.600       233
44.610       240
44.620       213
44.630       247
44.640       240
44.650       227
44.660       293
44.670       187
44.680       207
44.690       180
44.700       187
44.710       200
44.720       260
44.730       147
44.740       200
44.750       213
44.760       160
44.770       200
44.780       180
44.790       233
44.800       193
44.810       213
44.820       227
44.830       180
44.840       147
44.850       207
44.860       207
44.870       280
44.880       240
44.890       153
44.900       167
44.910       127
44.920       187
44.930       140
44.940       167
44.950       173
44.960       207
44.970       160
44.980       140
44.990       120
45.000       213
45.010       253
45.020       167
45.030       207
45.040       220
45.050       173
45.060       200
45.070       253
45.080       147
45.090       220
45.100       153
45.110       160
45.120       133
45.130       153
45.140       193
45.150       220
45.160       153
45.170       247
45.180       213
45.190       193
45.200       200
45.210       220
45.220       173
45.230       180
45.240       160
45.250       300
45.260       253
45.270       173
45.280       167
45.290       200
45.300       253
45.310       200
45.320       180
45.330       227
45.340       207
45.350       200
45.360       213
45.370       247
45.380       247
45.390       213
45.400       253
45.410       293
45.420       253
45.430       240
45.440       293
45.450       247
45.460       307
45.470       240
45.480       260
45.490       260
45.500       260
45.510       213
45.520       293
45.530       247
45.540       247
45.550       280
45.560       273
45.570       287
45.580       300
45.590       300
45.600       293
45.610       253
45.620       340
45.630       213
45.640       347
45.650       327
45.660       433
45.670       313
45.680       300
45.690       273
45.700       373
45.710       273
45.720       327
45.730       313
45.740       320
45.750       347
45.760       293
45.770       260
45.780       333
45.790       233
45.800       253
45.810       247
45.820       380
45.830       287
45.840       220
45.850       300
45.860       227
45.870       213
45.880       253
45.890       173
45.900       267
45.910       180
45.920       247
45.930       220
45.940       193
45.950       247
45.960       160
45.970       233
45.980       187
45.990       207
46.000       227
46.010       173
46.020       207
46.030       247
46.040       253
46.050       127
46.060       227
46.070       187
46.080       160
46.090       213
46.100       173
46.110       140
46.120       247
46.130       187
46.140       180
46.150       200
46.160       160
46.170       133
46.180       140
46.190       120
46.200       160
46.210       180
46.220       140
46.230       153
46.240       100
46.250       180
46.260       200
46.270       133
46.280       167
46.290       147
46.300       160
46.310       193
46.320       140
46.330       133
46.340       180
46.350       133
46.360       153
46.370       187
46.380        87
46.390       173
46.400       133
46.410       160
46.420       153
46.430       167
46.440       140
46.450       173
46.460       153
46.470       200
46.480       167
46.490       153
46.500       160
46.510       107
46.520       187
46.530       140
46.540       153
46.550       187
46.560       153
46.570       193
46.580       173
46.590       147
46.600       173
46.610       140
46.620       207
46.630       140
46.640       120
46.650       133
46.660       167
46.670       100
46.680       140
46.690       127
46.700        93
46.710       193
46.720        93
46.730       173
46.740       160
46.750       153
46.760        93
46.770       120
46.780       187
46.790       140
46.800       160
46.810       147
46.820       173
46.830       140
46.840       127
46.850       127
46.860       127
46.870       147
46.880       133
46.890       213
46.900       160
46.910        80
46.920       140
46.930        80
46.940       187
46.950       193
46.960       133
46.970       153
46.980       120
46.990       127
47.000       193
47.010       127
47.020       140
47.030       120
47.040       133
47.050       113
47.060       107
47.070       213
47.080       120
47.090       167
47.100       127
47.110       173
47.120       113
47.130       127
47.140       167
47.150       153
47.160       167
47.170       147
47.180       120
47.190       160
47.200       140
47.210       120
47.220       127
47.230       133
47.240       180
47.250       153
47.260       180
47.270       167
47.280       120
47.290       173
47.300       113
47.310       167
47.320       133
47.330       153
47.340       133
47.350       140
47.360        73
47.370       167
47.380       147
47.390        80
47.400       133
47.410       120
47.420        80
47.430       147
47.440       133
47.450       133
47.460       160
47.470        93
47.480       140
47.490       140
47.500       120
47.510       133
47.520       133
47.530       120
47.540       113
47.550       107
47.560       173
47.570       107
47.580        80
47.590       100
47.600       167
47.610       107
47.620       107
47.630       113
47.640       160
47.650       120
47.660       127
47.670       140
47.680       113
47.690       100
47.700       133
47.710       147
47.720       113
47.730       113
47.740        67
47.750        93
47.760        67
47.770        87
47.780       113
47.790       133
47.800       113
47.810       140
47.820       133
47.830       153
47.840       107
47.850       127
47.860       113
47.870       113
47.880       160
47.890        87
47.900       100
47.910        93
47.920       133
47.930        80
47.940        93
47.950       113
47.960       120
47.970       107
47.980        93
47.990        80
48.000       160
48.010        93
48.020       153
48.030       107
48.040       127
48.050       107
48.060       147
48.070       120
48.080       140
48.090        73
48.100       127
48.110       173
48.120       147
48.130       120
48.140       107
48.150       100
48.160       107
48.170       113
48.180       167
48.190       173
48.200       173
48.210       127
48.220       187
48.230       140
48.240        80
48.250       113
48.260       147
48.270       147
48.280       160
48.290        60
48.300       180
48.310       120
48.320       100
48.330       100
48.340       133
48.350       153
48.360        93
48.370       113
48.380       100
48.390       100
48.400        67
48.410       180
48.420        87
48.430       127
48.440       140
48.450        87
48.460       140
48.470       107
48.480        93
48.490       227
48.500       173
48.510       107
48.520       107
48.530       113
48.540       113
48.550       127
48.560       120
48.570       133
48.580       120
48.590       140
48.600       133
48.610        67
48.620       107
48.630       127
48.640       133
48.650       100
48.660       107
48.670       100
48.680       100
48.690       113
48.700        93
48.710       147
48.720       180
48.730       107
48.740       153
48.750        80
48.760       133
48.770       147
48.780       100
48.790        87
48.800       153
48.810       133
48.820        80
48.830       160
48.840       100
48.850        60
48.860       113
48.870        93
48.880        93
48.890       147
48.900        80
48.910       107
48.920       113
48.930       107
48.940        93
48.950       107
48.960       147
48.970       180
48.980        67
48.990        73
49.000       100
49.010       107
49.020       127
49.030       113
49.040       153
49.050        93
49.060       107
49.070        53
49.080        73
49.090       100
49.100       147
49.110       107
49.120       107
49.130        67
49.140        60
49.150       113
49.160       120
49.170       140
49.180       100
49.190        60
49.200        80
49.210        93
49.220       113
49.230       107
49.240        93
49.250        73
49.260        80
49.270       140
49.280        73
49.290       113
49.300       140
49.310        87
49.320       167
49.330        80
49.340        67
49.350        93
49.360        67
49.370        93
49.380       113
49.390        67
49.400        80
49.410       100
49.420        67
49.430       100
49.440       127
49.450        67
49.460        73
49.470       120
49.480       120
49.490       113
49.500       133
49.510       113
49.520       127
49.530       127
49.540       107
49.550        80
49.560       107
49.570       107
49.580       140
49.590        93
49.600        53
49.610        60
49.620       107
49.630       113
49.640       147
49.650       100
49.660        67
49.670        87
49.680        93
49.690       113
49.700        93
49.710        67
49.720        67
49.730        87
49.740       127
49.750        87
49.760       127
49.770        93
49.780       100
49.790        80
49.800       100
49.810       107
49.820        87
49.830       100
49.840        47
49.850       133
49.860        60
49.870       153
49.880       120
49.890       160
49.900       107
49.910       153
49.920       100
49.930        87
49.940       127
49.950       127
49.960       100
49.970        87
49.980       120
49.990       120
50.000        87
50.010        80
50.020        40
50.030        80
50.040       113
50.050        87
50.060       100
50.070        93
50.080        80
50.090       107
50.100       133
50.110       107
50.120        93
50.130        87
50.140        53
50.150        67
50.160       120
50.170       100
50.180       140
50.190        53
50.200        93
50.210       140
50.220        67
50.230       113
50.240       120
50.250        73
50.260        87
50.270        87
50.280       127
50.290       113
50.300       113
50.310        87
50.320       113
50.330        53
50.340       133
50.350       113
50.360        80
50.370       100
50.380       100
50.390        93
50.400        80
50.410        53
50.420       140
50.430       153
50.440       127
50.450       107
50.460       140
50.470       113
50.480        60
50.490       113
50.500        80
50.510        93
50.520        80
50.530       107
50.540        80
50.550       113
50.560       113
50.570        93
50.580        80
50.590        93
50.600       120
50.610       113
50.620        53
50.630        67
50.640        67
50.650       113
50.660        80
50.670        53
50.680       120
50.690       107
50.700       107
50.710        67
50.720        87
50.730       120
50.740       100
50.750        60
50.760        60
50.770       100
50.780       100
50.790       100
50.800        73
50.810        60
50.820        80
50.830        87
50.840        87
50.850       100
50.860        93
50.870        73
50.880        47
50.890        40
50.900        60
50.910        60
50.920        87
50.930        93
50.940        93
50.950       127
50.960       107
50.970        80
50.980       107
50.990        80
51.000        87
51.010       147
51.020       100
51.030       100
51.040        93
51.050       120
51.060        40
51.070        93
51.080        80
51.090       100
51.100        73
51.110        73
51.120       120
51.130       133
51.140       100
51.150        93
51.160        60
51.170       120
51.180        60
51.190       107
51.200        67
51.210        93
51.220        67
51.230        80
51.240       113
51.250        80
51.260        80
51.270        93
51.280        73
51.290        53
51.300        47
51.310        93
51.320        53
51.330        47
51.340        93
51.350        87
51.360        67
51.370        93
51.380       113
51.390        73
51.400        80
51.410        67
51.420        93
51.430        80
51.440       107
51.450       120
51.460        80
51.470        93
51.480        67
51.490        67
51.500        67
51.510        33
51.520       100
51.530        60
51.540        40
51.550        73
51.560        73
51.570       107
51.580       107
51.590        53
51.600        47
51.610        73
51.620        93
51.630        67
51.640        80
51.650        93
51.660        73
51.670        47
51.680        73
51.690        67
51.700        87
51.710        87
51.720        53
51.730        67
51.740       113
51.750       100
51.760        87
51.770       113
51.780        93
51.790        87
51.800       100
51.810        73
51.820        60
51.830        80
51.840        47
51.850       100
51.860       107
51.870        60
51.880        80
51.890        67
51.900        73
51.910        87
51.920        60
51.930        80
51.940       120
51.950        73
51.960        80
51.970       100
51.980        60
51.990       100
52.000       120
52.010       140
52.020        80
52.030        53
52.040        80
52.050        93
52.060        60
52.070        53
52.080        87
52.090        93
52.100        67
52.110       113
52.120        80
52.130       120
52.140        60
52.150        27
52.160        73
52.170       120
52.180        53
52.190       100
52.200        53
52.210       100
52.220        20
52.230        87
52.240        73
52.250        40
52.260        73
52.270        73
52.280        80
52.290        67
52.300        73
52.310        87
52.320        60
52.330       107
52.340        27
52.350        93
52.360       100
52.370        73
52.380        40
52.390        87
52.400       113
52.410       107
52.420        93
52.430        87
52.440        67
52.450        67
52.460        87
52.470        47
52.480       113
52.490        53
52.500        73
52.510       107
52.520        80
52.530        67
52.540        93
52.550        93
52.560       113
52.570       100
52.580        80
52.590        80
52.600        47
52.610        87
52.620       140
52.630        53
52.640        60
52.650       100
52.660        93
52.670        87
52.680       107
52.690        27
52.700        47
52.710       100
52.720        73
52.730        87
52.740        80
52.750        67
52.760        67
52.770        67
52.780       100
52.790       107
52.800        67
52.810       100
52.820        40
52.830        60
52.840        67
52.850       100
52.860        60
52.870       100
52.880        40
52.890        87
52.900        73
52.910        73
52.920        60
52.930        73
52.940        53
52.950        87
52.960        93
52.970       113
52.980        67
52.990        67
53.000        53
53.010        33
53.020        87
53.030        73
53.040        53
53.050        47
53.060        40
53.070        73
53.080        40
53.090        73
53.100        40
53.110        67
53.120        80
53.130        47
53.140        33
53.150       107
53.160        80
53.170        87
53.180        67
53.190        67
53.200        40
53.210        60
53.220        60
53.230        73
53.240        93
53.250       120
53.260        93
53.270        40
53.280        53
53.290        67
53.300        60
53.310        53
53.320       120
53.330        80
53.340        87
53.350        27
53.360        67
53.370        80
53.380       107
53.390        73
53.400        80
53.410        60
53.420        87
53.430        87
53.440        33
53.450        87
53.460        87
53.470        87
53.480        67
53.490        53
53.500        60
53.510        27
53.520        60
53.530        73
53.540        60
53.550        60
53.560        80
53.570        93
53.580        53
53.590        80
53.600        93
53.610        33
53.620        80
53.630        60
53.640       100
53.650        67
53.660        93
53.670        80
53.680        40
53.690        27
53.700        93
53.710        47
53.720        27
53.730        60
53.740        60
53.750        67
53.760        93
53.770        40
53.780        93
53.790        93
53.800       107
53.810        87
53.820        53
53.830        47
53.840        80
53.850        93
53.860        60
53.870        53
53.880        47
53.890        47
53.900        40
53.910        93
53.920        80
53.930        67
53.940        53
53.950        40
53.960       107
53.970        73
53.980        47
53.990        67
54.000        73
54.010        87
54.020        60
54.030       107
54.040        53
54.050        87
54.060        93
54.070        60
54.080        67
54.090        87
54.100       107
54.110        67
54.120        80
54.130        53
54.140        87
54.150        60
54.160        93
54.170       107
54.180        93
54.190        53
54.200       100
54.210        93
54.220        67
54.230        93
54.240        67
54.250        47
54.260        47
54.270        67
54.280        93
54.290        47
54.300        33
54.310        93
54.320        47
54.330        53
54.340        73
54.350        47
54.360        60
54.370        47
54.380        73
54.390        53
54.400        87
54.410        87
54.420        47
54.430        47
54.440        87
54.450        67
54.460        73
54.470        33
54.480        33
54.490        60
54.500        73
54.510        40
54.520        93
54.530        53
54.540        80
54.550        67
54.560        93
54.570        80
54.580        27
54.590        93
54.600        73
54.610        47
54.620        27
54.630        67
54.640        40
54.650        80
54.660        40
54.670        73
54.680        53
54.690        53
54.700        67
54.710        67
54.720        40
54.730        87
54.740       107
54.750        73
54.760        47
54.770        60
54.780        47
54.790        60
54.800        80
54.810        80
54.820        67
54.830        60
54.840        67
54.850        40
54.860        67
54.870        67
54.880        67
54.890        40
54.900        87
54.910        47
54.920        80
54.930        60
54.940        80
54.950        60
54.960        47
54.970        47
54.980        80
54.990        73
55.000        73
55.010        67
55.020        73
55.030       120
55.040        60
55.050        73
55.060        67
55.070        93
55.080        67
55.090        80
55.100        40
55.110        87
55.120        53
55.130        53
55.140        53
55.150        87
55.160        53
55.170        87
55.180        80
55.190        93
55.200        60
55.210       107
55.220        67
55.230        73
55.240        47
55.250        67
55.260        73
55.270        60
55.280        67
55.290        87
55.300        53
55.310       120
55.320        73
55.330        40
55.340        73
55.350        67
55.360        73
55.370        47
55.380       100
55.390        33
55.400        60
55.410        67
55.420       107
55.430        47
55.440        73
55.450        87
55.460        60
55.470        40
55.480        73
55.490        67
55.500        47
55.510       107
55.520        47
55.530        73
55.540        47
55.550        47
55.560        67
55.570        73
55.580        73
55.590       107
55.600        93
55.610        53
55.620        73
55.630        60
55.640        87
55.650        53
55.660        80
55.670        67
55.680        80
55.690        60
55.700        53
55.710        67
55.720        73
55.730        47
55.740       107
55.750        60
55.760        67
55.770        33
55.780        47
55.790        80
55.800        47
55.810        53
55.820        93
55.830        80
55.840        87
55.850        80
55.860       100
55.870        47
55.880        73
55.890        60
55.900        40
55.910        40
55.920        80
55.930        87
55.940        60
55.950        73
55.960        40
55.970        53
55.980        60
55.990        67
56.000        73
56.010        67
56.020        80
56.030        53
56.040        40
56.050       127
56.060        60
56.070        47
56.080        80
56.090        67
56.100        80
56.110        47
56.120       140
56.130        67
56.140       113
56.150        73
56.160        40
56.170        80
56.180       140
56.190        73
56.200        73
56.210        33
56.220        27
56.230        60
56.240       100
56.250        87
56.260        33
56.270       100
56.280        67
56.290        60
56.300        40
56.310        47
56.320        80
56.330        80
56.340        87
56.350        87
56.360       100
56.370        67
56.380       100
56.390        87
56.400       120
56.410        80
56.420        87
56.430       100
56.440        87
56.450        73
56.460        60
56.470        93
56.480        87
56.490        93
56.500        80
56.510       100
56.520       107
56.530       133
56.540        80
56.550       133
56.560        80
56.570       127
56.580       127
56.590       133
56.600       140
56.610       147
56.620       153
56.630       100
56.640       227
56.650       220
56.660       167
56.670       207
56.680       213
56.690       213
56.700       200
56.710       220
56.720       213
56.730       200
56.740       173
56.750       287
56.760       133
56.770       173
56.780       180
56.790       160
56.800       127
56.810       180
56.820       227
56.830       207
56.840       200
56.850       153
56.860       153
56.870       153
56.880       153
56.890       140
56.900       120
56.910       133
56.920       133
56.930       120
56.940        73
56.950        73
56.960       107
56.970       100
56.980       113
56.990        73
57.000       120
57.010        73
57.020        87
57.030        80
57.040        47
57.050        53
57.060       113
57.070        73
57.080        87
57.090        73
57.100        67
57.110        60
57.120        67
57.130        67
57.140        60
57.150        73
57.160        93
57.170        87
57.180       100
57.190        93
57.200        80
57.210       100
57.220        60
57.230        60
57.240        40
57.250        73
57.260        80
57.270        93
57.280        60
57.290        73
57.300        47
57.310       100
57.320        53
57.330        53
57.340        47
57.350        67
57.360        80
57.370        80
57.380        67
57.390        60
57.400        93
57.410        27
57.420        60
57.430        47
57.440        73
57.450        60
57.460        47
57.470        53
57.480        87
57.490       100
57.500        40
57.510        53
57.520        47
57.530        40
57.540        73
57.550        27
57.560        47
57.570        60
57.580        93
57.590        67
57.600        60
57.610        80
57.620        53
57.630        53
57.640        93
57.650        67
57.660        73
57.670        67
57.680        47
57.690        33
57.700        53
57.710        67
57.720        87
57.730        67
57.740        87
57.750        53
57.760        60
57.770        47
57.780        53
57.790        60
57.800        53
57.810       120
57.820        47
57.830       133
57.840        53
57.850        47
57.860        67
57.870        60
57.880        60
57.890        27
57.900        67
57.910        60
57.920        73
57.930        73
57.940        40
57.950        80
57.960       127
57.970        67
57.980        67
57.990        73
58.000        87
58.010        40
58.020        73
58.030        60
58.040        27
58.050        53
58.060        67
58.070        27
58.080        87
58.090        47
58.100        60
58.110        33
58.120        53
58.130        73
58.140        47
58.150        53
58.160        47
58.170        60
58.180        40
58.190        53
58.200        53
58.210        67
58.220        40
58.230        60
58.240        53
58.250        67
58.260        73
58.270        53
58.280        40
58.290        53
58.300        40
58.310        80
58.320        47
58.330        80
58.340        80
58.350        33
58.360        33
58.370        80
58.380        60
58.390        53
58.400        53
58.410        87
58.420        67
58.430        87
58.440        60
58.450        60
58.460        47
58.470        47
58.480        40
58.490        87
58.500        80
58.510       100
58.520        53
58.530        40
58.540        40
58.550        60
58.560        27
58.570        80
58.580        60
58.590        40
58.600        33
58.610        87
58.620        93
58.630        60
58.640        80
58.650        80
58.660        60
58.670        53
58.680        67
58.690        47
58.700        73
58.710        33
58.720        40
58.730        47
58.740        67
58.750        73
58.760        93
58.770        60
58.780        47
58.790        60
58.800         7
58.810        53
58.820        60
58.830        20
58.840        53
58.850        33
58.860        47
58.870        47
58.880        87
58.890        67
58.900        40
58.910        33
58.920        73
58.930        67
58.940        93
58.950        60
58.960        53
58.970        87
58.980        47
58.990        67
59.000        67
59.010        73
59.020        67
59.030        33
59.040        53
59.050        73
59.060        33
59.070        80
59.080        47
59.090        67
59.100        53
59.110        87
59.120        80
59.130        73
59.140        47
59.150        67
59.160        60
59.170        47
59.180        33
59.190        33
59.200        67
59.210        47
59.220        53
59.230        73
59.240        60
59.250         7
59.260        47
59.270        47
59.280        73
59.290        53
59.300        87
59.310       100
59.320        47
59.330        60
59.340        87
59.350        33
59.360        53
59.370        27
59.380        13
59.390       100
59.400        67
59.410        67
59.420        33
59.430        40
59.440        53
59.450        33
59.460        53
59.470        80
59.480        47
59.490        67
59.500        20
59.510        53
59.520        47
59.530        60
59.540        40
59.550        80
59.560        47
59.570        53
59.580        33
59.590        33
59.600       100
59.610        47
59.620        13
59.630        40
59.640        73
59.650        33
59.660        20
59.670        67
59.680        27
59.690        47
59.700        93
59.710        40
59.720        87
59.730        47
59.740        33
59.750        67
59.760        93
59.770        53
59.780        33
59.790        53
59.800        53
59.810        73
59.820        47
59.830        73
59.840        40
59.850        33
59.860       100
59.870        73
59.880        53
59.890        80
59.900        60
59.910        33
59.920        53
59.930        67
59.940        53
59.950        47
59.960        60
59.970        60
59.980        67
59.990        47
60.000        93
