20.000         7
20.010         7
20.020        27
20.030        33
20.040        40
20.050        40
20.060        40
20.070        13
20.080        33
20.090        27
20.100        47
20.110        33
20.120        47
20.130        73
20.140        73
20.150        47
20.160        40
20.170        27
20.180        73
20.190        13
20.200        60
20.210        73
20.220        60
20.230        20
20.240        47
20.250        53
20.260        13
20.270        73
20.280        60
20.290        67
20.300        47
20.310        20
20.320        47
20.330        33
20.340        33
20.350        40
20.360        33
20.370        27
20.380        33
20.390        53
20.400        53
20.410        60
20.420        73
20.430        27
20.440        47
20.450        53
20.460        47
20.470        33
20.480         0
20.490        40
20.500        87
20.510        47
20.520        53
20.530        80
20.540        53
20.550        47
20.560        33
20.570        53
20.580        27
20.590        27
20.600        27
20.610         7
20.620        53
20.630         7
20.640        53
20.650        13
20.660        27
20.670        47
20.680        33
20.690        53
20.700        53
20.710        33
20.720        33
20.730        33
20.740        80
20.750        40
20.760        47
20.770        60
20.780        47
20.790        40
20.800        33
20.810        27
20.820         7
20.830        47
20.840        67
20.850        27
20.860        73
20.870        20
20.880        20
20.890        40
20.900        60
20.910        47
20.920        33
20.930        47
20.940        20
20.950        60
20.960        40
20.970        47
20.980        20
20.990        33
21.000        27
21.010        40
21.020        47
21.030        87
21.040        40
21.050        33
21.060        33
21.070        27
21.080        47
21.090        40
21.100        20
21.110        47
21.120        20
21.130        27
21.140        60
21.150        33
21.160        47
21.170        53
21.180        40
21.190        40
21.200        47
21.210        20
21.220        20
21.230        93
21.240        60
21.250        33
21.260        33
21.270        40
21.280        47
21.290        47
21.300        53
21.310        33
21.320        47
21.330        67
21.340        53
21.350        27
21.360        33
21.370        73
21.380        67
21.390        53
21.400        60
21.410        47
21.420        40
21.430        53
21.440        67
21.450        73
21.460        47
21.470        60
21.480        20
21.490        73
21.500        33
21.510        60
21.520        20
21.530        40
21.540        67
21.550        33
21.560        33
21.570        40
21.580        53
21.590        33
21.600        40
21.610        53
21.620        27
21.630        27
21.640        20
21.650        40
21.660        33
21.670        33
21.680        53
21.690        60
21.700        33
21.710        53
21.720        53
21.730        40
21.740        20
21.750        60
21.760        27
21.770        27
21.780        20
21.790        27
21.800        67
21.810        27
21.820        47
21.830        27
21.840        33
21.850        67
21.860        60
21.870        33
21.880        27
21.890        33
21.900        47
21.910        33
21.920        40
21.930        27
21.940        67
21.950        40
21.960        40
21.970        47
21.980        27
21.990        67
22.000        27
22.010        47
22.020        40
22.030        20
22.040        20
22.050        27
22.060        80
22.070        47
22.080        27
22.090        33
22.100        40
22.110        13
22.120        33
22.130        13
22.140        53
22.150        33
22.160        40
22.170        27
22.180        47
22.190        47
22.200        27
22.210        47
22.220        27
22.230        20
22.240        67
22.250        13
22.260        40
22.270        13
22.280        27
22.290        20
22.300        47
22.310        40
22.320        40
22.330        60
22.340        20
22.350        67
22.360        20
22.370        27
22.380        40
22.390        67
22.400         7
22.410        33
22.420        80
22.430        33
22.440        33
22.450        13
22.460        47
22.470        27
22.480        47
22.490        33
22.500        73
22.510        73
22.520        53
22.530        67
22.540        60
22.550        67
22.560        20
22.570        60
22.580         7
22.590        67
22.600        53
22.610        40
22.620        60
22.630        33
22.640        67
22.650         0
22.660        93
22.670        20
22.680        27
22.690        33
22.700        53
22.710        67
22.720        20
22.730        80
22.740        60
22.750        13
22.760        47
22.770        67
22.780        53
22.790        27
22.800        20
22.810        60
22.820        27
22.830        40
22.840        53
22.850        40
22.860        33
22.870        40
22.880        33
22.890        47
22.900        33
22.910        47
22.920        33
22.930        47
22.940        13
22.950        33
22.960        60
22.970        33
22.980        47
22.990        33
23.000        53
23.010        47
23.020        53
23.030        20
23.040        27
23.050        53
23.060        53
23.070        33
23.080        47
23.090        40
23.100        60
23.110        33
23.120        20
23.130        20
23.140        33
23.150        27
23.160        20
23.170        13
23.180        27
23.190        27
23.200        53
23.210        60
23.220        33
23.230         7
23.240        27
23.250        27
23.260        47
23.270        13
23.280        27
23.290         0
23.300        67
23.310        60
23.320        27
23.330        53
23.340        40
23.350        20
23.360        27
23.370        33
23.380        40
23.390        20
23.400        40
23.410        40
23.420        27
23.430        33
23.440        27
23.450        47
23.460        20
23.470        47
23.480        73
23.490        27
23.500        67
23.510        40
23.520        67
23.530        20
23.540        33
23.550        27
23.560        33
23.570        27
23.580        13
23.590        47
23.600        20
23.610        53
23.620        47
23.630        13
23.640        40
23.650        53
23.660        40
23.670        87
23.680        47
23.690        27
23.700        53
23.710        53
23.720         7
23.730         7
23.740        67
23.750        20
23.760        47
23.770        67
23.780        40
23.790        47
23.800         7
23.810        67
23.820        20
23.830        27
23.840        80
23.850        53
23.860        40
23.870        13
23.880        47
23.890        33
23.900        47
23.910        13
23.920        13
23.930        20
23.940        53
23.950        33
23.960        13
23.970        27
23.980        33
23.990        27
24.000        20
24.010        33
24.020        73
24.030        27
24.040        20
24.050         7
24.060        33
24.070        13
24.080        27
24.090        33
24.100        27
24.110        53
24.120        60
24.130        27
24.140        40
24.150        40
24.160        27
24.170        40
24.180        33
24.190        40
24.200        20
24.210        27
24.220        27
24.230        20
24.240        20
24.250        20
24.260        27
24.270        40
24.280        13
24.290        27
24.300        40
24.310         7
24.320        47
24.330        27
24.340        40
24.350        73
24.360        33
24.370        33
24.380        47
24.390        47
24.400        60
24.410        27
24.420        47
24.430        13
24.440        20
24.450        33
24.460        60
24.470        33
24.480        13
24.490        47
24.500        27
24.510        27
24.520        13
24.530        20
24.540        27
24.550        53
24.560        47
24.570        40
24.580        20
24.590        40
24.600         7
24.610        33
24.620        53
24.630        27
24.640        40
24.650        27
24.660        27
24.670        27
24.680        53
24.690        67
24.700        13
24.710        60
24.720        80
24.730        27
24.740        40
24.750        40
24.760        53
24.770        80
24.780        33
24.790        73
24.800        20
24.810       107
24.820        33
24.830        40
24.840        47
24.850        67
24.860        33
24.870        73
24.880        47
24.890        27
24.900        47
24.910        40
24.920        40
24.930        47
24.940        27
24.950        40
24.960        33
24.970        40
24.980        27
24.990        87
25.000        47
25.010        33
25.020        27
25.030        33
25.040        47
25.050        53
25.060        33
25.070        33
25.080        27
25.090        27
25.100        33
25.110        53
25.120        60
25.130        20
25.140        27
25.150        47
25.160        40
25.170        47
25.180        27
25.190        53
25.200        67
25.210        47
25.220        53
25.230        40
25.240        53
25.250        60
25.260        40
25.270        40
25.280        33
25.290        33
25.300        33
25.310        20
25.320        27
25.330        33
25.340        47
25.350        27
25.360        33
25.370        33
25.380        33
25.390        60
25.400        67
25.410        40
25.420        33
25.430        33
25.440       100
25.450        40
25.460        60
25.470        60
25.480        20
25.490        87
25.500        80
25.510        60
25.520       147
25.530        93
25.540        67
25.550       113
25.560       187
25.570       267
25.580       367
25.590       680
25.600       813
25.610       666
25.620       820
25.630      1026
25.640       740
25.650       753
25.660       706
25.670       606
25.680       620
25.690       600
25.700       420
25.710       473
25.720       293
25.730       253
25.740       207
25.750       140
25.760       120
25.770       100
25.780        93
25.790        67
25.800        20
25.810        40
25.820        60
25.830        60
25.840        53
25.850        33
25.860        47
25.870        40
25.880        27
25.890        27
25.900        33
25.910        13
25.920        33
25.930        40
25.940        40
25.950        27
25.960        27
25.970        60
25.980        40
25.990        33
26.000        33
26.010        27
26.020        40
26.030        20
26.040        27
26.050        40
26.060        33
26.070        53
26.080        53
26.090        20
26.100        20
26.110        47
26.120         7
26.130        47
26.140        27
26.150        40
26.160         7
26.170        27
26.180        67
26.190        47
26.200        33
26.210        13
26.220        47
26.230        13
26.240        33
26.250        53
26.260        40
26.270        33
26.280        33
26.290        13
26.300        20
26.310        27
26.320        53
26.330        20
26.340        20
26.350        47
26.360        27
26.370        27
26.380        40
26.390        20
26.400         7
26.410        47
26.420        20
26.430        33
26.440        40
26.450        47
26.460        13
26.470        47
26.480        53
26.490        13
26.500        13
26.510        27
26.520        40
26.530        40
26.540        73
26.550        20
26.560        33
26.570        53
26.580        40
26.590        13
26.600        40
26.610        20
26.620        27
26.630        20
26.640        33
26.650        20
26.660        27
26.670        40
26.680        47
26.690        40
26.700        47
26.710        13
26.720        20
26.730        33
26.740        27
26.750        20
26.760        40
26.770        13
26.780        27
26.790         0
26.800         7
26.810        27
26.820        47
26.830        13
26.840         0
26.850        13
26.860        13
26.870        13
26.880        20
26.890        27
26.900        13
26.910        20
26.920        27
26.930         0
26.940        40
26.950        33
26.960        33
26.970        33
26.980        33
26.990        27
27.000        27
27.010        53
27.020        20
27.030        20
27.040         7
27.050        27
27.060        20
27.070        40
27.080        60
27.090        20
27.100        53
27.110        47
27.120        33
27.130        27
27.140        33
27.150        27
27.160        33
27.170        47
27.180        33
27.190        27
27.200        20
27.210        47
27.220        20
27.230        33
27.240        20
27.250        40
27.260        40
27.270         7
27.280        27
27.290        13
27.300        20
27.310        40
27.320        33
27.330         0
27.340        20
27.350         7
27.360        20
27.370        27
27.380        27
27.390        27
27.400        40
27.410        27
27.420        20
27.430        13
27.440        40
27.450        27
27.460        27
27.470        47
27.480        47
27.490        40
27.500        20
27.510         7
27.520        33
27.530        47
27.540        27
27.550         7
27.560        47
27.570         7
27.580        20
27.590        27
27.600        27
27.610        13
27.620        33
27.630        40
27.640        33
27.650        27
27.660        27
27.670        20
27.680        27
27.690         7
27.700        27
27.710        13
27.720        73
27.730        20
27.740         7
27.750        27
27.760        20
27.770        13
27.780        20
27.790        13
27.800        67
27.810        20
27.820        47
27.830        33
27.840        53
27.850        27
27.860        13
27.870        67
27.880        13
27.890        33
27.900         0
27.910        53
27.920        13
27.930        47
27.940        53
27.950        80
27.960        13
27.970        33
27.980        20
27.990        33
28.000        33
28.010        33
28.020        20
28.030        53
28.040        27
28.050        20
28.060        27
28.070        67
28.080        47
28.090        27
28.100        13
28.110        47
28.120        27
28.130        53
28.140        20
28.150        27
28.160        33
28.170        13
28.180        13
28.190        20
28.200         7
28.210        33
28.220        40
28.230        33
28.240        13
28.250        33
28.260        53
28.270        27
28.280        33
28.290        40
28.300        40
28.310        13
28.320        33
28.330        13
28.340        13
28.350        60
28.360        60
28.370         0
28.380         7
28.390        27
28.400        13
28.410        20
28.420        33
28.430        20
28.440        27
28.450        27
28.460        47
28.470        20
28.480        20
28.490        20
28.500        27
28.510        40
28.520        27
28.530        33
28.540        33
28.550        53
28.560        40
28.570         7
28.580        53
28.590        47
28.600        40
28.610        27
28.620        27
28.630        33
28.640        27
28.650        20
28.660        13
28.670        13
28.680         7
28.690        27
28.700        53
28.710        13
28.720        20
28.730        40
28.740        27
28.750        27
28.760        20
28.770        20
28.780        40
28.790        27
28.800        20
28.810        13
28.820        27
28.830        33
28.840        40
28.850        27
28.860        40
28.870        13
28.880        33
28.890        60
28.900        33
28.910        20
28.920        13
28.930        20
28.940        47
28.950        47
28.960        73
28.970        60
28.980        27
28.990        27
29.000        47
29.010        33
29.020        20
29.030         7
29.040        13
29.050        20
29.060        13
29.070        33
29.080        27
29.090        47
29.100        13
29.110        27
29.120        13
29.130        47
29.140        13
29.150        33
29.160        20
29.170        27
29.180        20
29.190        40
29.200        40
29.210        40
29.220        47
29.230        47
29.240        40
29.250        67
29.260        60
29.270        73
29.280        20
29.290        93
29.300        60
29.310        53
29.320        73
29.330        60
29.340        47
29.350        80
29.360        60
29.370        33
29.380        53
29.390        87
29.400        67
29.410        73
29.420        40
29.430        47
29.440        33
29.450        40
29.460        73
29.470        80
29.480        20
29.490        27
29.500        27
29.510         7
29.520        27
29.530        60
29.540        33
29.550        20
29.560        33
29.570        13
29.580        20
29.590        47
29.600        33
29.610        27
29.620        13
29.630        27
29.640        20
29.650        27
29.660        27
29.670        33
29.680        13
29.690         7
29.700        13
29.710        20
29.720        13
29.730        47
29.740        20
29.750        27
29.760        33
29.770        20
29.780        33
29.790        20
29.800        13
29.810        33
29.820        13
29.830        53
29.840        27
29.850        33
29.860        27
29.870        33
29.880        20
29.890        33
29.900        33
29.910        13
29.920        27
29.930        13
29.940        13
29.950        33
29.960        33
29.970        27
29.980        20
29.990        47
30.000        27
30.010        27
30.020         7
30.030        33
30.040        27
30.050        33
30.060        40
30.070        20
30.080        20
30.090        60
30.100        27
30.110        53
30.120        20
30.130        20
30.140        27
30.150        40
30.160        27
30.170        27
30.180        47
30.190        20
30.200        20
30.210        40
30.220        27
30.230        13
30.240        40
30.250         7
30.260        20
30.270        20
30.280        33
30.290        47
30.300        53
30.310        33
30.320        20
30.330        13
30.340        20
30.350        27
30.360        27
30.370         7
30.380        47
30.390        13
30.400        13
30.410        47
30.420        20
30.430         0
30.440        13
30.450         7
30.460        27
30.470         7
30.480        20
30.490        40
30.500        20
30.510        20
30.520        27
30.530        40
30.540        20
30.550        13
30.560        27
30.570        20
30.580        33
30.590        27
30.600         7
30.610        13
30.620        20
30.630        27
30.640         7
30.650        27
30.660        33
30.670         0
30.680        13
30.690        20
30.700        27
30.710        47
30.720        27
30.730        27
30.740        13
30.750        20
30.760        47
30.770        20
30.780        20
30.790        20
30.800        47
30.810        33
30.820        27
30.830        47
30.840        13
30.850        33
30.860        40
30.870        27
30.880        27
30.890        27
30.900        20
30.910        40
30.920        27
30.930        40
30.940        33
30.950        20
30.960         7
30.970        53
30.980         7
30.990        13
31.000        27
31.010         7
31.020        13
31.030        47
31.040        13
31.050        20
31.060        27
31.070        27
31.080        40
31.090        13
31.100        47
31.110        60
31.120         0
31.130        13
31.140        27
31.150        20
31.160        27
31.170        13
31.180         7
31.190        20
31.200        27
31.210        40
31.220        20
31.230        53
31.240        20
31.250        27
31.260        33
31.270        13
31.280        40
31.290        47
31.300        47
31.310        40
31.320        20
31.330        33
31.340        27
31.350        20
31.360        33
31.370        13
31.380        20
31.390        40
31.400        33
31.410        27
31.420        73
31.430         7
31.440        33
31.450        20
31.460        27
31.470        33
31.480        20
31.490         7
31.500        20
31.510        27
31.520        20
31.530        20
31.540        53
31.550        20
31.560        20
31.570        40
31.580        13
31.590        33
31.600        27
31.610        33
31.620         0
31.630        40
31.640        20
31.650        20
31.660        13
31.670        27
31.680        33
31.690        20
31.700        40
31.710        40
31.720        13
31.730        47
31.740        27
31.750        27
31.760        60
31.770        33
31.780        53
31.790        47
31.800        33
31.810        73
31.820        27
31.830        67
31.840        53
31.850        80
31.860        47
31.870        60
31.880        87
31.890        93
31.900        33
31.910        60
31.920        73
31.930        87
31.940        60
31.950        33
31.960        67
31.970        60
31.980        40
31.990        47
32.000        27
32.010        67
32.020        13
32.030        27
32.040        40
32.050        73
32.060        40
32.070        33
32.080        20
32.090        40
32.100        27
32.110        20
32.120        33
32.130         7
32.140         7
32.150        33
32.160        27
32.170        53
32.180        47
32.190         7
32.200        47
32.210        33
32.220        27
32.230        27
32.240        53
32.250        33
32.260        13
32.270        20
32.280        33
32.290         7
32.300        27
32.310        33
32.320         7
32.330        13
32.340        27
32.350        27
32.360        13
32.370        13
32.380        20
32.390        27
32.400        33
32.410        27
32.420         7
32.430        33
32.440        13
32.450        13
32.460        20
32.470        27
32.480        13
32.490        13
32.500        20
32.510         7
32.520        33
32.530        20
32.540        27
32.550        20
32.560        20
32.570        40
32.580        47
32.590        13
32.600        27
32.610        20
32.620        47
32.630        40
32.640         7
32.650        33
32.660        33
32.670        33
32.680        40
32.690         7
32.700        27
32.710         7
32.720        27
32.730        13
32.740        33
32.750        20
32.760        33
32.770         7
32.780        20
32.790        27
32.800         0
32.810        20
32.820        27
32.830        13
32.840         0
32.850        13
32.860        13
32.870         0
32.880        13
32.890         7
32.900        40
32.910         0
32.920        33
32.930        27
32.940        27
32.950         7
32.960        47
32.970        27
32.980        20
32.990        13
33.000        27
33.010        27
33.020        27
33.030        47
33.040        47
33.050        20
33.060        47
33.070        33
33.080        20
33.090        20
33.100         7
33.110         0
33.120        40
33.130         7
33.140        47
33.150        20
33.160        27
33.170        20
33.180        40
33.190        20
33.200        20
33.210        20
33.220        13
33.230        33
33.240        27
33.250        13
33.260        13
33.270        27
33.280        20
33.290        33
33.300        40
33.310        13
33.320        27
33.330        27
33.340        13
33.350        27
33.360        13
33.370         7
33.380         7
33.390        27
33.400         7
33.410        20
33.420        20
33.430        40
33.440        33
33.450        20
33.460        20
33.470        20
33.480        27
33.490        27
33.500        27
33.510        20
33.520         7
33.530        13
33.540        20
33.550        13
33.560        13
33.570        13
33.580         7
33.590        33
33.600        33
33.610        20
33.620         0
33.630         7
33.640        13
33.650        20
33.660         0
33.670        13
33.680        13
33.690        40
33.700        27
33.710        20
33.720        33
33.730         7
33.740        40
33.750        13
33.760         7
33.770        20
33.780        33
33.790         7
33.800        27
33.810         7
33.820        27
33.830        40
33.840        20
33.850        20
33.860        27
33.870        20
33.880         7
33.890        47
33.900        60
33.910        47
33.920        13
33.930        13
33.940        20
33.950        20
33.960        13
33.970        27
33.980        20
33.990        13
34.000        27
34.010         7
34.020        20
34.030         7
34.040        27
34.050        47
34.060        27
34.070        33
34.080        27
34.090        20
34.100        20
34.110        13
34.120         7
34.130        20
34.140        27
34.150         7
34.160        20
34.170        20
34.180        60
34.190        20
34.200         0
34.210        20
34.220        20
34.230        13
34.240        27
34.250        33
34.260        53
34.270         7
34.280        13
34.290        13
34.300        20
34.310        20
34.320         7
34.330        40
34.340        27
34.350        40
34.360        13
34.370         7
34.380        40
34.390        27
34.400        20
34.410         0
34.420        13
34.430        40
34.440         7
34.450        13
34.460        20
34.470        13
34.480        20
34.490        27
34.500        53
34.510        20
34.520        33
34.530        20
34.540        20
34.550         7
34.560        33
34.570         0
34.580        20
34.590         7
34.600        13
34.610        20
34.620        20
34.630        33
34.640         7
34.650        13
34.660        20
34.670         7
34.680        20
34.690        13
34.700        33
34.710         7
34.720        40
34.730        13
34.740         7
34.750        20
34.760        27
34.770        20
34.780        13
34.790         7
34.800        40
34.810        20
34.820        20
34.830        20
34.840         7
34.850        40
34.860        20
34.870        20
34.880         7
34.890        13
34.900        27
34.910        13
34.920        13
34.930         7
34.940        33
34.950        33
34.960        40
34.970        33
34.980        40
34.990        13
35.000        13
35.010        13
35.020        13
35.030         0
35.040        27
35.050        33
35.060        33
35.070        33
35.080        40
35.090         0
35.100        40
35.110        20
35.120        27
35.130        27
35.140        20
35.150        27
35.160        13
35.170        27
35.180         7
35.190        40
35.200        40
35.210        20
35.220        27
35.230        13
35.240        40
35.250        27
35.260        20
35.270        27
35.280        40
35.290         7
35.300        27
35.310        20
35.320        47
35.330        13
35.340         7
35.350        13
35.360        20
35.370        40
35.380         7
35.390        27
35.400        20
35.410        27
35.420         7
35.430        20
35.440        33
35.450        13
35.460        27
35.470         0
35.480        13
35.490        33
35.500        13
35.510        27
35.520         7
35.530        33
35.540        33
35.550        33
35.560         7
35.570        20
35.580        20
35.590        13
35.600        13
35.610        20
35.620        27
35.630        27
35.640        13
35.650        33
35.660        13
35.670        13
35.680        33
35.690        33
35.700        20
35.710        33
35.720        20
35.730        33
35.740        20
35.750        33
35.760         7
35.770        33
35.780        33
35.790        33
35.800        20
35.810        27
35.820        20
35.830         0
35.840        20
35.850        20
35.860        60
35.870        13
35.880        27
35.890        20
35.900        20
35.910        60
35.920        53
35.930        40
35.940        27
35.950        27
35.960        20
35.970        13
35.980        47
35.990        27
36.000        13
36.010        53
36.020        33
36.030        47
36.040         7
36.050        13
36.060        20
36.070        20
36.080        13
36.090        33
36.100        33
36.110        13
36.120         7
36.130        33
36.140        27
36.150        20
36.160        13
36.170        47
36.180        20
36.190        27
36.200        27
36.210        33
36.220        27
36.230        33
36.240        33
36.250        20
36.260        33
36.270        27
36.280        13
36.290        13
36.300        20
36.310         0
36.320         7
36.330        27
36.340         7
36.350        27
36.360        20
36.370        20
36.380        20
36.390        33
36.400        20
36.410        20
36.420         0
36.430        20
36.440        53
36.450        40
36.460        13
36.470        20
36.480        20
36.490        13
36.500        20
36.510         7
36.520        33
36.530         7
36.540        20
36.550         7
36.560        33
36.570        33
36.580        13
36.590         7
36.600        20
36.610         7
36.620        13
36.630        13
36.640        13
36.650         7
36.660        20
36.670        33
36.680         7
36.690         7
36.700        33
36.710        20
36.720        27
36.730        13
36.740        20
36.750        13
36.760        20
36.770         7
36.780        13
36.790        20
36.800        20
36.810        13
36.820        27
36.830         7
36.840        33
36.850        27
36.860        20
36.870         7
36.880        27
36.890         7
36.900        27
36.910        27
36.920        20
36.930        33
36.940        13
36.950        27
36.960        20
36.970        27
36.980         7
36.990        27
37.000        40
37.010        13
37.020        20
37.030        47
37.040        27
37.050        13
37.060        27
37.070         7
37.080         7
37.090        27
37.100        33
37.110        20
37.120         7
37.130        27
37.140        20
37.150        13
37.160        13
37.170        27
37.180        20
37.190         7
37.200         7
37.210         7
37.220        20
37.230        27
37.240         7
37.250        27
37.260        33
37.270        13
37.280         7
37.290        20
37.300        13
37.310        13
37.320         0
37.330        27
37.340        13
37.350        40
37.360         7
37.370        33
37.380        27
37.390        27
37.400         7
37.410        27
37.420        13
37.430        20
37.440        33
37.450         7
37.460        20
37.470        13
37.480        13
37.490        20
37.500         7
37.510        33
37.520         7
37.530        13
37.540        13
37.550        27
37.560        13
37.570         0
37.580        20
37.590        33
37.600        20
37.610         7
37.620        33
37.630        13
37.640        20
37.650        27
37.660        47
37.670        13
37.680         7
37.690        13
37.700        33
37.710        27
37.720        33
37.730        27
37.740        27
37.750        27
37.760        20
37.770        13
37.780        33
37.790         7
37.800        27
37.810        33
37.820        47
37.830        13
37.840        20
37.850        13
37.860        47
37.870        27
37.880        13
37.890        33
37.900         7
37.910        33
37.920        27
37.930        13
37.940        13
37.950        47
37.960        13
37.970        13
37.980        13
37.990        40
38.000        13
38.010        40
38.020        27
38.030         7
38.040        20
38.050        13
38.060        20
38.070        47
38.080        40
38.090        33
38.100        13
38.110        27
38.120        20
38.130        27
38.140        20
38.150        33
38.160        33
38.170        13
38.180        20
38.190        13
38.200        20
38.210        20
38.220        40
38.230        20
38.240        27
38.250        20
38.260        13
38.270        13
38.280        13
38.290        33
38.300        47
38.310        40
38.320        13
38.330        40
38.340        20
38.350        33
38.360        27
38.370        13
38.380        33
38.390        40
38.400        33
38.410        27
38.420        33
38.430        13
38.440        40
38.450        33
38.460        27
38.470        13
38.480        20
38.490        33
38.500        40
38.510        40
38.520        40
38.530        13
38.540        13
38.550         0
38.560        27
38.570        20
38.580        20
38.590         7
38.600        27
38.610         0
38.620        27
38.630        13
38.640         0
38.650         7
38.660         7
38.670         7
38.680        13
38.690        33
38.700        60
38.710        53
38.720        13
38.730        47
38.740        27
38.750        27
38.760         7
38.770        27
38.780        20
38.790        27
38.800        13
38.810        20
38.820        33
38.830        27
38.840        27
38.850        27
38.860         7
38.870        13
38.880        40
38.890        33
38.900        20
38.910        13
38.920        20
38.930        40
38.940        47
38.950        27
38.960        13
38.970        20
38.980         0
38.990        20
39.000        27
39.010        13
39.020        33
39.030        33
39.040        27
39.050        60
39.060        60
39.070        27
39.080        40
39.090        40
39.100        40
39.110        80
39.120        87
39.130       107
39.140        67
39.150       127
39.160       100
39.170       107
39.180       200
39.190       133
39.200       133
39.210       147
39.220       133
39.230       160
39.240       193
39.250       247
39.260       247
39.270       260
39.280       133
39.290       193
39.300       160
39.310       207
39.320       260
39.330       193
39.340       187
39.350       160
39.360       113
39.370       133
39.380       160
39.390       127
39.400        87
39.410       100
39.420       147
39.430       107
39.440        87
39.450       100
39.460       107
39.470        60
39.480        13
39.490        33
39.500        40
39.510        53
39.520        40
39.530        40
39.540        60
39.550        33
39.560        27
39.570        20
39.580        20
39.590        33
39.600        13
39.610        20
39.620        33
39.630        13
39.640        13
39.650        53
39.660        27
39.670         7
39.680        33
39.690        27
39.700         7
39.710        20
39.720        40
39.730        40
39.740        13
39.750        13
39.760        13
39.770        20
39.780        20
39.790        40
39.800        20
39.810        13
39.820        20
39.830         7
39.840        27
39.850         7
39.860        27
39.870        20
39.880        13
39.890        20
39.900        20
39.910        40
39.920        33
39.930        47
39.940        13
39.950        13
39.960         7
39.970        13
39.980        20
39.990        27
40.000         7
40.010        13
40.020        27
40.030        40
40.040        13
40.050         7
40.060        27
40.070        13
40.080        20
40.090        27
40.100        13
40.110        27
40.120        27
40.130        27
40.140        33
40.150        20
40.160        40
40.170         7
40.180        20
40.190        33
40.200        13
40.210        13
40.220         7
40.230        13
40.240        13
40.250        33
40.260        13
40.270        13
40.280        27
40.290         7
40.300        33
40.310        27
40.320         7
40.330         0
40.340        40
40.350        20
40.360        40
40.370        27
40.380        40
40.390        20
40.400        13
40.410        20
40.420        33
40.430        13
40.440        40
40.450        20
40.460        20
40.470        13
40.480        33
40.490        33
40.500        33
40.510         0
40.520        40
40.530        33
40.540        33
40.550        20
40.560         0
40.570         7
40.580        47
40.590        20
40.600        33
40.610        60
40.620        20
40.630        20
40.640        13
40.650        27
40.660        40
40.670        33
40.680        33
40.690        20
40.700        20
40.710        13
40.720        53
40.730        20
40.740        33
40.750        20
40.760        33
40.770        27
40.780        20
40.790        27
40.800         7
40.810         7
40.820        27
40.830         7
40.840        20
40.850        33
40.860        20
40.870        27
40.880        27
40.890        13
40.900        27
40.910        13
40.920        47
40.930        13
40.940        20
40.950        20
40.960         7
40.970         0
40.980        27
40.990        33
41.000        20
41.010         7
41.020        27
41.030        33
41.040        13
41.050        60
41.060         7
41.070        20
41.080        47
41.090        33
41.100        27
41.110         7
41.120        33
41.130        27
41.140        13
41.150        13
41.160        33
41.170        27
41.180        33
41.190        13
41.200        27
41.210        27
41.220         7
41.230        13
41.240        47
41.250        13
41.260         0
41.270        20
41.280        27
41.290        27
41.300        20
41.310        13
41.320        27
41.330        13
41.340        20
41.350        53
41.360        27
41.370        13
41.380        40
41.390        20
41.400        13
41.410        40
41.420         7
41.430        33
41.440        13
41.450         0
41.460        33
41.470        13
41.480        47
41.490        13
41.500        27
41.510        13
41.520        20
41.530         7
41.540        20
41.550        13
41.560        20
41.570        27
41.580         7
41.590        27
41.600        20
41.610         7
41.620        13
41.630        13
41.640        27
41.650        20
41.660        20
41.670        13
41.680        13
41.690        13
41.700        20
41.710         7
41.720        13
41.730        33
41.740        27
41.750        27
41.760        13
41.770        27
41.780        20
41.790        20
41.800        27
41.810        33
41.820        13
41.830        20
41.840        27
41.850         7
41.860        27
41.870        33
41.880        13
41.890        20
41.900        33
41.910        33
41.920        20
41.930        33
41.940        13
41.950         7
41.960        40
41.970         7
41.980        13
41.990        20
42.000        20
42.010        27
42.020        33
42.030         7
42.040        20
42.050        40
42.060        20
42.070        13
42.080        33
42.090        27
42.100        20
42.110        13
42.120         7
42.130        33
42.140         7
42.150        20
42.160        33
42.170         7
42.180        47
42.190        13
42.200        27
42.210        20
42.220        13
42.230        13
42.240        27
42.250        20
42.260         7
42.270        40
42.280         7
42.290        20
42.300        33
42.310        20
42.320        67
42.330        13
42.340        20
42.350        47
42.360        40
42.370         7
42.380        13
42.390        27
42.400        27
42.410         7
42.420        20
42.430        20
42.440        33
42.450        27
42.460        13
42.470        13
42.480        13
42.490        53
42.500        20
42.510         7
42.520        13
42.530        20
42.540        13
42.550         7
42.560        20
42.570        20
42.580         7
42.590        20
42.600        13
42.610        20
42.620         7
42.630        27
42.640        53
42.650        27
42.660        20
42.670        27
42.680        40
42.690        27
42.700        27
42.710        27
42.720        40
42.730        20
42.740        40
42.750        40
42.760        13
42.770         7
42.780        13
42.790        20
42.800        33
42.810        40
42.820        33
42.830        13
42.840        20
42.850        13
42.860         7
42.870        20
42.880        40
42.890        20
42.900        20
42.910        27
42.920        13
42.930        20
42.940        20
42.950        20
42.960        33
42.970        33
42.980        33
42.990        67
43.000        20
43.010        40
43.020        13
43.030        20
43.040        40
43.050        33
43.060        20
43.070        40
43.080        47
43.090        53
43.100        20
43.110        47
43.120        27
43.130        40
43.140        60
43.150        47
43.160        20
43.170        53
43.180        40
43.190        13
43.200        27
43.210        27
43.220        47
43.230        20
43.240        13
43.250        40
43.260        33
43.270        20
43.280        33
43.290        33
43.300        13
43.310        20
43.320        27
43.330        40
43.340        20
43.350        47
43.360        27
43.370        13
43.380        20
43.390        20
43.400        40
43.410        13
43.420        40
43.430        20
43.440        27
43.450        13
43.460         7
43.470         7
43.480         7
43.490        40
43.500        20
43.510        27
43.520        20
43.530        27
43.540        13
43.550         0
43.560        27
43.570        40
43.580         7
43.590        40
43.600        20
43.610        33
43.620        27
43.630         0
43.640        20
43.650        13
43.660        27
43.670        13
43.680        33
43.690         7
43.700        13
43.710        27
43.720        20
43.730        13
43.740        33
43.750        33
43.760        20
43.770         0
43.780        53
43.790        13
43.800        13
43.810        47
43.820        53
43.830         7
43.840        13
43.850        27
43.860        33
43.870        13
43.880         7
43.890        13
43.900        13
43.910        27
43.920        20
43.930        40
43.940        20
43.950        27
43.960        27
43.970        13
43.980        13
43.990        13
44.000        20
44.010        20
44.020        13
44.030        27
44.040        47
44.050        40
44.060        27
44.070        27
44.080         7
44.090         7
44.100        40
44.110        40
44.120        13
44.130        27
44.140         0
44.150        40
44.160        33
44.170        20
44.180        33
44.190        33
44.200         7
44.210        53
44.220        27
44.230        20
44.240        47
44.250        20
44.260        13
44.270        13
44.280        27
44.290        27
44.300        20
44.310        20
44.320        20
44.330         7
44.340         0
44.350        60
44.360        33
44.370        20
44.380        33
44.390         0
44.400        40
44.410        40
44.420        33
44.430        33
44.440        20
44.450         7
44.460        53
44.470        27
44.480        27
44.490        20
44.500        33
44.510        13
44.520        13
44.530        20
44.540         7
44.550        33
44.560         7
44.570        13
44.580        13
44.590        13
44.600        20
44.610        20
44.620        20
44.630        27
44.640         0
44.650         7
44.660        27
44.670        20
44.680        13
44.690        20
44.700        27
44.710        20
44.720        13
44.730         7
44.740        13
44.750        20
44.760        33
44.770        27
44.780        27
44.790        13
44.800        20
44.810        13
44.820        13
44.830         7
44.840        33
44.850        13
44.860        20
44.870        27
44.880         7
44.890        53
44.900        20
44.910         7
44.920        20
44.930        27
44.940        20
44.950         7
44.960        53
44.970        13
44.980        47
44.990        40
45.000        20
45.010         7
45.020         0
45.030        13
45.040         7
45.050        33
45.060        33
45.070        13
45.080        53
45.090        33
45.100        27
45.110        13
45.120        27
45.130        27
45.140        27
45.150         7
45.160        27
45.170        27
45.180        27
45.190        27
45.200        20
45.210        27
45.220        20
45.230        27
45.240         0
45.250        27
45.260        13
45.270        13
45.280        27
45.290         7
45.300        20
45.310        13
45.320        20
45.330        20
45.340        20
45.350        20
45.360        13
45.370        40
45.380        27
45.390        27
45.400        20
45.410        27
45.420        13
45.430         7
45.440        13
45.450        27
45.460        20
45.470        40
45.480        13
45.490        20
45.500        20
45.510        20
45.520        27
45.530        27
45.540        47
45.550        20
45.560        13
45.570        20
45.580        47
45.590        40
45.600        20
45.610        67
45.620        40
45.630        33
45.640        40
45.650        33
45.660        20
45.670        20
45.680         7
45.690        33
45.700        40
45.710        67
45.720         7
45.730         7
45.740        33
45.750        13
45.760        33
45.770        27
45.780        13
45.790        33
45.800         7
45.810        13
45.820        20
45.830        33
45.840        20
45.850        27
45.860        40
45.870        40
45.880        13
45.890        47
45.900        13
45.910         0
45.920        20
45.930        33
45.940        20
45.950         7
45.960        13
45.970        20
45.980        27
45.990        33
46.000        20
46.010         0
46.020        27
46.030        20
46.040        47
46.050         7
46.060        13
46.070         7
46.080        13
46.090        33
46.100        13
46.110        20
46.120        13
46.130        40
46.140        33
46.150        20
46.160        40
46.170        33
46.180        13
46.190        27
46.200        20
46.210        33
46.220        20
46.230        27
46.240        20
46.250        33
46.260         0
46.270        13
46.280        40
46.290        13
46.300        40
46.310        33
46.320        20
46.330        47
46.340        13
46.350        27
46.360        27
46.370        20
46.380        27
46.390        13
46.400         7
46.410         7
46.420        33
46.430        33
46.440        47
46.450        33
46.460        40
46.470        40
46.480        13
46.490        53
46.500        27
46.510        13
46.520        13
46.530        13
46.540        27
46.550        13
46.560        20
46.570        13
46.580        33
46.590        13
46.600        13
46.610        33
46.620        20
46.630        20
46.640        27
46.650        33
46.660        33
46.670        47
46.680        20
46.690        13
46.700        27
46.710        47
46.720        40
46.730        67
46.740        13
46.750        27
46.760        40
46.770        33
46.780        33
46.790        13
46.800        47
46.810        33
46.820        40
46.830        20
46.840        60
46.850        47
46.860        27
46.870        67
46.880        47
46.890        33
46.900        27
46.910        20
46.920        13
46.930        40
46.940        33
46.950        33
46.960        20
46.970        67
46.980        40
46.990        33
47.000        20
47.010        33
47.020        27
47.030        13
47.040        40
47.050        33
47.060        27
47.070        13
47.080        13
47.090        20
47.100        20
47.110         7
47.120        20
47.130        47
47.140        33
47.150        60
47.160        27
47.170        20
47.180        27
47.190        33
47.200        27
47.210        47
47.220        33
47.230        33
47.240        27
47.250        27
47.260        27
47.270        27
47.280        27
47.290        40
47.300        27
47.310        13
47.320        27
47.330        73
47.340        40
47.350        33
47.360        60
47.370        40
47.380        20
47.390        93
47.400        60
47.410        33
47.420        60
47.430        67
47.440        73
47.450        73
47.460        53
47.470        33
47.480        33
47.490        53
47.500        40
47.510        20
47.520        47
47.530        33
47.540        67
47.550        53
47.560        27
47.570        53
47.580        20
47.590        20
47.600        47
47.610        40
47.620        20
47.630        27
47.640        33
47.650        20
47.660        40
47.670        27
47.680        13
47.690        33
47.700         7
47.710        13
47.720        20
47.730         7
47.740        20
47.750        13
47.760        27
47.770        20
47.780        40
47.790        27
47.800        20
47.810        20
47.820         7
47.830        27
47.840         7
47.850        20
47.860        13
47.870        27
47.880        20
47.890        13
47.900         0
47.910        20
47.920        20
47.930        20
47.940        13
47.950        13
47.960        20
47.970        47
47.980        20
47.990        33
48.000        20
48.010        47
48.020         7
48.030        20
48.040        20
48.050        27
48.060        27
48.070         0
48.080        13
48.090        20
48.100        20
48.110        27
48.120        27
48.130        20
48.140        33
48.150        33
48.160        27
48.170        20
48.180        27
48.190        20
48.200        27
48.210        27
48.220        13
48.230        27
48.240         7
48.250        53
48.260        27
48.270        33
48.280        27
48.290        40
48.300        40
48.310        53
48.320        67
48.330        27
48.340        33
48.350        20
48.360        13
48.370        53
48.380        27
48.390        20
48.400        33
48.410        33
48.420        20
48.430        13
48.440        27
48.450        40
48.460        27
48.470        53
48.480        47
48.490        60
48.500        33
48.510        20
48.520        33
48.530        33
48.540        47
48.550         7
48.560        53
48.570        20
48.580        20
48.590        33
48.600        40
48.610         7
48.620        33
48.630        13
48.640        27
48.650        20
48.660        27
48.670        20
48.680         7
48.690        33
48.700        20
48.710         7
48.720        20
48.730        13
48.740        33
48.750        33
48.760        20
48.770         7
48.780        20
48.790        33
48.800        20
48.810        33
48.820        33
48.830         0
48.840        13
48.850        27
48.860        27
48.870         7
48.880        13
48.890        13
48.900        27
48.910        33
48.920        13
48.930        27
48.940        13
48.950        27
48.960        13
48.970        20
48.980        27
48.990        33
49.000        13
49.010         0
49.020        47
49.030        20
49.040        27
49.050        13
49.060        33
49.070         0
49.080        33
49.090        13
49.100        27
49.110        20
49.120         7
49.130        20
49.140        27
49.150        27
49.160        13
49.170        47
49.180         0
49.190        13
49.200        13
49.210        13
49.220        13
49.230         0
49.240        33
49.250        20
49.260        20
49.270        20
49.280        27
49.290        20
49.300         7
49.310        13
49.320        13
49.330        20
49.340        20
49.350        20
49.360        20
49.370         0
49.380        13
49.390        47
49.400         7
49.410         7
49.420         7
49.430        20
49.440        13
49.450        40
49.460        13
49.470        33
49.480        20
49.490         7
49.500        13
49.510        33
49.520         7
49.530        27
49.540         7
49.550        13
49.560        33
49.570        40
49.580        13
49.590        20
49.600        13
49.610        33
49.620        40
49.630        20
49.640         7
49.650        20
49.660         7
49.670         7
49.680        27
49.690        20
49.700        27
49.710        20
49.720         7
49.730        40
49.740         7
49.750        20
49.760        33
49.770        20
49.780        20
49.790        13
49.800        33
49.810        27
49.820        40
49.830         7
49.840        20
49.850         7
49.860        13
49.870        33
49.880        13
49.890        13
49.900        40
49.910        33
49.920        27
49.930         7
49.940        33
49.950         7
49.960        13
49.970         7
49.980        47
49.990        53
50.000        13
50.010        20
50.020         7
50.030        13
50.040        27
50.050        13
50.060        13
50.070        20
50.080        20
50.090         7
50.100        13
50.110        20
50.120        33
50.130        13
50.140         7
50.150        20
50.160        40
50.170        27
50.180        20
50.190        27
50.200        20
50.210         0
50.220        20
50.230        40
50.240        20
50.250        27
50.260        33
50.270        27
50.280        53
50.290        20
50.300        13
50.310        20
50.320         7
50.330         7
50.340        20
50.350        20
50.360        20
50.370        20
50.380        27
50.390        13
50.400        33
50.410        27
50.420        20
50.430        53
50.440        27
50.450        40
50.460        13
50.470        33
50.480        27
50.490        13
50.500        40
50.510         0
50.520        13
50.530        27
50.540        33
50.550         0
50.560        13
50.570        33
50.580         7
50.590        27
50.600        20
50.610         7
50.620        40
50.630        27
50.640        20
50.650        27
50.660        27
50.670        27
50.680        33
50.690        47
50.700        20
50.710        40
50.720        13
50.730        13
50.740        33
50.750        27
50.760        20
50.770        27
50.780        33
50.790        40
50.800        20
50.810        40
50.820        40
50.830        47
50.840        33
50.850        47
50.860        33
50.870        27
50.880        53
50.890        13
50.900        47
50.910        13
50.920         7
50.930        33
50.940        47
50.950        27
50.960        53
50.970        27
50.980        33
50.990        60
51.000         0
51.010        40
51.020        20
51.030        27
51.040        40
51.050        27
51.060        47
51.070        20
51.080        47
51.090        20
51.100        27
51.110        27
51.120        13
51.130        13
51.140        47
51.150        13
51.160        27
51.170        53
51.180        53
51.190        27
51.200        20
51.210        20
51.220        13
51.230        20
51.240        20
51.250        33
51.260        67
51.270        53
51.280        27
51.290        13
51.300        33
51.310        20
51.320        33
51.330        47
51.340        47
51.350        47
51.360        27
51.370        27
51.380         7
51.390        20
51.400        13
51.410        40
51.420        47
51.430         7
51.440        47
51.450        13
51.460        20
51.470        20
51.480        47
51.490        27
51.500        33
51.510        47
51.520        40
51.530         7
51.540        47
51.550        40
51.560        33
51.570        40
51.580        60
51.590        33
51.600        33
51.610        33
51.620        40
51.630        27
51.640         7
51.650        33
51.660        27
51.670        20
51.680        33
51.690        40
51.700        33
51.710        60
51.720        47
51.730        40
51.740        20
51.750        33
51.760        27
51.770        67
51.780        13
51.790        33
51.800        40
51.810        27
51.820        40
51.830        27
51.840        47
51.850        33
51.860        20
51.870        40
51.880        60
51.890        27
51.900        53
51.910        40
51.920        53
51.930        53
51.940        33
51.950        40
51.960        33
51.970        27
51.980        67
51.990        53
52.000        27
52.010        40
52.020        67
52.030        33
52.040        47
52.050        47
52.060        80
52.070        53
52.080         7
52.090        20
52.100        27
52.110        60
52.120        60
52.130        40
52.140        20
52.150        40
52.160        27
52.170        47
52.180        60
52.190        87
52.200        53
52.210        53
52.220        13
52.230       100
52.240        73
52.250       107
52.260        80
52.270        40
52.280        40
52.290        93
52.300       113
52.310        67
52.320        53
52.330        73
52.340        67
52.350       100
52.360        87
52.370       107
52.380       107
52.390       193
52.400        73
52.410       127
52.420       140
52.430       120
52.440       193
52.450       160
52.460       213
52.470       193
52.480       287
52.490       247
52.500       380
52.510       433
52.520       493
52.530       613
52.540       820
52.550       906
52.560      1126
52.570      1379
52.580      1506
52.590      1579
52.600      1839
52.610      2033
52.620      1466
52.630      1753
52.640      1506
52.650      1386
52.660      1293
52.670      1166
52.680      1126
52.690      1353
52.700      1346
52.710      1759
52.720      1733
52.730      2119
52.740      1793
52.750      1599
52.760      1433
52.770      1313
52.780       973
52.790       926
52.800       613
52.810       506
52.820       573
52.830       586
52.840       566
52.850       553
52.860       593
52.870       453
52.880       486
52.890       446
52.900       333
52.910       233
52.920       213
52.930       233
52.940       120
52.950        67
52.960       133
52.970        80
52.980        73
52.990        87
53.000        87
53.010        73
53.020       100
53.030        60
53.040       100
53.050        93
53.060        73
53.070        47
53.080        53
53.090        93
53.100        80
53.110        40
53.120        60
53.130        53
53.140        53
53.150        40
53.160        47
53.170        60
53.180        47
53.190        53
53.200        47
53.210        47
53.220        33
53.230        33
53.240        53
53.250        73
53.260        33
53.270        27
53.280        33
53.290        47
53.300        60
53.310        67
53.320        40
53.330        33
53.340        40
53.350        53
53.360        40
53.370        27
53.380        73
53.390        20
53.400        67
53.410        40
53.420        33
53.430        40
53.440        27
53.450         7
53.460        33
53.470        33
53.480        47
53.490        20
53.500        20
53.510        13
53.520        53
53.530        20
53.540        53
53.550        20
53.560        33
53.570        40
53.580        27
53.590        27
53.600        47
53.610        20
53.620        47
53.630        20
53.640        47
53.650        47
53.660        40
53.670        33
53.680        33
53.690        13
53.700        27
53.710        27
53.720        20
53.730        13
53.740        27
53.750        20
53.760        47
53.770        27
53.780        53
53.790        33
53.800        47
53.810        47
53.820        33
53.830        33
53.840        40
53.850        33
53.860        20
53.870         7
53.880        27
53.890        27
53.900        47
53.910        20
53.920        33
53.930        20
53.940        13
53.950        20
53.960        27
53.970        47
53.980        47
53.990        40
54.000        33
54.010        13
54.020        20
54.030        40
54.040        13
54.050        47
54.060        33
54.070        27
54.080        47
54.090        13
54.100        33
54.110         7
54.120        27
54.130        27
54.140        27
54.150        20
54.160        40
54.170        20
54.180        20
54.190        47
54.200        20
54.210         7
54.220        20
54.230        33
54.240        27
54.250        20
54.260        27
54.270        13
54.280        20
54.290        20
54.300        20
54.310        33
54.320        40
54.330        40
54.340        20
54.350        27
54.360        47
54.370        27
54.380        27
54.390        40
54.400        53
54.410        13
54.420        33
54.430        27
54.440        47
54.450        13
54.460        33
54.470        27
54.480        47
54.490        53
54.500        13
54.510         7
54.520        20
54.530        33
54.540        13
54.550        27
54.560        13
54.570        40
54.580        40
54.590        13
54.600        27
54.610        20
54.620        40
54.630         7
54.640        47
54.650        27
54.660        47
54.670        20
54.680        60
54.690        67
54.700        13
54.710        20
54.720        20
54.730        67
54.740        20
54.750        20
54.760        47
54.770        27
54.780        27
54.790        40
54.800        47
54.810        40
54.820        47
54.830        13
54.840        33
54.850        33
54.860        20
54.870        33
54.880        33
54.890        27
54.900        27
54.910        47
54.920        13
54.930        33
54.940        47
54.950        47
54.960        40
54.970        40
54.980        47
54.990        40
55.000        13
55.010        53
55.020        47
55.030        13
55.040         7
55.050        47
55.060        27
55.070        20
55.080        13
55.090        13
55.100        33
55.110        20
55.120         7
55.130        13
55.140        53
55.150        13
55.160        53
55.170        47
55.180        20
55.190        47
55.200        13
55.210        40
55.220        33
55.230        33
55.240        20
55.250        13
55.260        13
55.270        13
55.280        33
55.290        13
55.300        40
55.310        13
55.320        20
55.330        27
55.340        40
55.350        27
55.360        27
55.370        27
55.380        33
55.390        27
55.400        27
55.410        33
55.420        33
55.430        20
55.440        13
55.450        33
55.460        13
55.470        20
55.480        53
55.490        27
55.500        13
55.510         7
55.520        40
55.530        13
55.540        27
55.550         7
55.560        20
55.570        47
55.580        27
55.590        40
55.600        33
55.610        47
55.620        33
55.630        13
55.640        20
55.650        33
55.660        27
55.670        27
55.680        33
55.690        67
55.700        13
55.710        20
55.720        40
55.730        27
55.740        20
55.750        13
55.760        13
55.770        13
55.780         7
55.790        33
55.800        33
55.810        20
55.820        40
55.830        13
55.840        13
55.850        13
55.860         7
55.870        33
55.880        27
55.890        27
55.900        40
55.910        20
55.920        47
55.930        13
55.940        27
55.950        40
55.960        13
55.970        20
55.980        47
55.990        20
56.000        20
56.010        33
56.020        13
56.030        40
56.040        27
56.050        47
56.060        40
56.070        20
56.080        33
56.090        20
56.100         0
56.110        40
56.120        33
56.130        20
56.140        13
56.150        13
56.160        40
56.170        33
56.180         7
56.190        33
56.200        27
56.210        60
56.220        47
56.230        20
56.240         7
56.250        67
56.260        53
56.270        47
56.280        67
56.290        13
56.300        33
56.310        13
56.320         7
56.330        20
56.340        27
56.350        13
56.360        27
56.370        33
56.380        60
56.390        40
56.400        47
56.410        33
56.420        20
56.430        47
56.440        27
56.450        27
56.460        27
56.470        33
56.480        47
56.490        40
56.500        73
56.510        53
56.520        40
56.530        60
56.540        73
56.550        87
56.560       113
56.570       107
56.580        93
56.590       140
56.600       107
56.610       200
56.620       167
56.630       133
56.640       160
56.650       127
56.660       293
56.670       273
56.680       253
56.690       260
56.700       247
56.710       147
56.720       220
56.730       240
56.740       273
56.750       233
56.760       253
56.770       260
56.780       207
56.790       240
56.800       233
56.810       233
56.820       187
56.830       233
56.840       247
56.850       147
56.860       233
56.870       167
56.880       140
56.890        93
56.900       167
56.910       133
56.920        93
56.930       153
56.940        87
56.950        67
56.960        53
56.970       140
56.980        40
56.990        73
57.000        60
57.010        93
57.020        67
57.030        60
57.040        53
57.050        47
57.060        67
57.070        60
57.080        60
57.090        53
57.100        60
57.110        27
57.120        47
57.130        27
57.140        87
57.150        27
57.160        33
57.170        40
57.180        47
57.190        40
57.200        13
57.210        27
57.220        33
57.230        60
57.240        33
57.250        27
57.260        47
57.270        47
57.280        40
57.290        33
57.300        40
57.310        40
57.320        33
57.330        60
57.340        47
57.350        20
57.360        27
57.370        53
57.380        27
57.390        53
57.400        13
57.410        27
57.420        27
57.430        53
57.440        33
57.450        47
57.460         7
57.470        33
57.480        33
57.490        27
57.500        27
57.510        40
57.520        73
57.530        33
57.540        27
57.550        47
57.560        40
57.570        40
57.580        40
57.590        13
57.600        33
57.610        27
57.620        40
57.630        27
57.640        40
57.650        47
57.660         7
57.670        27
57.680         7
57.690        13
57.700        27
57.710        33
57.720        13
57.730        13
57.740        33
57.750        40
57.760        13
57.770        20
57.780        33
57.790        13
57.800        40
57.810        20
57.820        53
57.830        33
57.840        27
57.850        13
57.860        20
57.870        27
57.880        20
57.890        27
57.900        20
57.910        13
57.920        27
57.930        40
57.940         0
57.950        20
57.960        47
57.970        27
57.980        33
57.990        47
58.000        33
58.010        13
58.020        33
58.030         7
58.040        27
58.050        33
58.060        40
58.070        13
58.080        47
58.090        13
58.100         7
58.110        33
58.120        20
58.130        27
58.140        27
58.150        13
58.160        13
58.170        27
58.180        33
58.190        47
58.200        67
58.210        47
58.220        20
58.230        27
58.240        27
58.250        20
58.260        13
58.270        20
58.280        20
58.290        33
58.300        33
58.310        20
58.320        47
58.330        40
58.340        27
58.350        13
58.360        40
58.370        60
58.380        40
58.390        33
58.400        20
58.410        13
58.420         0
58.430        13
58.440        13
58.450        13
58.460        40
58.470        33
58.480        40
58.490        33
58.500         7
58.510         7
58.520        20
58.530        20
58.540        40
58.550        20
58.560        20
58.570        13
58.580        33
58.590        13
58.600        20
58.610        27
58.620        13
58.630        33
58.640        27
58.650        27
58.660        13
58.670        13
58.680        13
58.690        33
58.700         7
58.710        33
58.720         7
58.730        20
58.740         7
58.750         0
58.760        47
58.770        13
58.780         7
58.790        20
58.800        20
58.810        20
58.820        20
58.830         7
58.840        13
58.850        20
58.860         7
58.870        27
58.880        27
58.890        20
58.900        20
58.910        27
58.920        27
58.930         0
58.940        33
58.950        13
58.960        13
58.970        13
58.980        33
58.990        27
59.000        13
59.010        13
59.020        53
59.030        13
59.040         7
59.050        20
59.060        20
59.070        33
59.080         0
59.090        40
59.100        27
59.110         7
59.120        47
59.130        33
59.140        47
59.150        33
59.160        20
59.170        33
59.180        27
59.190        40
59.200        53
59.210        40
59.220        20
59.230        53
59.240        13
59.250        20
59.260        13
59.270        47
59.280        20
59.290        20
59.300        33
59.310        40
59.320        20
59.330        20
59.340        33
59.350        20
59.360        20
59.370        20
59.380        47
59.390        20
59.400        20
59.410         7
59.420        27
59.430        13
59.440         7
59.450        13
59.460        40
59.470         7
59.480        27
59.490        13
59.500        13
59.510        40
59.520         7
59.530        20
59.540        13
59.550        33
59.560        20
59.570        20
59.580        13
59.590         0
59.600        13
59.610        20
59.620        33
59.630        13
59.640        20
59.650        47
59.660        20
59.670        47
59.680        13
59.690        13
59.700        47
59.710        33
59.720         7
59.730        47
59.740        27
59.750        60
59.760        33
59.770        20
59.780         0
59.790        20
59.800        40
59.810        33
59.820        13
59.830        33
59.840        20
59.850         0
59.860        27
59.870        40
59.880        33
59.890        40
59.900        47
59.910         7
59.920         7
59.930        20
59.940        27
59.950        27
59.960         7
59.970        33
59.980         7
59.990        13
60.000        13
