20.000        47
20.010        33
20.020        47
20.030        33
20.040        87
20.050        60
20.060        53
20.070        40
20.080        53
20.090        53
20.100        27
20.110        60
20.120        73
20.130        40
20.140        40
20.150        67
20.160        13
20.170        53
20.180        13
20.190        60
20.200        33
20.210        60
20.220        33
20.230        27
20.240        40
20.250        47
20.260        53
20.270        47
20.280        47
20.290        53
20.300        60
20.310        33
20.320        40
20.330        27
20.340        47
20.350        47
20.360        53
20.370        40
20.380        67
20.390        53
20.400        47
20.410        40
20.420        27
20.430        33
20.440        67
20.450        33
20.460        40
20.470        27
20.480        33
20.490        40
20.500        53
20.510        40
20.520         0
20.530        27
20.540        27
20.550        67
20.560        20
20.570        73
20.580        27
20.590        47
20.600        67
20.610        40
20.620        60
20.630        47
20.640        47
20.650        53
20.660        20
20.670        60
20.680        33
20.690        40
20.700        27
20.710        53
20.720        53
20.730        13
20.740        13
20.750        27
20.760        60
20.770        33
20.780        67
20.790        87
20.800        33
20.810        27
20.820        27
20.830        80
20.840        47
20.850        20
20.860        60
20.870        27
20.880        80
20.890        40
20.900        33
20.910        40
20.920        27
20.930        33
20.940        33
20.950        40
20.960        33
20.970        53
20.980        47
20.990        53
21.000        33
21.010        53
21.020        40
21.030        60
21.040        53
21.050        27
21.060        27
21.070        40
21.080        67
21.090        33
21.100        53
21.110         7
21.120        33
21.130        33
21.140        67
21.150        13
21.160        27
21.170        33
21.180        40
21.190        40
21.200        40
21.210        20
21.220        47
21.230        27
21.240        20
21.250        47
21.260        33
21.270        40
21.280        13
21.290        40
21.300        53
21.310        53
21.320        33
21.330        53
21.340        47
21.350        53
21.360        40
21.370        20
21.380        40
21.390         7
21.400        20
21.410        13
21.420        20
21.430        47
21.440        33
21.450        40
21.460        33
21.470        13
21.480        53
21.490        20
21.500        47
21.510        67
21.520        13
21.530        33
21.540        40
21.550        53
21.560        40
21.570        53
21.580        67
21.590         7
21.600        73
21.610        40
21.620        33
21.630        40
21.640        60
21.650        20
21.660         7
21.670        40
21.680        20
21.690        33
21.700        47
21.710        33
21.720        47
21.730        40
21.740        40
21.750        20
21.760        47
21.770        67
21.780        33
21.790        60
21.800        47
21.810        40
21.820        47
21.830        47
21.840         7
21.850        47
21.860        67
21.870        33
21.880        20
21.890        40
21.900        47
21.910        67
21.920        27
21.930        27
21.940       107
21.950        27
21.960        40
21.970        40
21.980        27
21.990        73
22.000        33
22.010        40
22.020        53
22.030         7
22.040        20
22.050        40
22.060        80
22.070        47
22.080        27
22.090        40
22.100        13
22.110        40
22.120        40
22.130        53
22.140        80
22.150        13
22.160        47
22.170        60
22.180        33
22.190        33
22.200        27
22.210        20
22.220        13
22.230        33
22.240        40
22.250        20
22.260        53
22.270        53
22.280        40
22.290        47
22.300        27
22.310        67
22.320        20
22.330        40
22.340        47
22.350        20
22.360        40
22.370        47
22.380        53
22.390        40
22.400        60
22.410        80
22.420        40
22.430        33
22.440        60
22.450        40
22.460        20
22.470        13
22.480        27
22.490        33
22.500        13
22.510        20
22.520        53
22.530        53
22.540        67
22.550        27
22.560        80
22.570        33
22.580        33
22.590        67
22.600        33
22.610        27
22.620        27
22.630        47
22.640        53
22.650        40
22.660        33
22.670        20
22.680        40
22.690        60
22.700        33
22.710        20
22.720        53
22.730        27
22.740        47
22.750        47
22.760        33
22.770        47
22.780        13
22.790        40
22.800        40
22.810        40
22.820        80
22.830        27
22.840        47
22.850        60
22.860        20
22.870        33
22.880        33
22.890        20
22.900        13
22.910        13
22.920        53
22.930         0
22.940        13
22.950        33
22.960        87
22.970        27
22.980        13
22.990        33
23.000        20
23.010        27
23.020        13
23.030        27
23.040         7
23.050        20
23.060        40
23.070        27
23.080        47
23.090        33
23.100        53
23.110        33
23.120        20
23.130        53
23.140        20
23.150         7
23.160        20
23.170        20
23.180        53
23.190        47
23.200        33
23.210        60
23.220        27
23.230        13
23.240        40
23.250        33
23.260        40
23.270        53
23.280        27
23.290        27
23.300        47
23.310        33
23.320        40
23.330        67
23.340        33
23.350        27
23.360        27
23.370        33
23.380        20
23.390        20
23.400        13
23.410        40
23.420        47
23.430        27
23.440        33
23.450        33
23.460        20
23.470        33
23.480        27
23.490        27
23.500        33
23.510        53
23.520        53
23.530         0
23.540        20
23.550        53
23.560        27
23.570        27
23.580        27
23.590        53
23.600        33
23.610        33
23.620        20
23.630        33
23.640        47
23.650        33
23.660        27
23.670        73
23.680        13
23.690        53
23.700        27
23.710         7
23.720        20
23.730        27
23.740        20
23.750        33
23.760        27
23.770        53
23.780        40
23.790        27
23.800        40
23.810        73
23.820        27
23.830        47
23.840        53
23.850        20
23.860        20
23.870        13
23.880        20
23.890        40
23.900        47
23.910        13
23.920        47
23.930        20
23.940        67
23.950        33
23.960        33
23.970        20
23.980        20
23.990        47
24.000        47
24.010        27
24.020        13
24.030        13
24.040        27
24.050        60
24.060        20
24.070        47
24.080        60
24.090         7
24.100        27
24.110        20
24.120        40
24.130        47
24.140        47
24.150        27
24.160        20
24.170        33
24.180        20
24.190         0
24.200        33
24.210        20
24.220        20
24.230        40
24.240        33
24.250        40
24.260        27
24.270        53
24.280        20
24.290        67
24.300        47
24.310         7
24.320        13
24.330        20
24.340        20
24.350        27
24.360        40
24.370        53
24.380        27
24.390        13
24.400        40
24.410        47
24.420        53
24.430        13
24.440        40
24.450        80
24.460        33
24.470        20
24.480        33
24.490        20
24.500        40
24.510        13
24.520        13
24.530        47
24.540        60
24.550         7
24.560        60
24.570        40
24.580        13
24.590        53
24.600        33
24.610        27
24.620        20
24.630        47
24.640        33
24.650        33
24.660        53
24.670        47
24.680        27
24.690        47
24.700        47
24.710        27
24.720         7
24.730        13
24.740        27
24.750        33
24.760        40
24.770        13
24.780        60
24.790        53
24.800        27
24.810        67
24.820        47
24.830        47
24.840        13
24.850        40
24.860        67
24.870        33
24.880        60
24.890        33
24.900        40
24.910        33
24.920        40
24.930        27
24.940        40
24.950        20
24.960        20
24.970        13
24.980        40
24.990        33
25.000        73
25.010        40
25.020        20
25.030        40
25.040        53
25.050        33
25.060        33
25.070        27
25.080        27
25.090        27
25.100        40
25.110        27
25.120        33
25.130        33
25.140        40
25.150        20
25.160        13
25.170        33
25.180        27
25.190        33
25.200        53
25.210        47
25.220        53
25.230        13
25.240        27
25.250        40
25.260        40
25.270        27
25.280        33
25.290        13
25.300        27
25.310        27
25.320        47
25.330        60
25.340        20
25.350        53
25.360        47
25.370        20
25.380        60
25.390        20
25.400        13
25.410        40
25.420        40
25.430        33
25.440        40
25.450        60
25.460        33
25.470        53
25.480        73
25.490       100
25.500        53
25.510       147
25.520       213
25.530       240
25.540       280
25.550       373
25.560       433
25.570       327
25.580       400
25.590       400
25.600       300
25.610       273
25.620       247
25.630       220
25.640       193
25.650       220
25.660       133
25.670       100
25.680        60
25.690        60
25.700        53
25.710        87
25.720        33
25.730        47
25.740        27
25.750        27
25.760        40
25.770        47
25.780        27
25.790        27
25.800        20
25.810        47
25.820        53
25.830         0
25.840        33
25.850        27
25.860        33
25.870        47
25.880        33
25.890        33
25.900        20
25.910        40
25.920        13
25.930        47
25.940        53
25.950        27
25.960        33
25.970        33
25.980        33
25.990        40
26.000        33
26.010        20
26.020        13
26.030        20
26.040        33
26.050        47
26.060        20
26.070        13
26.080        53
26.090        53
26.100        13
26.110        20
26.120         7
26.130        27
26.140        60
26.150         7
26.160         7
26.170        33
26.180        40
26.190        33
26.200        33
26.210        13
26.220        20
26.230        40
26.240        40
26.250        47
26.260        13
26.270        20
26.280        13
26.290        33
26.300        33
26.310        13
26.320        47
26.330        40
26.340        20
26.350        27
26.360        20
26.370        40
26.380        20
26.390        47
26.400        33
26.410        33
26.420        47
26.430        13
26.440        13
26.450         7
26.460        20
26.470         0
26.480        40
26.490        40
26.500        20
26.510        27
26.520        33
26.530        20
26.540        47
26.550        40
26.560        27
26.570        47
26.580         7
26.590        20
26.600        40
26.610        13
26.620        27
26.630        27
26.640        27
26.650        47
26.660        33
26.670        20
26.680        13
26.690        27
26.700        27
26.710         0
26.720        27
26.730        27
26.740        47
26.750        20
26.760         7
26.770        47
26.780        13
26.790        27
26.800        33
26.810        47
26.820        47
26.830        13
26.840        27
26.850        20
26.860        27
26.870        20
26.880        60
26.890        20
26.900        20
26.910        40
26.920        27
26.930        27
26.940        20
26.950        47
26.960        33
26.970        27
26.980        27
26.990        13
27.000        33
27.010        20
27.020        33
27.030        33
27.040        20
27.050        20
27.060        20
27.070        13
27.080        33
27.090        13
27.100        20
27.110        47
27.120        53
27.130        20
27.140        20
27.150         7
27.160        33
27.170        13
27.180        27
27.190        47
27.200        20
27.210        33
27.220         0
27.230        40
27.240        20
27.250        13
27.260        20
27.270        13
27.280        40
27.290        20
27.300        20
27.310        60
27.320        13
27.330        67
27.340         7
27.350        40
27.360        13
27.370        47
27.380        27
27.390        27
27.400        20
27.410        47
27.420        27
27.430        67
27.440        47
27.450        20
27.460        20
27.470        20
27.480        20
27.490         7
27.500        20
27.510        33
27.520        20
27.530        27
27.540        33
27.550        13
27.560        33
27.570         7
27.580         7
27.590        27
27.600        13
27.610         0
27.620        27
27.630        27
27.640         7
27.650        27
27.660        27
27.670        33
27.680        20
27.690         7
27.700        13
27.710        13
27.720         7
27.730        13
27.740        27
27.750        20
27.760        27
27.770        53
27.780        20
27.790        27
27.800        53
27.810        20
27.820        27
27.830        13
27.840        20
27.850        20
27.860        27
27.870        27
27.880        27
27.890        40
27.900        27
27.910        60
27.920        20
27.930        40
27.940        33
27.950        40
27.960        67
27.970        33
27.980        40
27.990        20
28.000         7
28.010        33
28.020        13
28.030        13
28.040        40
28.050        27
28.060        27
28.070        33
28.080        60
28.090        27
28.100        53
28.110        13
28.120        27
28.130        20
28.140        13
28.150        27
28.160        40
28.170        27
28.180        40
28.190        33
28.200        40
28.210        47
28.220        40
28.230         0
28.240        20
28.250        13
28.260        27
28.270        40
28.280        20
28.290        87
28.300        13
28.310        47
28.320        40
28.330        27
28.340        20
28.350        13
28.360        20
28.370        27
28.380        20
28.390        60
28.400         7
28.410        40
28.420        27
28.430        20
28.440        27
28.450        20
28.460        13
28.470        20
28.480        33
28.490         0
28.500        20
28.510        13
28.520         7
28.530        13
28.540        67
28.550        20
28.560        27
28.570        20
28.580         7
28.590        33
28.600        33
28.610        47
28.620        27
28.630        40
28.640        33
28.650        33
28.660        27
28.670         7
28.680        33
28.690        13
28.700        47
28.710        33
28.720        20
28.730        47
28.740        27
28.750        20
28.760        27
28.770        13
28.780        20
28.790        40
28.800        33
28.810        27
28.820        33
28.830        20
28.840        80
28.850        33
28.860        27
28.870        13
28.880         7
28.890        33
28.900        33
28.910        20
28.920        40
28.930         7
28.940        20
28.950        27
28.960        20
28.970        20
28.980        40
28.990        33
29.000        27
29.010        27
29.020        27
29.030        20
29.040        33
29.050        40
29.060        33
29.070        27
29.080        47
29.090        27
29.100        13
29.110        47
29.120        27
29.130        40
29.140        33
29.150        33
29.160        20
29.170        33
29.180        20
29.190        20
29.200        20
29.210        80
29.220         0
29.230        27
29.240        33
29.250        27
29.260        60
29.270        33
29.280        20
29.290        33
29.300        47
29.310        27
29.320        47
29.330        33
29.340        33
29.350        53
29.360        40
29.370        33
29.380        40
29.390        53
29.400        40
29.410        27
29.420        53
29.430        40
29.440        40
29.450        47
29.460        20
29.470        33
29.480        27
29.490        20
29.500         7
29.510        33
29.520        27
29.530         7
29.540        27
29.550         7
29.560        53
29.570         7
29.580        53
29.590        33
29.600        53
29.610        27
29.620        27
29.630        20
29.640        40
29.650         7
29.660        33
29.670        20
29.680        13
29.690        27
29.700         7
29.710        33
29.720        13
29.730        20
29.740        20
29.750        40
29.760        27
29.770         7
29.780         0
29.790        47
29.800        20
29.810        20
29.820        33
29.830        33
29.840        40
29.850        20
29.860        33
29.870        20
29.880        33
29.890        27
29.900        47
29.910        27
29.920        13
29.930        13
29.940        13
29.950        20
29.960         7
29.970        13
29.980         0
29.990        33
30.000        20
30.010         7
30.020        13
30.030        47
30.040        33
30.050        13
30.060        13
30.070        20
30.080        20
30.090         7
30.100        27
30.110        27
30.120        33
30.130        13
30.140         7
30.150        40
30.160        13
30.170        13
30.180         7
30.190        20
30.200        33
30.210        40
30.220        33
30.230        20
30.240        40
30.250         7
30.260        13
30.270         7
30.280         7
30.290        27
30.300        20
30.310        13
30.320        20
30.330        20
30.340        27
30.350        33
30.360        33
30.370        40
30.380         7
30.390        13
30.400        27
30.410        20
30.420         7
30.430         7
30.440        40
30.450        27
30.460        20
30.470        20
30.480        47
30.490        27
30.500        33
30.510        27
30.520         7
30.530        13
30.540        20
30.550        13
30.560        27
30.570         0
30.580        33
30.590        33
30.600        13
30.610         7
30.620        20
30.630        40
30.640        20
30.650        20
30.660        27
30.670        20
30.680        20
30.690         7
30.700        53
30.710        20
30.720        13
30.730        33
30.740        27
30.750        27
30.760        33
30.770        13
30.780        40
30.790        20
30.800        40
30.810        13
30.820        47
30.830        47
30.840        20
30.850        13
30.860        20
30.870        40
30.880        27
30.890        33
30.900         7
30.910        13
30.920        20
30.930         7
30.940        13
30.950        13
30.960        27
30.970        67
30.980        27
30.990        33
31.000        13
31.010        53
31.020        27
31.030        13
31.040        40
31.050        20
31.060        27
31.070        20
31.080        33
31.090        13
31.100        27
31.110        40
31.120        13
31.130        27
31.140        13
31.150        13
31.160        40
31.170        13
31.180        47
31.190        13
31.200        33
31.210        27
31.220        60
31.230        33
31.240        53
31.250        40
31.260        27
31.270        53
31.280        33
31.290        47
31.300        33
31.310        20
31.320        60
31.330        87
31.340        80
31.350        73
31.360        73
31.370        20
31.380        53
31.390        80
31.400        40
31.410        67
31.420        27
31.430        47
31.440        33
31.450        27
31.460        20
31.470        53
31.480         7
31.490        27
31.500        27
31.510        40
31.520        20
31.530        33
31.540        27
31.550        47
31.560        20
31.570         7
31.580        13
31.590        13
31.600         7
31.610        13
31.620        13
31.630         0
31.640        20
31.650        20
31.660        13
31.670        13
31.680        27
31.690        13
31.700         0
31.710        27
31.720        13
31.730        20
31.740        13
31.750        20
31.760        20
31.770        13
31.780        13
31.790        13
31.800        40
31.810        33
31.820        13
31.830        20
31.840        20
31.850         7
31.860        40
31.870        13
31.880         7
31.890        33
31.900        13
31.910        20
31.920        40
31.930         7
31.940        13
31.950        27
31.960        40
31.970        27
31.980        13
31.990         7
32.000        20
32.010        33
32.020        13
32.030        40
32.040         7
32.050         7
32.060        20
32.070        33
32.080         7
32.090         0
32.100         0
32.110         7
32.120        27
32.130        27
32.140        40
32.150        27
32.160        33
32.170         7
32.180         7
32.190        27
32.200        27
32.210        20
32.220        13
32.230        20
32.240        40
32.250        33
32.260        47
32.270        20
32.280        20
32.290        20
32.300         7
32.310        20
32.320        27
32.330        13
32.340         7
32.350        40
32.360         7
32.370        20
32.380        33
32.390        13
32.400         7
32.410        20
32.420         7
32.430        13
32.440        33
32.450        20
32.460         7
32.470        20
32.480        27
32.490         7
32.500        40
32.510         0
32.520        13
32.530        20
32.540        20
32.550        40
32.560        27
32.570        20
32.580        27
32.590        47
32.600        13
32.610        13
32.620        13
32.630        20
32.640        20
32.650         7
32.660         7
32.670         0
32.680        20
32.690        13
32.700        20
32.710        33
32.720        40
32.730        27
32.740        20
32.750        40
32.760        27
32.770        13
32.780        27
32.790        20
32.800        13
32.810        13
32.820        20
32.830        20
32.840        47
32.850        20
32.860         7
32.870        13
32.880        13
32.890         7
32.900        40
32.910         7
32.920        13
32.930        33
32.940        13
32.950        13
32.960         7
32.970        20
32.980        13
32.990        20
33.000        27
33.010        40
33.020         7
33.030         7
33.040        20
33.050        13
33.060        13
33.070        33
33.080        20
33.090        20
33.100        20
33.110        27
33.120        27
33.130        27
33.140         7
33.150        20
33.160         0
33.170        13
33.180        27
33.190        20
33.200         7
33.210        33
33.220        20
33.230         7
33.240         7
33.250         7
33.260        20
33.270         7
33.280         7
33.290        27
33.300        13
33.310        33
33.320        27
33.330         7
33.340        27
33.350        13
33.360         7
33.370         7
33.380        53
33.390         7
33.400        20
33.410        27
33.420        33
33.430         7
33.440        27
33.450        40
33.460         7
33.470         7
33.480        13
33.490        13
33.500        20
33.510         7
33.520        20
33.530        33
33.540         0
33.550        13
33.560         7
33.570        27
33.580        13
33.590        20
33.600        20
33.610        47
33.620        13
33.630        33
33.640        27
33.650        27
33.660        20
33.670        27
33.680        20
33.690        20
33.700        20
33.710        33
33.720        20
33.730         0
33.740        20
33.750        40
33.760        13
33.770        13
33.780        13
33.790         7
33.800         7
33.810        20
33.820         7
33.830        27
33.840        13
33.850       153
33.860        20
33.870         7
33.880        13
33.890        13
33.900        13
33.910         7
33.920        13
33.930        20
33.940         7
33.950         7
33.960        33
33.970        13
33.980        53
33.990        13
34.000        27
34.010        33
34.020         0
34.030        27
34.040        20
34.050        20
34.060        20
34.070        13
34.080        20
34.090        20
34.100         7
34.110        13
34.120        20
34.130         0
34.140        27
34.150         7
34.160        13
34.170        27
34.180        13
34.190         7
34.200         7
34.210        20
34.220        20
34.230        13
34.240         7
34.250        13
34.260        13
34.270         7
34.280        13
34.290         7
34.300        33
34.310        27
34.320        33
34.330        27
34.340        33
34.350        20
34.360        33
34.370        27
34.380        20
34.390        13
34.400         0
34.410        13
34.420        40
34.430        20
34.440        20
34.450         0
34.460        40
34.470        47
34.480         7
34.490        13
34.500        33
34.510        27
34.520        33
34.530        40
34.540        20
34.550        27
34.560        13
34.570         7
34.580        27
34.590         7
34.600        13
34.610        13
34.620        33
34.630         0
34.640        13
34.650        27
34.660        13
34.670        40
34.680         7
34.690        13
34.700        20
34.710        13
34.720         7
34.730        13
34.740         7
34.750        20
34.760        20
34.770        27
34.780        20
34.790        13
34.800         7
34.810        13
34.820        13
34.830        20
34.840         7
34.850        40
34.860        13
34.870        13
34.880        13
34.890        27
34.900        13
34.910        27
34.920         7
34.930        13
34.940        20
34.950         0
34.960        33
34.970        27
34.980        20
34.990        27
35.000        33
35.010        27
35.020        20
35.030        13
35.040        13
35.050        33
35.060         7
35.070        33
35.080         7
35.090        33
35.100        20
35.110        13
35.120        13
35.130        13
35.140         0
35.150        27
35.160        20
35.170        27
35.180        40
35.190         0
35.200        13
35.210        20
35.220         7
35.230        20
35.240        13
35.250        13
35.260        20
35.270        13
35.280        13
35.290        27
35.300        27
35.310         0
35.320        13
35.330        13
35.340        33
35.350        13
35.360        13
35.370        20
35.380         0
35.390        20
35.400        33
35.410         7
35.420        33
35.430         0
35.440         0
35.450        13
35.460        20
35.470        13
35.480        13
35.490         0
35.500        27
35.510        13
35.520        13
35.530        13
35.540         7
35.550         7
35.560        27
35.570        20
35.580         7
35.590        13
35.600        27
35.610        13
35.620        60
35.630        40
35.640        13
35.650        20
35.660        20
35.670        20
35.680        13
35.690        33
35.700         7
35.710         7
35.720        13
35.730        20
35.740        13
35.750        27
35.760        20
35.770         7
35.780         7
35.790        20
35.800         7
35.810        27
35.820        20
35.830        40
35.840        27
35.850         7
35.860         7
35.870        27
35.880        13
35.890         7
35.900        20
35.910        13
35.920        20
35.930        13
35.940        27
35.950        33
35.960        20
35.970        27
35.980        20
35.990        40
36.000        33
36.010        13
36.020        27
36.030        13
36.040        13
36.050        13
36.060        20
36.070        20
36.080        20
36.090         0
36.100         7
36.110        27
36.120         7
36.130        20
36.140        20
36.150         0
36.160         7
36.170        13
36.180         7
36.190        27
36.200        13
36.210        13
36.220         0
36.230        40
36.240        33
36.250         7
36.260        27
36.270         7
36.280         7
36.290        27
36.300        13
36.310        13
36.320        27
36.330        13
36.340        47
36.350        20
36.360         7
36.370        33
36.380        27
36.390        20
36.400        13
36.410        20
36.420         7
36.430        13
36.440        20
36.450         7
36.460        13
36.470         7
36.480        20
36.490        27
36.500        13
36.510        20
36.520        27
36.530         0
36.540        20
36.550        27
36.560        13
36.570        13
36.580        20
36.590         7
36.600         7
36.610        40
36.620        13
36.630        33
36.640         7
36.650        13
36.660         0
36.670        13
36.680        13
36.690        20
36.700        13
36.710        20
36.720        20
36.730        27
36.740        20
36.750        13
36.760        13
36.770         0
36.780        20
36.790         7
36.800        27
36.810        27
36.820         7
36.830         0
36.840         0
36.850         7
36.860        27
36.870        20
36.880         7
36.890        20
36.900         7
36.910         7
36.920        33
36.930         7
36.940        13
36.950         0
36.960        13
36.970        13
36.980        27
36.990        20
37.000         7
37.010         7
37.020         7
37.030        33
37.040         0
37.050        27
37.060         7
37.070        40
37.080        27
37.090        20
37.100        13
37.110        40
37.120         7
37.130         7
37.140        13
37.150        47
37.160        20
37.170        13
37.180        13
37.190         0
37.200         7
37.210         7
37.220         7
37.230        20
37.240         7
37.250         7
37.260         7
37.270         7
37.280        20
37.290         7
37.300         7
37.310        27
37.320        40
37.330         7
37.340        20
37.350        20
37.360        13
37.370        33
37.380        33
37.390        47
37.400         7
37.410        33
37.420        20
37.430        33
37.440        20
37.450        33
37.460        27
37.470        27
37.480        27
37.490        13
37.500        13
37.510        20
37.520         7
37.530         0
37.540         7
37.550         7
37.560        13
37.570        13
37.580        27
37.590        60
37.600        13
37.610        13
37.620        40
37.630         7
37.640        27
37.650        13
37.660        27
37.670        13
37.680        13
37.690        33
37.700        27
37.710        53
37.720        13
37.730        13
37.740        27
37.750        27
37.760        27
37.770         0
37.780         0
37.790        47
37.800        20
37.810         7
37.820        20
37.830        20
37.840        40
37.850        13
37.860        27
37.870        27
37.880        33
37.890         7
37.900        20
37.910        40
37.920        27
37.930        33
37.940        13
37.950         7
37.960        27
37.970        13
37.980         7
37.990        13
38.000        20
38.010        13
38.020        33
38.030         7
38.040        20
38.050        33
38.060        40
38.070        13
38.080        13
38.090         7
38.100        47
38.110        33
38.120        13
38.130        13
38.140        13
38.150        53
38.160         7
38.170        13
38.180        27
38.190        27
38.200         7
38.210         7
38.220        47
38.230        13
38.240         7
38.250        20
38.260        40
38.270        13
38.280        33
38.290        27
38.300        20
38.310        27
38.320        13
38.330        33
38.340       107
38.350        53
38.360        33
38.370        27
38.380        13
38.390        47
38.400        27
38.410        33
38.420        53
38.430        20
38.440        40
38.450       113
38.460        73
38.470        40
38.480       100
38.490       107
38.500       100
38.510        87
38.520       173
38.530       100
38.540       133
38.550       293
38.560       260
38.570       267
38.580       273
38.590       293
38.600       347
38.610       426
38.620       506
38.630       593
38.640       593
38.650       740
38.660       900
38.670       786
38.680       826
38.690       893
38.700       906
38.710       840
38.720       860
38.730       920
38.740       740
38.750       566
38.760       560
38.770       393
38.780       500
38.790       433
38.800       446
38.810       440
38.820       267
38.830       313
38.840       187
38.850       213
38.860       160
38.870       107
38.880        87
38.890        93
38.900        47
38.910        53
38.920        40
38.930        53
38.940        40
38.950        33
38.960        53
38.970        60
38.980        47
38.990        13
39.000        47
39.010        27
39.020        27
39.030        13
39.040        20
39.050        20
39.060        33
39.070        20
39.080         0
39.090        27
39.100        33
39.110        13
39.120        40
39.130        27
39.140        47
39.150        33
39.160        27
39.170        47
39.180        13
39.190        60
39.200        27
39.210         7
39.220        33
39.230        33
39.240        27
39.250        33
39.260         7
39.270         7
39.280        27
39.290        13
39.300        40
39.310         7
39.320        47
39.330        40
39.340         7
39.350        13
39.360        13
39.370        47
39.380        80
39.390        40
39.400        27
39.410        13
39.420        13
39.430        20
39.440        33
39.450        20
39.460         7
39.470         0
39.480         7
39.490        47
39.500        20
39.510        13
39.520        20
39.530        27
39.540        20
39.550        27
39.560        13
39.570        27
39.580        40
39.590        20
39.600        27
39.610        40
39.620        13
39.630        33
39.640        20
39.650        20
39.660        33
39.670        27
39.680        13
39.690        20
39.700        13
39.710        33
39.720        13
39.730        27
39.740        13
39.750        33
39.760        33
39.770        20
39.780        20
39.790        13
39.800        27
39.810        20
39.820        40
39.830        27
39.840        20
39.850        20
39.860        27
39.870         7
39.880         7
39.890        20
39.900        20
39.910        13
39.920        20
39.930        13
39.940        13
39.950         7
39.960        33
39.970         7
39.980        20
39.990        20
40.000        20
40.010         0
40.020        27
40.030        13
40.040        20
40.050        27
40.060        13
40.070        13
40.080         0
40.090        40
40.100        40
40.110        20
40.120         7
40.130        33
40.140         0
40.150        13
40.160        27
40.170        20
40.180        13
40.190        13
40.200        27
40.210        20
40.220         7
40.230        33
40.240        27
40.250        13
40.260        27
40.270        13
40.280        20
40.290        27
40.300        13
40.310        20
40.320         7
40.330        27
40.340         0
40.350        13
40.360        33
40.370        20
40.380        20
40.390         0
40.400        13
40.410        27
40.420         7
40.430        27
40.440        20
40.450         7
40.460        27
40.470        27
40.480        20
40.490        27
40.500        27
40.510        33
40.520        27
40.530        33
40.540        20
40.550        20
40.560         7
40.570        20
40.580        20
40.590        47
40.600         7
40.610        13
40.620        13
40.630        27
40.640        20
40.650        20
40.660        20
40.670         7
40.680         7
40.690        20
40.700        27
40.710        27
40.720        13
40.730        20
40.740        53
40.750        53
40.760        27
40.770        20
40.780        53
40.790        27
40.800        27
40.810        13
40.820        20
40.830        40
40.840        60
40.850        33
40.860        40
40.870        53
40.880        53
40.890        73
40.900        47
40.910        73
40.920        73
40.930        93
40.940       120
40.950        73
40.960       120
40.970       113
40.980       160
40.990       140
41.000       127
41.010        67
41.020       167
41.030       147
41.040       120
41.050        93
41.060       180
41.070       120
41.080       100
41.090       140
41.100       133
41.110       113
41.120       133
41.130       107
41.140       100
41.150       113
41.160       160
41.170       153
41.180       147
41.190       133
41.200        80
41.210       153
41.220       133
41.230       113
41.240        80
41.250        60
41.260        47
41.270        60
41.280        73
41.290        60
41.300        80
41.310        67
41.320        60
41.330        67
41.340        47
41.350        53
41.360        40
41.370        53
41.380        73
41.390        47
41.400        27
41.410        20
41.420        27
41.430        33
41.440        47
41.450        20
41.460        53
41.470        20
41.480        27
41.490         0
41.500        47
41.510        20
41.520        27
41.530        20
41.540        27
41.550        20
41.560        20
41.570        33
41.580        13
41.590        33
41.600        33
41.610        40
41.620        13
41.630        33
41.640        13
41.650        33
41.660        20
41.670        27
41.680         7
41.690        27
41.700        27
41.710         7
41.720        40
41.730         0
41.740         7
41.750        27
41.760        13
41.770        33
41.780         0
41.790        27
41.800         7
41.810         7
41.820         7
41.830        27
41.840        27
41.850        13
41.860        20
41.870        33
41.880        20
41.890        53
41.900        33
41.910        27
41.920         7
41.930        13
41.940         0
41.950        33
41.960        33
41.970         7
41.980        13
41.990        13
42.000        33
42.010         0
42.020        33
42.030        13
42.040        20
42.050        20
42.060         0
42.070        27
42.080        20
42.090        33
42.100        13
42.110        13
42.120        27
42.130        40
42.140        33
42.150        20
42.160         0
42.170        13
42.180        20
42.190        20
42.200        67
42.210         7
42.220        27
42.230        53
42.240        20
42.250        27
42.260        20
42.270        13
42.280         0
42.290        33
42.300        13
42.310        40
42.320        27
42.330        33
42.340        20
42.350        27
42.360        13
42.370        40
42.380        13
42.390         7
42.400         0
42.410        13
42.420        20
42.430        33
42.440        27
42.450        33
42.460        13
42.470        20
42.480         0
42.490        13
42.500        40
42.510         7
42.520        20
42.530        13
42.540         7
42.550        33
42.560         0
42.570        40
42.580        13
42.590        27
42.600        33
42.610        20
42.620         7
42.630        13
42.640        20
42.650        20
42.660        13
42.670         7
42.680        20
42.690        27
42.700        27
42.710        33
42.720        13
42.730        13
42.740        40
42.750        13
42.760         7
42.770        13
42.780        60
42.790        27
42.800        13
42.810        20
42.820         7
42.830         7
42.840        13
42.850        13
42.860         7
42.870        27
42.880         7
42.890        20
42.900        20
42.910        27
42.920        13
42.930        20
42.940        13
42.950        27
42.960        13
42.970        13
42.980        27
42.990        27
43.000        13
43.010        20
43.020        33
43.030        33
43.040        33
43.050        20
43.060        27
43.070        27
43.080        27
43.090        20
43.100        20
43.110        20
43.120        33
43.130        47
43.140        20
43.150         7
43.160         0
43.170        33
43.180        20
43.190        27
43.200         7
43.210        27
43.220        33
43.230         0
43.240         7
43.250         7
43.260        27
43.270        20
43.280         7
43.290        47
43.300        47
43.310         7
43.320        33
43.330        20
43.340        13
43.350        13
43.360        20
43.370        13
43.380        27
43.390         0
43.400        27
43.410        27
43.420         7
43.430         7
43.440        13
43.450        13
43.460         7
43.470        20
43.480         0
43.490         7
43.500         7
43.510        13
43.520        20
43.530         7
43.540        13
43.550         7
43.560        33
43.570        20
43.580        13
43.590        13
43.600         7
43.610         7
43.620        33
43.630        20
43.640        13
43.650         0
43.660        53
43.670         7
43.680        20
43.690        20
43.700        27
43.710         0
43.720         7
43.730        27
43.740         7
43.750         7
43.760        20
43.770         7
43.780         7
43.790        13
43.800        13
43.810        13
43.820        20
43.830         0
43.840        20
43.850         0
43.860         7
43.870         7
43.880        13
43.890        20
43.900         0
43.910         7
43.920        27
43.930        27
43.940        20
43.950        13
43.960         0
43.970         7
43.980        20
43.990        13
44.000        20
44.010        33
44.020        33
44.030        13
44.040         7
44.050         7
44.060        20
44.070        20
44.080        13
44.090        33
44.100        27
44.110        20
44.120         7
44.130        13
44.140         7
44.150        13
44.160        27
44.170        27
44.180         7
44.190        20
44.200        27
44.210        20
44.220        13
44.230        20
44.240         7
44.250        40
44.260        13
44.270         7
44.280        27
44.290         7
44.300        13
44.310        27
44.320        40
44.330        13
44.340        13
44.350        27
44.360        27
44.370         7
44.380        13
44.390         0
44.400        20
44.410        20
44.420        13
44.430         7
44.440         7
44.450        27
44.460         0
44.470         0
44.480        13
44.490        13
44.500         7
44.510         0
44.520         7
44.530        27
44.540        33
44.550        20
44.560        13
44.570         7
44.580        20
44.590        27
44.600        27
44.610        40
44.620        40
44.630        33
44.640        33
44.650         7
44.660         7
44.670        33
44.680        13
44.690        20
44.700        13
44.710        33
44.720         0
44.730        40
44.740        27
44.750        13
44.760        20
44.770        60
44.780        13
44.790        27
44.800        27
44.810        27
44.820        47
44.830        20
44.840        53
44.850        47
44.860        67
44.870        27
44.880        47
44.890        47
44.900        27
44.910        53
44.920        53
44.930        27
44.940        27
44.950        40
44.960        60
44.970        33
44.980        47
44.990        60
45.000        67
45.010        13
45.020        67
45.030        20
45.040        67
45.050        20
45.060        20
45.070        27
45.080        47
45.090        33
45.100        40
45.110        73
45.120        40
45.130        40
45.140        13
45.150        33
45.160        20
45.170         7
45.180        20
45.190        27
45.200        27
45.210         0
45.220        27
45.230        40
45.240         0
45.250        27
45.260        20
45.270         0
45.280        20
45.290        13
45.300         7
45.310        13
45.320        33
45.330        27
45.340        20
45.350        13
45.360        33
45.370        20
45.380         7
45.390         7
45.400        13
45.410        20
45.420        20
45.430         7
45.440        27
45.450        33
45.460        13
45.470        13
45.480        27
45.490         7
45.500        20
45.510         0
45.520        13
45.530        27
45.540        13
45.550         7
45.560         7
45.570        27
45.580        13
45.590        27
45.600        20
45.610        13
45.620         7
45.630         7
45.640         7
45.650        20
45.660        20
45.670         7
45.680        13
45.690        27
45.700        27
45.710        20
45.720        27
45.730        13
45.740         7
45.750        13
45.760        27
45.770        20
45.780         0
45.790        20
45.800        20
45.810        33
45.820        13
45.830        13
45.840        13
45.850        27
45.860        20
45.870        13
45.880         7
45.890        13
45.900        27
45.910         7
45.920        13
45.930         7
45.940        20
45.950        27
45.960        13
45.970        13
45.980        13
45.990        20
46.000        13
46.010        27
46.020        13
46.030        13
46.040         7
46.050        20
46.060        20
46.070         7
46.080         7
46.090         7
46.100         7
46.110        40
46.120         0
46.130         7
46.140         7
46.150         0
46.160        13
46.170         0
46.180        40
46.190         0
46.200        13
46.210         7
46.220        13
46.230        13
46.240        20
46.250         0
46.260        13
46.270         0
46.280         7
46.290        33
46.300        13
46.310        27
46.320        13
46.330        13
46.340        20
46.350         7
46.360        20
46.370         7
46.380        33
46.390        33
46.400        20
46.410         0
46.420         7
46.430        27
46.440         7
46.450         7
46.460        20
46.470        13
46.480        20
46.490        33
46.500        33
46.510        47
46.520        13
46.530        27
46.540        33
46.550        13
46.560         0
46.570        40
46.580        13
46.590        47
46.600        13
46.610        13
46.620        20
46.630        13
46.640        27
46.650         7
46.660        33
46.670        27
46.680        20
46.690        33
46.700        27
46.710        33
46.720        13
46.730        40
46.740        20
46.750        27
46.760        27
46.770        20
46.780        40
46.790        47
46.800         7
46.810        53
46.820        20
46.830        13
46.840        33
46.850         0
46.860        40
46.870         7
46.880        13
46.890        13
46.900        20
46.910        20
46.920        33
46.930        20
46.940        13
46.950         7
46.960        27
46.970        13
46.980        33
46.990        13
47.000        13
47.010        47
47.020        13
47.030        13
47.040        33
47.050        20
47.060         7
47.070        20
47.080         0
47.090        13
47.100        13
47.110        40
47.120        27
47.130        27
47.140        27
47.150        20
47.160        33
47.170         7
47.180        27
47.190        40
47.200        40
47.210        13
47.220        13
47.230        20
47.240        13
47.250         0
47.260        13
47.270        47
47.280         7
47.290        40
47.300        27
47.310        27
47.320        20
47.330        20
47.340        13
47.350         7
47.360        20
47.370        20
47.380        20
47.390         7
47.400        27
47.410        27
47.420         7
47.430        40
47.440        27
47.450        33
47.460        20
47.470        20
47.480        27
47.490        40
47.500        40
47.510        20
47.520        33
47.530         7
47.540        27
47.550        33
47.560         0
47.570         7
47.580        27
47.590        13
47.600        13
47.610         7
47.620        27
47.630        33
47.640        27
47.650        20
47.660        20
47.670        13
47.680        13
47.690        33
47.700        13
47.710        20
47.720        20
47.730        13
47.740        20
47.750        13
47.760        27
47.770         7
47.780        20
47.790        27
47.800         0
47.810        20
47.820        20
47.830        20
47.840         0
47.850        27
47.860        13
47.870        13
47.880        33
47.890        20
47.900        20
47.910        13
47.920         7
47.930        20
47.940        13
47.950        20
47.960        20
47.970        40
47.980        13
47.990        33
48.000        20
48.010        13
48.020         7
48.030        13
48.040         7
48.050        13
48.060        13
48.070        13
48.080        27
48.090        13
48.100        20
48.110        20
48.120        27
48.130         7
48.140         0
48.150        20
48.160         7
48.170         7
48.180         7
48.190        13
48.200        27
48.210        20
48.220        20
48.230        13
48.240        13
48.250        13
48.260        13
48.270        13
48.280        27
48.290        20
48.300         0
48.310        13
48.320        20
48.330         7
48.340        13
48.350        33
48.360        27
48.370        60
48.380        13
48.390        13
48.400        20
48.410        20
48.420         7
48.430        20
48.440        20
48.450        47
48.460        20
48.470         7
48.480        33
48.490        13
48.500        40
48.510        27
48.520         7
48.530        13
48.540        27
48.550        47
48.560        20
48.570        13
48.580        47
48.590         7
48.600        13
48.610        40
48.620        20
48.630        20
48.640        33
48.650        27
48.660        13
48.670         7
48.680         0
48.690        13
48.700        20
48.710        20
48.720        20
48.730        20
48.740         7
48.750        13
48.760         0
48.770         0
48.780        27
48.790        13
48.800         0
48.810         0
48.820         0
48.830        13
48.840        20
48.850        33
48.860        13
48.870        13
48.880         7
48.890        20
48.900        20
48.910        27
48.920         7
48.930        13
48.940        40
48.950        27
48.960        13
48.970         0
48.980         7
48.990        20
49.000        20
49.010         7
49.020         7
49.030        20
49.040        27
49.050         7
49.060        13
49.070        20
49.080        13
49.090        20
49.100        20
49.110        13
49.120        33
49.130        13
49.140        27
49.150         7
49.160        20
49.170        13
49.180         7
49.190        20
49.200         7
49.210         0
49.220        13
49.230        13
49.240        13
49.250        20
49.260        13
49.270        20
49.280         7
49.290        13
49.300        27
49.310        20
49.320        13
49.330         7
49.340         0
49.350        13
49.360         0
49.370        20
49.380        40
49.390         0
49.400         0
49.410        27
49.420         7
49.430         7
49.440        20
49.450        27
49.460         7
49.470         0
49.480         7
49.490         7
49.500        20
49.510        27
49.520        27
49.530        13
49.540         7
49.550        27
49.560        13
49.570        13
49.580         0
49.590        13
49.600         7
49.610        20
49.620        20
49.630        13
49.640        20
49.650        33
49.660         0
49.670        27
49.680        33
49.690         7
49.700         7
49.710        20
49.720        20
49.730         7
49.740        20
49.750        13
49.760        27
49.770        27
49.780        40
49.790         0
49.800         7
49.810         7
49.820        13
49.830         0
49.840         7
49.850        20
49.860        33
49.870         0
49.880        13
49.890        20
49.900        20
49.910        27
49.920        13
49.930        20
49.940        27
49.950        27
49.960        20
49.970        13
49.980         0
49.990        13
50.000         0
50.010         7
50.020        27
50.030        33
50.040         7
50.050        13
50.060        13
50.070        13
50.080        13
50.090        20
50.100        13
50.110        27
50.120        13
50.130        27
50.140        20
50.150        27
50.160        13
50.170         0
50.180        27
50.190        20
50.200        20
50.210        13
50.220        13
50.230         7
50.240        13
50.250         0
50.260        27
50.270         7
50.280        20
50.290         7
50.300        20
50.310         7
50.320         7
50.330        20
50.340        13
50.350        13
50.360        13
50.370        27
50.380         7
50.390         7
50.400        27
50.410        40
50.420        33
50.430         0
50.440         7
50.450        33
50.460         0
50.470         0
50.480         7
50.490         7
50.500        13
50.510        20
50.520         0
50.530        20
50.540        20
50.550        27
50.560        47
50.570        40
50.580        13
50.590         7
50.600        33
50.610        27
50.620         7
50.630         7
50.640        20
50.650        27
50.660        13
50.670        33
50.680        40
50.690        33
50.700        13
50.710        33
50.720        20
50.730        27
50.740        27
50.750        20
50.760        13
50.770        13
50.780        27
50.790        13
50.800        13
50.810        13
50.820        13
50.830         0
50.840         7
50.850        20
50.860        13
50.870        13
50.880        27
50.890        13
50.900        13
50.910        33
50.920         0
50.930        20
50.940         0
50.950        27
50.960        33
50.970        13
50.980        13
50.990        13
51.000         0
51.010        47
51.020        13
51.030        13
51.040         0
51.050        20
51.060        53
51.070        13
51.080        20
51.090        13
51.100        13
51.110        13
51.120        27
51.130         7
51.140        20
51.150        13
51.160        27
51.170        13
51.180        13
51.190        20
51.200        53
51.210         7
51.220        20
51.230        27
51.240         7
51.250        20
51.260        27
51.270        20
51.280        13
51.290        13
51.300         7
51.310         7
51.320        13
51.330        13
51.340        20
51.350        27
51.360         7
51.370        27
51.380        20
51.390        13
51.400        13
51.410        20
51.420        20
51.430         7
51.440        20
51.450         7
51.460         0
51.470        20
51.480        20
51.490        60
51.500        53
51.510        33
51.520        33
51.530        13
51.540        13
51.550        27
51.560        13
51.570        20
51.580         7
51.590        27
51.600        20
51.610        20
51.620        27
51.630        40
51.640        27
51.650        27
51.660        33
51.670         7
51.680        40
51.690        20
51.700        40
51.710        27
51.720        20
51.730        20
51.740        13
51.750        27
51.760         0
51.770        20
51.780        20
51.790        13
51.800        13
51.810         7
51.820        13
51.830        20
51.840         7
51.850        13
51.860         7
51.870        27
51.880        27
51.890        27
51.900        27
51.910        13
51.920         7
51.930        27
51.940        33
51.950        40
51.960        73
51.970        27
51.980        27
51.990        40
52.000        27
52.010        27
52.020        20
52.030         7
52.040        40
52.050        27
52.060        13
52.070        20
52.080        40
52.090        33
52.100         7
52.110        27
52.120        60
52.130        27
52.140        20
52.150        27
52.160        27
52.170        20
52.180        40
52.190        13
52.200        20
52.210        27
52.220        40
52.230        47
52.240        80
52.250        33
52.260        60
52.270        33
52.280        47
52.290        47
52.300        33
52.310        47
52.320        47
52.330        60
52.340        53
52.350        33
52.360        33
52.370        33
52.380        73
52.390        53
52.400        67
52.410        80
52.420       107
52.430       107
52.440       113
52.450       200
52.460       173
52.470       267
52.480       307
52.490       540
52.500       680
52.510       860
52.520      1060
52.530      1273
52.540      1240
52.550      1326
52.560      1353
52.570      1220
52.580      1146
52.590      1100
52.600       926
52.610       826
52.620       606
52.630       640
52.640       726
52.650       740
52.660       720
52.670       720
52.680       740
52.690       760
52.700       906
52.710       713
52.720       620
52.730       540
52.740       307
52.750       333
52.760       233
52.770       247
52.780       213
52.790       160
52.800       180
52.810       153
52.820       113
52.830       107
52.840        80
52.850        87
52.860        73
52.870        60
52.880        47
52.890        33
52.900        73
52.910        73
52.920        13
52.930        60
52.940        33
52.950        27
52.960        33
52.970        27
52.980        47
52.990        47
53.000        20
53.010        13
53.020        33
53.030         0
53.040        13
53.050        40
53.060        27
53.070        27
53.080        33
53.090        33
53.100        47
53.110        47
53.120        27
53.130        47
53.140        33
53.150        13
53.160        20
53.170         7
53.180        13
53.190        33
53.200        27
53.210        13
53.220         7
53.230        40
53.240        13
53.250        47
53.260        13
53.270        40
53.280        27
53.290        13
53.300         7
53.310        20
53.320        33
53.330        40
53.340        27
53.350        13
53.360        20
53.370         0
53.380        20
53.390        33
53.400        40
53.410        27
53.420        13
53.430        20
53.440        13
53.450        20
53.460        40
53.470         0
53.480        33
53.490         7
53.500        27
53.510        20
53.520        27
53.530        27
53.540        13
53.550        20
53.560        40
53.570        33
53.580        33
53.590        40
53.600        20
53.610        27
53.620        33
53.630        20
53.640        13
53.650        13
53.660        33
53.670        27
53.680         7
53.690        13
53.700        33
53.710        27
53.720        27
53.730        13
53.740        13
53.750        40
53.760        27
53.770        20
53.780        33
53.790        20
53.800         7
53.810         7
53.820        13
53.830        13
53.840        13
53.850        27
53.860        20
53.870        20
53.880        13
53.890        27
53.900        13
53.910        20
53.920        13
53.930        13
53.940         0
53.950        20
53.960        13
53.970        20
53.980        53
53.990        20
54.000        27
54.010        47
54.020        13
54.030        13
54.040        47
54.050        13
54.060        13
54.070        13
54.080         7
54.090        20
54.100         7
54.110        13
54.120        40
54.130        27
54.140        20
54.150         7
54.160        20
54.170        13
54.180         0
54.190         7
54.200        13
54.210        27
54.220        47
54.230         0
54.240        20
54.250         0
54.260        27
54.270        13
54.280         7
54.290        13
54.300        33
54.310        20
54.320        20
54.330        13
54.340        13
54.350         7
54.360        13
54.370        20
54.380        27
54.390        20
54.400         7
54.410         7
54.420        33
54.430        20
54.440        27
54.450        40
54.460        20
54.470        13
54.480         0
54.490        13
54.500        13
54.510        33
54.520        27
54.530        13
54.540        20
54.550         7
54.560        33
54.570         0
54.580        27
54.590        13
54.600        47
54.610        20
54.620        20
54.630        20
54.640         7
54.650        13
54.660        20
54.670        27
54.680        20
54.690        13
54.700        20
54.710         7
54.720        20
54.730        13
54.740        47
54.750        13
54.760        33
54.770        13
54.780        20
54.790         7
54.800        27
54.810        27
54.820        40
54.830        20
54.840        20
54.850        27
54.860        27
54.870        20
54.880        27
54.890        20
54.900        33
54.910        27
54.920        20
54.930        33
54.940        20
54.950        13
54.960        20
54.970        20
54.980        27
54.990        13
55.000        27
55.010        13
55.020        13
55.030        13
55.040         7
55.050        13
55.060        20
55.070        13
55.080        27
55.090         7
55.100        13
55.110        20
55.120        27
55.130        13
55.140        33
55.150        27
55.160         0
55.170        27
55.180        13
55.190        33
55.200        20
55.210        20
55.220        33
55.230        20
55.240         7
55.250        27
55.260         7
55.270        27
55.280        20
55.290        13
55.300        13
55.310        20
55.320         7
55.330        20
55.340        13
55.350         7
55.360        53
55.370        20
55.380        40
55.390        33
55.400        20
55.410         7
55.420        20
55.430        40
55.440         7
55.450        13
55.460        13
55.470         7
55.480        20
55.490         7
55.500        40
55.510        40
55.520        40
55.530        47
55.540        13
55.550        53
55.560        47
55.570        73
55.580        40
55.590        73
55.600        40
55.610        27
55.620        60
55.630       107
55.640        73
55.650       120
55.660       140
55.670       180
55.680       187
55.690        87
55.700       140
55.710       147
55.720       113
55.730       167
55.740       167
55.750       193
55.760       193
55.770       247
55.780       213
55.790       167
55.800       333
55.810       300
55.820       360
55.830       307
55.840       320
55.850       373
55.860       407
55.870       380
55.880       553
55.890       506
55.900       446
55.910       446
55.920       327
55.930       400
55.940       333
55.950       373
55.960       300
55.970       393
55.980       300
55.990       253
56.000       280
56.010       333
56.020       240
56.030       293
56.040       273
56.050       233
56.060       240
56.070       240
56.080       233
56.090       193
56.100       147
56.110       173
56.120       160
56.130       107
56.140       107
56.150        80
56.160       100
56.170        87
56.180        47
56.190        47
56.200        27
56.210        53
56.220        87
56.230        60
56.240        13
56.250        27
56.260        73
56.270        27
56.280        20
56.290        27
56.300        33
56.310         7
56.320        20
56.330        20
56.340        13
56.350        13
56.360        20
56.370         7
56.380        27
56.390         7
56.400        60
56.410        47
56.420         7
56.430        33
56.440        27
56.450        40
56.460        27
56.470        13
56.480        33
56.490        13
56.500        20
56.510        13
56.520         7
56.530        33
56.540        13
56.550        27
56.560        27
56.570        27
56.580        13
56.590        20
56.600        13
56.610         7
56.620         7
56.630        13
56.640         7
56.650        20
56.660        47
56.670        20
56.680        47
56.690        13
56.700        20
56.710        13
56.720        13
56.730         7
56.740        27
56.750         0
56.760        20
56.770        33
56.780         7
56.790         7
56.800         7
56.810        20
56.820        27
56.830        13
56.840        20
56.850        27
56.860         7
56.870        33
56.880         0
56.890         7
56.900        20
56.910        13
56.920         7
56.930        13
56.940         0
56.950         7
56.960        20
56.970         7
56.980        13
56.990         0
57.000        40
57.010        13
57.020        13
57.030        20
57.040        20
57.050        13
57.060        27
57.070         7
57.080         0
57.090        27
57.100        20
57.110        20
57.120        20
57.130        40
57.140         7
57.150         7
57.160        27
57.170        20
57.180         7
57.190        27
57.200        13
57.210         0
57.220         7
57.230        20
57.240        13
57.250        40
57.260        13
57.270        13
57.280        13
57.290        20
57.300        13
57.310         0
57.320        27
57.330        53
57.340        20
57.350        13
57.360        53
57.370         7
57.380        20
57.390         7
57.400        33
57.410        47
57.420        20
57.430         7
57.440         7
57.450         7
57.460        13
57.470        40
57.480        13
57.490         7
57.500         0
57.510        20
57.520        33
57.530        13
57.540        13
57.550         0
57.560        20
57.570         0
57.580        13
57.590        33
57.600        13
57.610         7
57.620         0
57.630        13
57.640         0
57.650         7
57.660        20
57.670        33
57.680        13
57.690         0
57.700         7
57.710        27
57.720        20
57.730        27
57.740        27
57.750         0
57.760        20
57.770        13
57.780        20
57.790        20
57.800        13
57.810        13
57.820        20
57.830         0
57.840        13
57.850         0
57.860         7
57.870         0
57.880         7
57.890         0
57.900         7
57.910        13
57.920        27
57.930        33
57.940         0
57.950        27
57.960         7
57.970         0
57.980         7
57.990        20
58.000        20
58.010        27
58.020        40
58.030        20
58.040         7
58.050         7
58.060        27
58.070         0
58.080        13
58.090         7
58.100        20
58.110         0
58.120         7
58.130        20
58.140        27
58.150        20
58.160        27
58.170        13
58.180         7
58.190         7
58.200        20
58.210        13
58.220         7
58.230        13
58.240         7
58.250        20
58.260        13
58.270        13
58.280        27
58.290        20
58.300        27
58.310        13
58.320         7
58.330        20
58.340         7
58.350        20
58.360        27
58.370        13
58.380        13
58.390        27
58.400        20
58.410        13
58.420        13
58.430        13
58.440        20
58.450        13
58.460        27
58.470        27
58.480        20
58.490        20
58.500        20
58.510        20
58.520         0
58.530        13
58.540         7
58.550        13
58.560        13
58.570        20
58.580        27
58.590        13
58.600         7
58.610         0
58.620        20
58.630        20
58.640        20
58.650        13
58.660         7
58.670         7
58.680         7
58.690        13
58.700         0
58.710        20
58.720        27
58.730         0
58.740        33
58.750        13
58.760         7
58.770        27
58.780        20
58.790        20
58.800        20
58.810         7
58.820         7
58.830        20
58.840         7
58.850        27
58.860        13
58.870        13
58.880         7
58.890        20
58.900         0
58.910         7
58.920        20
58.930        27
58.940         7
58.950        13
58.960        20
58.970         0
58.980        13
58.990        47
59.000         7
59.010        20
59.020        27
59.030        13
59.040        20
59.050        13
59.060         7
59.070         0
59.080         7
59.090         7
59.100        20
59.110         7
59.120         7
59.130        27
59.140        33
59.150        13
59.160        20
59.170        13
59.180        33
59.190         7
59.200        40
59.210        13
59.220        13
59.230        13
59.240         7
59.250         0
59.260        33
59.270        13
59.280        13
59.290        60
59.300        20
59.310        20
59.320         7
59.330        20
59.340        13
59.350        20
59.360        27
59.370        47
59.380        13
59.390         7
59.400         7
59.410         7
59.420         7
59.430         0
59.440        13
59.450         7
59.460         7
59.470         0
59.480        27
59.490        13
59.500        27
59.510        13
59.520        27
59.530        27
59.540        13
59.550        27
59.560        13
59.570         7
59.580        20
59.590        13
59.600        53
59.610        20
59.620        20
59.630        13
59.640        13
59.650        13
59.660        13
59.670        13
59.680        33
59.690         7
59.700         7
59.710        13
59.720         7
59.730         7
59.740         0
59.750        13
59.760        13
59.770        20
59.780        27
59.790         7
59.800         0
59.810        13
59.820        20
59.830         7
59.840         7
59.850        20
59.860        33
59.870        27
59.880        27
59.890        20
59.900         0
59.910         7
59.920        13
59.930         7
59.940        20
59.950        20
59.960         7
59.970        13
59.980        13
59.990        13
60.000        13
